# k  (h/Mpc)    Pcb(k)  (Mpc/h)^3    Pcb_linear(k) (Mpc/h)^3    Pcb_NL(k) (Mpc/h)^3   ShotnoiseSubtracted = false
      0.0156606         3513.96         3517.14         3499.42 
      0.0273761         3050.21         3043.16         3033.78 
      0.0384619         2317.86         2293.42         2289.56 
      0.0498308         1814.92         1804.25         1801.77 
      0.0625568         1531.28         1533.57         1530.05 
      0.0751274         1328.69         1303.02         1296.87 
      0.0867833         1051.72         1049.12         1048.21 
      0.0984825         854.965         830.266         834.037 
       0.111151         716.923         693.272         696.977 
       0.123864         644.058         624.788         627.704 
       0.135742          579.11         561.847          564.78 
        0.14762         492.446         480.411         487.311 
       0.160083         408.824         400.453          408.29 
       0.172465         360.941         349.521         358.979 
       0.184281         334.602         322.218         332.271 
       0.196406         305.132         297.569         305.366 
       0.209011         275.678         264.761         273.554 
       0.221538         245.456         231.377          243.67 
       0.233611         221.856         207.023           220.7 
       0.245665         208.451         191.074         203.252 
       0.258103         188.227         177.874         190.006 
       0.270422         176.555         163.446         175.269 
       0.282519         160.284         148.337          160.91 
       0.294636         153.823         135.151         148.415 
       0.306978         135.863         125.038         138.765 
       0.319417          129.79         116.903         130.161 
        0.33169         120.735         109.117         121.929 
       0.343948         114.864         101.103         114.212 
       0.356249         105.657         93.5875         107.802 
       0.368458         101.064         87.2927         100.519 
        0.38068         94.9888         82.0285         95.1303 
       0.392856         88.6715         77.2231         90.4266 
       0.405069         84.0123         72.5243         85.4407 
       0.417459         79.0286         67.9746          80.866 
       0.429752         75.7741         63.8905         76.8274 
       0.441978         72.2567         60.3059         73.6747 
       0.454294         67.2115         57.0508         69.7461 
        0.46658         66.8896         53.9967         66.6794 
       0.478753         62.2103         51.1154         63.8342 
       0.490964          60.185         48.4089           61.24 
       0.503334         57.6886         45.9108         58.4764 
       0.515665         55.0279         43.6329         56.6026 
       0.527909         52.7163           41.53         53.6437 
       0.540159         50.6695         39.5405         51.6988 
        0.55248         47.5189         37.6527         49.5899 
       0.564743          46.805         35.9047         47.9814 
        0.57686         45.3042         34.2982         46.2179 
       0.589077         42.7695         32.7816         44.7698 
       0.601441         41.3953         31.3396         43.2057 
        0.61382         40.0303           29.98         41.5488 
       0.626067         38.4043         28.7112         40.3317 
       0.638306         37.2005         27.5164          38.903 
       0.650632         36.1082         26.3845         37.6423 
       0.662899         34.8109         25.3237         36.3997 
       0.675076         33.2679         24.3296         35.2883 
       0.687267         32.8506         23.3876         34.1946 
       0.699615         31.6846         22.4837         33.3106 
       0.711937         30.1856         21.6292         32.1936 
       0.724148         30.0472         20.8263         31.4595 
       0.736433         28.3148         20.0603         30.4864 
       0.748747         27.8956         19.3316          29.658 
       0.761037         27.1548         18.6409         28.9245 
       0.773197         26.3496         17.9911          28.215 
       0.785376         25.3353         17.3715         27.4757 
       0.797761         24.8813         16.7716         26.8008 
       0.810096         24.3199         16.2023         26.1415 
       0.822371         23.6664         15.6622          25.417 
       0.834626         22.9446         15.1478         24.9176 
       0.846916         22.2966         14.6552          24.284 
       0.859215         21.5229         14.1844         23.7301 
       0.871383         21.1787          13.739         23.2526 
        0.88363         20.6318         13.3102         22.7379 
       0.895928          20.209         12.8982         22.1658 
       0.908253         19.7459         12.5029         21.7584 
       0.920535         19.2203         12.1256         21.2627 
       0.932774         18.9175         11.7653         20.7696 
        0.94508         18.3659         11.4179         20.3679 
       0.957324         18.0272         11.0862          19.983 
        0.96953          17.456         10.7688         19.5529 
       0.981769          17.299         10.4631         19.2002 
       0.994071         16.8118         10.1679          18.799 
         1.0064         16.3599          9.8836         18.4611 
        1.01868         16.0425         9.61105         18.1295 
        1.03092         15.8582         9.35004         17.7674 
         1.0432         15.3104         9.09783          17.418 
        1.05553         15.0691         8.85399         17.1863 
        1.06777         14.6336         8.62089         16.8062 
           1.08         14.3709         8.39645         16.5346 
        1.09227         14.1059         8.17931         16.2703 
         1.1046         13.8848         7.96907         15.9515 
         1.1169         13.5227         7.76662         15.6791 
        1.12915          13.459         7.57223         15.4685 
        1.14142         12.9537         7.38412         15.1827 
        1.15365         12.8578         7.20298         14.9346 
        1.16585         12.6993         7.02843         14.7309 
        1.17807          12.321         6.85946         14.4454 
        1.19037         12.1614         6.69496         14.2603 
        1.20276         11.9062         6.53476         14.0203 
        1.21504         11.7387         6.38109         13.8304 
        1.22728         11.4441           6.233         13.6009 
        1.23954         11.2863         6.08929          13.415 
        1.25184          11.071         5.94985         13.2194 
        1.26414         10.9216         5.81472         13.0027 
        1.27632         10.6664         5.68502         12.8212 
         1.2886         10.5555         5.55837         12.6512 
        1.30093         10.3324         5.43515         12.5168 
        1.31316         10.1635         5.31656         12.3048 
        1.32541         10.0107         5.20151         12.1754 
        1.33772         9.81924         5.08923         11.9817 
        1.35005         9.70744          4.9802         11.8384 
        1.36225         9.52519         4.87548         11.6611 
        1.37447         9.36678         4.77358         11.5235 
        1.38676         9.21854         4.67413         11.3856 
        1.39907         9.05706         4.57736         11.2325 
        1.41133          8.9319         4.48375         11.0948 
        1.42358         8.76231         4.39286          10.944 
        1.43591         8.66911         4.30387         10.8356 
        1.44818         8.48857         4.21783         10.6991 
        1.46037         8.39228         4.13467          10.556 
        1.47263         8.25329         4.05329         10.4513 
        1.48494         8.17887         3.97379         10.3015 
        1.49724         8.01835          3.8965         10.2013 
        1.50952         7.97891         3.82142          10.087 
        1.52178         7.81126         3.74843         9.96216 
        1.53409         7.67063         3.67706         9.84458 
        1.54637         7.60784          3.6077         9.72224 
        1.55858         7.52256         3.54053         9.62329 
        1.57081         7.34536         3.47497         9.53387 
        1.58313         7.29756         3.41067         9.42449 
        1.59544         7.14726         3.34804         9.33165 
        1.60767         7.07545         3.28738         9.21985 
        1.61994         6.97352         3.22801         9.13671 
        1.63225         6.88116         3.16999         9.03905 
        1.64452         6.77289         3.11356         8.94513 
        1.65676         6.68343         3.05868         8.85283 
          1.669         6.63486         3.00509         8.75921 
        1.68133         6.48735         2.95244         8.66817 
        1.69363         6.42741         2.90121         8.59291 
        1.70585         6.34122         2.85152         8.50231 
        1.71809         6.26913          2.8029         8.42394 
        1.73038         6.20862         2.75526         8.34456 
        1.74268         6.11947          2.7087         8.26501 
        1.75493         6.02679         2.66343         8.17137 
        1.76714         6.00387         2.61931         8.10706 
        1.77942         5.90702         2.57597         8.02102 
        1.79173         5.82249         2.53349          7.9463 
        1.80402         5.77519         2.49207         7.87578 
         1.8163         5.71037         2.45159         7.81295 
         1.8286         5.61783         2.41195         7.74186 
         1.8409         5.54868         2.37321         7.67797 
        1.85315         5.48575         2.33546          7.5963 
        1.86537         5.44708         2.29861         7.53516 
        1.87765         5.36961         2.26241         7.46479 
        1.88995         5.28166         2.22691         7.40669 
        1.90221         5.24532         2.19229         7.33436 
        1.91445         5.17666         2.15847         7.28855 
        1.92674         5.13682         2.12524         7.21109 
        1.93902         5.07645         2.09271         7.15468 
        1.95124         5.01299         2.06104         7.08618 
         1.9635         4.97072         2.02994         7.03984 
        1.97583          4.9171         1.99929          6.9784 
        1.98812         4.85337         1.96938         6.91107 
        2.00039         4.80011         1.94015         6.86791 
        2.01264         4.75709         1.91154          6.8141 
        2.02492          4.7109         1.88347         6.75542 
        2.03717         4.65419           1.856         6.70112 
        2.04942         4.58683         1.82912         6.65471 
        2.06171          4.5549         1.80268         6.59971 
        2.07397         4.51343         1.77683         6.54722 
        2.08629         4.46564         1.75137         6.50052 
        2.09857         4.41334         1.72647         6.44859 
        2.11081         4.37313         1.70216         6.40525 
        2.12309         4.32547         1.67826         6.34728 
        2.13538         4.28382         1.65478         6.30938 
        2.14763         4.24423         1.63183         6.25963 
        2.15986         4.21193         1.60937         6.21449 
        2.17214          4.1631         1.58724         6.16134 
        2.18443         4.12987         1.56551         6.11978 
        2.19671         4.07802         1.54421         6.07636 
        2.20898         4.04228         1.52333         6.03566 
        2.22126         4.01105         1.50282         5.98938 
        2.23354         3.96782         1.48269         5.94337 
         2.2458         3.93855         1.46296         5.89906 
        2.25807         3.90117         1.44358         5.86353 
        2.27035         3.86343         1.42453         5.82563 
        2.28263         3.83091         1.40583         5.78274 
         2.2949         3.79773         1.38748         5.74747 
        2.30718         3.76388         1.36945         5.71507 
        2.31946         3.73837         1.35173         5.67463 
        2.33169         3.69769         1.33441         5.63099 
        2.34393         3.68119         1.31736         5.59397 
        2.35622         3.65165         1.30055         5.55449 
        2.36847         3.61196         1.28408         5.51851 
        2.38076         3.59186         1.26785         5.48071 
        2.39305         3.54823         1.25191         5.44195 
        2.40534         3.52513         1.23623         5.40839 
        2.41762          3.4825         1.22083         5.37977 
        2.42989         3.47161         1.20572         5.34238 
        2.44216         3.45193         1.19086          5.3106 
         2.4544         3.41128         1.17629         5.27466 
        2.46667         3.39452         1.16192         5.24235 
        2.47897         3.36027         1.14776         5.20852 
        2.49124         3.33109         1.13388         5.17562 
        2.50349         3.31821         1.12025         5.14747 
        2.51578         3.27877          1.1068         5.11258 
        2.52805          3.2641         1.09359         5.08123 
        2.54029          3.2424         1.08064         5.05102 
        2.55257         3.22571         1.06785         5.02252 
        2.56487         3.19644         1.05525         4.98722 
        2.57716          3.1879         1.04287         4.95812 
        2.58942         3.15062         1.03071         4.92995 
        2.60167         3.13456         1.01876         4.89855 
        2.61395          3.1037         1.00698         4.87198 
        2.62624          3.1046        0.995374         4.84535 
        2.63849         3.07279        0.983986         4.81289 
        2.65073         3.05267        0.972787         4.78424 
        2.66302         3.03838        0.961723         4.75771 
         2.6753         3.02425        0.950838         4.73038 
        2.68756         2.99514        0.940144         4.70504 
        2.69983         2.98276        0.929607         4.67484 
        2.71213         2.97417        0.919209         4.64818 
        2.72441          2.9559        0.908989         4.62286 
        2.73665         2.93868        0.898949          4.5962 
         2.7489           2.916        0.889066         4.57367 
        2.76118         2.90131        0.879301         4.55259 
        2.77349         2.89898         0.86966         4.52263 
        2.78576         2.88201        0.860202         4.49706 
        2.79802         2.87433        0.850888         4.47444 
        2.81031         2.85373        0.841692         4.44873 
        2.82259         2.84038        0.832635         4.42407 
        2.83483         2.83836        0.823745         4.40114 
         2.8471         2.82143        0.814968         4.37736 
         2.8594         2.81437        0.806292          4.3558 
         2.8717         2.80048        0.797746         4.33021 
        2.88396         2.79423        0.789355         4.30572 
        2.89619         2.77001          0.7811         4.28491 
        2.90847         2.76934        0.772932         4.25886 
        2.92072         2.76866        0.764894         4.23848 
        2.93299         2.76003        0.756967         4.21653 
        2.94526         2.76027        0.749145         4.19506 
        2.95753         2.74073        0.741436         4.17342 
        2.96982         2.73047        0.733822         4.15153 
        2.98209         2.73495        0.726331         4.13114 
        2.99436          2.7247        0.718938         4.10952 
        3.00666         2.73159        0.711635         4.08934 
        3.01894         2.72227        0.704448         4.06501 
        3.03119         2.72478        0.697371         4.04533 
        3.04345         2.71702         0.69039         4.02746 
        3.05573         2.71874        0.683491         4.00699 
          3.068         2.71686        0.676693         3.98752 
        3.08026         2.72417        0.669995         3.96694 
        3.09254          2.7206        0.663375         3.94605 
        3.10483         2.72446        0.656843         3.92759 
         3.1171         2.72555        0.650409         3.90961 
        3.12933         2.73324        0.644078           3.889 
        3.14159         2.72823        0.637817         3.86771 
