# k  (h/Mpc)    Pcb(k)  (Mpc/h)^3    Pcb_linear(k) (Mpc/h)^3    Pcb_NL(k) (Mpc/h)^3   ShotnoiseSubtracted = false
      0.0156606         14879.2         14936.5         14835.3 
      0.0273761         12802.1         12915.8         12813.5 
      0.0384619         9703.09         9731.07         9647.02 
      0.0498308         7522.67         7654.34          7572.1 
      0.0625568         6351.75         6505.34         6430.01 
      0.0751274         5623.24         5527.04         5419.07 
      0.0867833         4377.59          4449.9         4419.05 
      0.0984825         3657.99         3521.53         3557.21 
       0.111151          3108.7         2940.42         2980.83 
       0.123864         2788.81         2649.92          2683.3 
       0.135742         2529.79         2382.94         2416.96 
        0.14762         2186.84         2037.53         2126.65 
       0.160083         1835.33          1698.4         1804.96 
       0.172465         1636.55         1482.38         1616.78 
       0.184281         1497.42         1366.58         1504.05 
       0.196406         1389.71         1262.03         1380.45 
       0.209011         1287.22         1122.89         1247.55 
       0.221538         1161.22         981.298         1152.21 
       0.233611         1093.77         878.007         1070.27 
       0.245665         1001.95         810.367         985.538 
       0.258103         966.125         754.382         928.136 
       0.270422          870.05         693.189         867.392 
       0.282519         809.466         629.108         812.753 
       0.294636         801.656         573.187         765.326 
       0.306978         720.551         530.295         729.454 
       0.319417         697.776         495.795         686.594 
        0.33169         657.503         462.771         647.323 
       0.343948         626.897         428.784         623.976 
       0.356249         589.351         396.911         598.089 
       0.368458         571.491         370.214         566.653 
        0.38068         551.973         347.888         542.459 
       0.392856         520.184         327.508         521.079 
       0.405069         498.127          307.58         504.679 
       0.417459         477.519         288.284         480.949 
       0.429752         465.062         270.963         463.502 
       0.441978         449.775         255.761         450.091 
       0.454294         425.151         241.956         430.362 
        0.46658         417.758         229.003         419.671 
       0.478753         404.341         216.783         405.476 
       0.490964         389.734         205.305         391.972 
       0.503334         368.351          194.71         381.466 
       0.515665         366.828         185.049         373.106 
       0.527909         353.879         176.131         362.182 
       0.540159         344.843         167.693         351.935 
        0.55248         338.081         159.687         342.128 
       0.564743         332.406         152.274         335.494 
        0.57686          319.59          145.46          325.58 
       0.589077         308.275         139.028         318.446 
       0.601441         304.842         132.913         311.099 
        0.61382          299.85         127.146         304.755 
       0.626067         294.338         121.766         297.967 
       0.638306         281.184         116.698         292.262 
       0.650632         275.959         111.898         283.623 
       0.662899         274.094         107.399         279.794 
       0.675076         263.578         103.183         274.182 
       0.687267          256.98         99.1877         267.945 
       0.699615         252.878         95.3542         263.137 
       0.711937         248.463         91.7303         258.345 
       0.724148         241.532         88.3254         254.451 
       0.736433         236.308         85.0765           249.1 
       0.748747         232.092         81.9863         244.282 
       0.761037         228.136         79.0569         240.114 
       0.773197         224.694          76.301         237.048 
       0.785376         221.762         73.6734         232.464 
       0.797761         216.442         71.1288         229.223 
       0.810096         213.334         68.7146         225.633 
       0.822371         205.281         66.4241         221.883 
       0.834626          204.53         64.2423         218.401 
       0.846916         200.637         62.1532         215.229 
       0.859215         200.088         60.1564         212.041 
       0.871383         194.787         58.2676         208.644 
        0.88363         192.863         56.4491         206.445 
       0.895928         188.441         54.7017         203.304 
       0.908253         183.234         53.0254         199.827 
       0.920535          182.64         51.4253         197.159 
       0.932774         176.531         49.8971         194.323 
        0.94508          175.01         48.4236         192.245 
       0.957324         174.512         47.0171         189.326 
        0.96953         172.216          45.671         186.481 
       0.981769         166.848         44.3745         184.806 
       0.994071         166.053         43.1224         182.339 
         1.0064         162.104         41.9167         179.558 
        1.01868         159.993         40.7608         177.581 
        1.03092         157.324         39.6539         175.609 
         1.0432         154.257         38.5843         173.393 
        1.05553         151.669         37.5501         171.393 
        1.06777         151.473         36.5615         169.636 
           1.08         147.795         35.6096         167.381 
        1.09227         146.163         34.6887         165.707 
         1.1046         143.751         33.7971          163.77 
         1.1169         141.769         32.9385          161.55 
        1.12915         139.506         32.1141         159.952 
        1.14142         137.302         31.3163         157.874 
        1.15365         135.464         30.5481         156.212 
        1.16585          133.53         29.8078         154.196 
        1.17807         131.585         29.0912         153.094 
        1.19037         130.883         28.3936         151.472 
        1.20276         128.242         27.7141         149.627 
        1.21504         126.592         27.0624         148.003 
        1.22728          124.06         26.4344         146.244 
        1.23954         123.354         25.8249         144.988 
        1.25184         120.805         25.2335         143.381 
        1.26414         119.155         24.6604         141.893 
        1.27632         118.551         24.1104         141.153 
         1.2886         116.312         23.5732         139.086 
        1.30093         113.462         23.0506         137.605 
        1.31316         113.106         22.5477         136.204 
        1.32541         111.399         22.0598         135.153 
        1.33772         110.217         21.5836         133.702 
        1.35005         108.784         21.1212         132.234 
        1.36225         107.434         20.6771          131.05 
        1.37447         105.333         20.2449         129.617 
        1.38676         104.702         19.8232          128.25 
        1.39907         102.346         19.4127         127.158 
        1.41133         100.978         19.0158         126.127 
        1.42358          99.627         18.6303          124.85 
        1.43591         98.9581         18.2528         123.477 
        1.44818         97.8714          17.888         122.461 
        1.46037         96.0073         17.5353         121.254 
        1.47263         94.7021         17.1901         120.333 
        1.48494           93.84          16.853         119.048 
        1.49724         92.3208         16.5252         117.807 
        1.50952         90.8324         16.2068         116.786 
        1.52178         90.0539         15.8972         115.739 
        1.53409         88.9885         15.5946         114.728 
        1.54637          87.203         15.3004         113.681 
        1.55858         86.1856         15.0155         112.597 
        1.57081         84.9445         14.7375          111.63 
        1.58313          83.923         14.4648         110.619 
        1.59544         83.0106         14.1991         109.623 
        1.60767          81.753         13.9419         108.598 
        1.61994         80.6374         13.6901         107.903 
        1.63225          79.441         13.4441         106.596 
        1.64452         78.3435         13.2047         105.764 
        1.65676         77.2538          12.972         104.858 
          1.669         76.6979         12.7447         104.013 
        1.68133         75.6606         12.5214         103.032 
        1.69363         74.7025         12.3041         102.233 
        1.70585         73.7354         12.0934         101.272 
        1.71809           72.47         11.8872         100.507 
        1.73038         71.7138         11.6852          99.533 
        1.74268         70.5665         11.4877         98.7269 
        1.75493          69.992         11.2957         97.8353 
        1.76714         68.7997         11.1086         97.0265 
        1.77942         68.3425         10.9248         96.1753 
        1.79173         67.1512         10.7446         95.3601 
        1.80402         66.4278         10.5689         94.6414 
         1.8163         65.5625         10.3973         93.6876 
         1.8286         64.6068         10.2292         93.0421 
         1.8409          63.723         10.0649         92.2142 
        1.85315         62.7912         9.90477         91.5553 
        1.86537         62.1576         9.74847         90.7338 
        1.87765         61.4331         9.59496         89.8647 
        1.88995         60.5579         9.44439         89.2271 
        1.90221         59.8846         9.29758         88.4696 
        1.91445         58.7829         9.15413         87.7755 
        1.92674         58.2614         9.01321          87.064 
        1.93902         57.5268         8.87526         86.2875 
        1.95124         57.0852         8.74093         85.7108 
         1.9635         56.0026         8.60904         84.8647 
        1.97583         55.4627         8.47904         84.3122 
        1.98812          54.772         8.35222         83.5567 
        2.00039         53.9499         8.22825         82.8925 
        2.01264         53.3543         8.10691         82.2182 
        2.02492         52.6143         7.98785         81.5933 
        2.03717         51.8998         7.87137         80.8675 
        2.04942         51.2734         7.75737         80.3158 
        2.06171         50.5574         7.64525         79.6104 
        2.07397         49.9396         7.53558         79.0484 
        2.08629          49.425         7.42761         78.3539 
        2.09857         48.8662         7.32202          77.784 
        2.11081         47.7963         7.21891         77.0999 
        2.12309         47.5306         7.11755         76.5518 
        2.13538         46.8979         7.01798         75.9402 
        2.14763         46.3953         6.92065          75.358 
        2.15986         45.6955          6.8254         74.7561 
        2.17214         45.0889         6.73155         74.2274 
        2.18443         44.7772         6.63938         73.6342 
        2.19671         43.9326         6.54905         73.0198 
        2.20898         43.6456          6.4605         72.4625 
        2.22126         43.0313          6.3735         71.8812 
        2.23354         42.4451         6.28813         71.3849 
         2.2458         42.0264         6.20447         70.8513 
        2.25807         41.6188         6.12226         70.2569 
        2.27035         41.0306         6.04147         69.7298 
        2.28263         40.4493         5.96218         69.1896 
         2.2949         39.9547         5.88435         68.6857 
        2.30718         39.5183         5.80789          68.187 
        2.31946         38.9433         5.73275         67.6943 
        2.33169         38.5135         5.65927         67.1622 
        2.34393         37.9092         5.58695         66.6514 
        2.35622          37.643         5.51568         66.1515 
        2.36847         37.1608         5.44584         65.6703 
        2.38076         36.8174         5.37701         65.1801 
        2.39305         36.3279         5.30938         64.7063 
        2.40534          35.957         5.24291         64.1663 
        2.41762         35.5477          5.1776         63.6859 
        2.42989         34.9761         5.11349         63.2714 
        2.44216         34.7552         5.05047         62.7855 
         2.4544         34.3857         4.98867         62.3332 
        2.46667         33.8618         4.92775         61.8356 
        2.47897         33.5325         4.86771         61.4064 
        2.49124         33.0868         4.80883         60.9598 
        2.50349         32.6691         4.75101          60.525 
        2.51578         32.3301         4.69397         60.1081 
        2.52805         32.2111         4.63797         59.6475 
        2.54029         31.7563         4.58302         59.2175 
        2.55257         31.3242         4.52879         58.8056 
        2.56487         31.0048         4.47535         58.3919 
        2.57716         30.6805         4.42283         58.0029 
        2.58942         30.3031         4.37128         57.5643 
        2.60167         29.8995          4.3206          57.124 
        2.61395          29.679         4.27065         56.7392 
        2.62624          29.445         4.22141         56.3353 
        2.63849         29.1355         4.17312         55.9408 
        2.65073         28.8006         4.12562         55.5181 
        2.66302          28.518          4.0787         55.1494 
         2.6753         28.1777         4.03254         54.7652 
        2.68756         27.8244         3.98718         54.3638 
        2.69983         27.6086         3.94249         54.0012 
        2.71213         27.2786          3.8984         53.6401 
        2.72441           27.15         3.85505         53.2413 
        2.73665         26.8647         3.81247         52.8705 
         2.7489         26.6663         3.77056         52.5128 
        2.76118         26.3462         3.72915         52.1397 
        2.77349          26.153         3.68826         51.7983 
        2.78576         25.9666         3.64814         51.4268 
        2.79802         25.6454         3.60865         51.0794 
        2.81031         25.4266         3.56964         50.7422 
        2.82259         25.2064         3.53123         50.3761 
        2.83483         24.9681         3.49353          50.031 
         2.8471         24.7312         3.45631         49.7007 
         2.8594         24.5552         3.41951         49.3812 
         2.8717         24.2826         3.38327         49.0369 
        2.88396          24.172         3.34768         48.6859 
        2.89619         23.9771         3.31267         48.3623 
        2.90847         23.7767         3.27803         48.0413 
        2.92072         23.6834         3.24394         47.7213 
        2.93299         23.5515         3.21032         47.3902 
        2.94526         23.3182         3.17715         47.0893 
        2.95753         23.1643         3.14445         46.7921 
        2.96982         23.1348         3.11217         46.4759 
        2.98209         22.9197         3.08039         46.1689 
        2.99436         22.7303         3.04904         45.8595 
        3.00666         22.7134         3.01807         45.5576 
        3.01894         22.5695         2.98759         45.2404 
        3.03119         22.4111         2.95757         44.9444 
        3.04345         22.3199         2.92797          44.665 
        3.05573         22.2543         2.89871         44.3769 
          3.068         22.1853         2.86988         44.0833 
        3.08026         22.0883         2.84147         43.7928 
        3.09254         21.9842          2.8134         43.5154 
        3.10483         22.0008          2.7857         43.2394 
         3.1171         21.9023          2.7584         42.9587 
        3.12933         21.9164         2.73155         42.6816 
        3.14159         21.8162           2.705         42.4035 
