# k  (h/Mpc)    Pcb(k)  (Mpc/h)^3    Pcb_linear(k) (Mpc/h)^3    Pcb_NL(k) (Mpc/h)^3   ShotnoiseSubtracted = false
      0.0156606          6641.8          6653.3         6616.52 
      0.0273761          5748.1         5755.26         5729.73 
      0.0384619         4366.44         4336.89         4320.97 
      0.0498308         3407.41         3411.67         3397.95 
      0.0625568         2875.31         2899.73         2885.59 
      0.0751274         2514.77         2463.75          2441.9 
      0.0867833         1977.74         1983.65         1979.02 
      0.0984825         1623.41         1569.83         1580.46 
       0.111151         1366.84          1310.8         1321.68 
       0.123864         1227.92         1181.31         1190.42 
       0.135742         1107.02          1062.3         1071.67 
        0.14762         945.495         908.327         930.893 
       0.160083         785.648         757.146         782.938 
       0.172465         697.266         660.846         692.562 
       0.184281         645.084         609.224         642.686 
       0.196406         589.465         562.618         589.433 
       0.209011          537.14         500.587         530.034 
       0.221538         481.702         437.467         478.629 
       0.233611         440.603          391.42         437.479 
       0.245665         412.388         361.266         402.481 
       0.258103         378.277         336.308         377.338 
       0.270422         351.316         309.028         349.571 
       0.282519         320.299         280.461         323.104 
       0.294636         313.446         255.531         300.487 
       0.306978         276.955         236.409          283.13 
       0.319417         265.369         221.029         265.931 
        0.33169         248.009         206.307         249.657 
       0.343948          236.71         191.156         236.463 
       0.356249         219.759         176.946         224.656 
       0.368458         211.747         165.045         210.627 
        0.38068         200.717         155.092         200.126 
       0.392856         187.244         146.006         191.148 
       0.405069         178.727         137.122         182.462 
       0.417459         169.965          128.52         172.648 
       0.429752         163.462         120.798         165.318 
       0.441978         157.053         114.021         159.454 
       0.454294         146.191         107.866         151.359 
        0.46658           146.4         102.092         145.952 
       0.478753         137.253         96.6439         140.406 
       0.490964         133.078         91.5269         134.964 
       0.503334          126.82         86.8037         130.149 
       0.515665         123.011         82.4967         126.617 
       0.527909         118.919         78.5208         120.784 
       0.540159         114.841         74.7593         117.142 
        0.55248         110.333           71.19         112.962 
       0.564743         107.432         67.8851         109.803 
        0.57686          104.08         64.8476         106.139 
       0.589077          99.227         61.9803         103.396 
       0.601441         96.9018         59.2538         100.457 
        0.61382         94.8343         56.6831         97.2016 
       0.626067         90.9692         54.2843         94.6671 
       0.638306         88.0641         52.0254         92.1062 
       0.650632         84.9236         49.8851         88.8537 
       0.662899         84.2288         47.8795         86.6675 
       0.675076         81.0893         45.9999         84.4859 
       0.687267         79.5079         44.2189         82.3337 
       0.699615         76.8701         42.5099         80.6381 
       0.711937         74.3344         40.8943         78.1516 
       0.724148         73.7941         39.3764         77.0089 
       0.736433          70.385          37.928         74.8437 
       0.748747         69.2746         36.5503         73.1173 
       0.761037         67.5387         35.2444         71.3778 
       0.773197         66.0693         34.0158         70.3681 
       0.785376         64.2083         32.8444           68.54 
       0.797761          63.629           31.71           67.37 
       0.810096          61.553         30.6337         65.7921 
       0.822371         60.3737         29.6126         64.4017 
       0.834626          58.886         28.6399         63.3332 
       0.846916         57.7921         27.7086         62.0901 
       0.859215         56.3608         26.8184         60.7726 
       0.871383         55.6182         25.9763         59.7347 
        0.88363           54.12         25.1656         58.8344 
       0.895928         52.9152         24.3866         57.6688 
       0.908253         51.7341         23.6393         56.7212 
       0.920535         51.3097         22.9259          55.715 
       0.932774         50.3263         22.2447          54.763 
        0.94508         49.5316         21.5878         53.6998 
       0.957324         48.2813         20.9607         52.9524 
        0.96953         47.9829         20.3606         51.9678 
       0.981769         46.5175         19.7826         51.3029 
       0.994071          45.879         19.2244          50.507 
         1.0064         44.8885         18.6869         49.6909 
        1.01868         44.0791         18.1716         48.9922 
        1.03092         43.5371         17.6781         48.2165 
         1.0432         42.7353         17.2013         47.3776 
        1.05553         41.7524         16.7402         47.0077 
        1.06777         41.1123         16.2995         46.1877 
           1.08          40.142         15.8752          45.492 
        1.09227         39.7255         15.4646         44.9104 
         1.1046         39.1426         15.0671          44.228 
         1.1169         38.6506         14.6843         43.6076 
        1.12915         37.9882         14.3168          43.083 
        1.14142         37.1895         13.9612         42.5114 
        1.15365         36.7153         13.6187              42 
        1.16585         36.1617         13.2886         41.3994 
        1.17807         35.5443         12.9692         40.7988 
        1.19037         35.3807         12.6582         40.4599 
        1.20276         34.8183         12.3553          39.914 
        1.21504         34.1852         12.0647         39.4889 
        1.22728         33.5959         11.7847         38.9727 
        1.23954         33.2187          11.513         38.4112 
        1.25184         32.6129         11.2494         38.0375 
        1.26414         32.2073         10.9939         37.5343 
        1.27632          31.913         10.7487          37.121 
         1.2886         31.5648         10.5092         36.7255 
        1.30093         30.9201         10.2762          36.274 
        1.31316         30.5035          10.052         35.9139 
        1.32541         30.2486         9.83449         35.5218 
        1.33772         29.6831          9.6222         35.1395 
        1.35005         29.3109         9.41605         34.7854 
        1.36225         28.8875         9.21806         34.4398 
        1.37447         28.2411          9.0254         34.0235 
        1.38676         28.2343         8.83738         33.7324 
        1.39907         27.7713         8.65441         33.3985 
        1.41133         27.2544         8.47743         33.0118 
        1.42358         26.9909         8.30558         32.6779 
        1.43591         26.5986         8.13732         32.3886 
        1.44818         26.3503         7.97466         32.0352 
        1.46037         26.0677         7.81742         31.6982 
        1.47263         25.7944         7.66355         31.4507 
        1.48494         25.4014         7.51325          31.111 
        1.49724         25.3163         7.36711         30.8233 
        1.50952         24.8221         7.22516         30.5805 
        1.52178         24.5144         7.08716         30.2512 
        1.53409         24.2461         6.95222         29.9858 
        1.54637         24.0082         6.82108           29.67 
        1.55858         23.4764         6.69408         29.4266 
        1.57081         23.4814         6.57013         29.1798 
        1.58313         23.2021         6.44856         28.8892 
        1.59544         22.7702         6.33013         28.6628 
        1.60767         22.5433         6.21544         28.3646 
        1.61994         22.2312          6.1032         28.1503 
        1.63225         22.1554          5.9935         27.9522 
        1.64452         21.7777         5.88681         27.7079 
        1.65676         21.5783         5.78305         27.4435 
          1.669         21.3801         5.68172         27.2353 
        1.68133         21.0313         5.58218         26.9939 
        1.69363         20.8032         5.48532         26.6995 
        1.70585         20.5972         5.39137         26.5718 
        1.71809         20.3066         5.29944         26.3114 
        1.73038         20.1568         5.20937         26.1311 
        1.74268         19.9684         5.12133         25.8684 
        1.75493         19.6529         5.03574         25.6873 
        1.76714         19.6011         4.95233         25.4865 
        1.77942         19.3834         4.87038         25.2652 
        1.79173         18.9741         4.79008         25.0787 
        1.80402         18.8004         4.71175         24.9353 
         1.8163         18.7221         4.63523         24.6622 
         1.8286         18.4311         4.56027         24.5117 
         1.8409          18.241         4.48704          24.329 
        1.85315         18.0927         4.41566         24.1435 
        1.86537         17.8451         4.34597         23.9618 
        1.87765         17.7271         4.27754         23.7744 
        1.88995         17.4807         4.21041         23.5803 
        1.90221         17.3389         4.14496         23.4049 
        1.91445         17.1489         4.08101         23.2271 
        1.92674         16.9763         4.01819         23.0595 
        1.93902         16.7756         3.95669         22.9199 
        1.95124         16.5453          3.8968         22.7942 
         1.9635         16.4199         3.83801         22.5774 
        1.97583         16.2608         3.78005         22.4002 
        1.98812         16.1071         3.72351         22.2718 
        2.00039         15.9785         3.66824         22.1041 
        2.01264          15.806         3.61415         21.9642 
        2.02492         15.6456         3.56107         21.7748 
        2.03717         15.4549         3.50914         21.6341 
        2.04942         15.3108         3.45832         21.4733 
        2.06171         15.1972         3.40834         21.3259 
        2.07397         15.0579         3.35945         21.1768 
        2.08629         14.9212         3.31131         21.0336 
        2.09857          14.788         3.26424         20.8941 
        2.11081         14.6017         3.21827         20.7581 
        2.12309          14.453         3.17308         20.6065 
        2.13538         14.2941         3.12869         20.4606 
        2.14763         14.1656          3.0853         20.3345 
        2.15986         14.1324         3.04284         20.2157 
        2.17214         13.9471           3.001         20.0685 
        2.18443         13.7764         2.95991         19.9327 
        2.19671         13.6856         2.91964         19.7882 
        2.20898         13.5441         2.88016         19.6701 
        2.22126         13.4132         2.84138         19.5445 
        2.23354         13.3628         2.80332         19.4034 
         2.2458         13.1849         2.76602         19.3107 
        2.25807         13.0486         2.72937         19.1438 
        2.27035         12.9601         2.69336         19.0325 
        2.28263         12.8305         2.65801          18.907 
         2.2949         12.7465         2.62331         18.8009 
        2.30718         12.6472         2.58922         18.6933 
        2.31946         12.5109         2.55572         18.5599 
        2.33169         12.3948         2.52296          18.443 
        2.34393         12.2931         2.49073         18.3367 
        2.35622         12.1426         2.45895          18.219 
        2.36847         12.0741         2.42782         18.1003 
        2.38076         11.9444         2.39713         17.9914 
        2.39305          11.825         2.36698         17.8728 
        2.40534         11.7526         2.33735         17.7462 
        2.41762         11.6544         2.30823         17.6639 
        2.42989          11.572         2.27965         17.5459 
        2.44216         11.4622         2.25156         17.4289 
         2.4544         11.3976           2.224         17.3198 
        2.46667          11.294         2.19684         17.2269 
        2.47897         11.1768         2.17008         17.1092 
        2.49124         11.0951         2.14383         17.0092 
        2.50349         11.0006         2.11805         16.9019 
        2.51578         10.9163         2.09262         16.8193 
        2.52805         10.8371         2.06766         16.7145 
        2.54029         10.7696         2.04316         16.6158 
        2.55257         10.7101         2.01899          16.512 
        2.56487         10.5407         1.99516         16.4106 
        2.57716          10.498         1.97175         16.3049 
        2.58942          10.439         1.94876         16.2277 
        2.60167         10.3586         1.92617         16.1338 
        2.61395         10.3135          1.9039         16.0332 
        2.62624          10.209         1.88195         15.9429 
        2.63849         10.1308         1.86042         15.8599 
        2.65073         10.0691         1.83925         15.7561 
        2.66302         9.99906         1.81833         15.6684 
         2.6753         9.95023         1.79775         15.5731 
        2.68756         9.89216         1.77753         15.4961 
        2.69983         9.80353         1.75761          15.396 
        2.71213         9.74919         1.73795         15.2996 
        2.72441         9.68403         1.71862         15.2207 
        2.73665         9.66769         1.69964         15.1286 
         2.7489         9.59047         1.68096         15.0367 
        2.76118         9.49312         1.66249         14.9618 
        2.77349         9.45988         1.64427         14.8766 
        2.78576         9.40968         1.62638         14.7962 
        2.79802         9.35845         1.60877         14.7082 
        2.81031         9.31482         1.59139         14.6266 
        2.82259         9.27838         1.57426         14.5447 
        2.83483         9.20738         1.55745         14.4643 
         2.8471         9.16525         1.54086         14.3856 
         2.8594         9.14694         1.52446         14.3037 
         2.8717         9.09941          1.5083         14.2223 
        2.88396         9.05024         1.49243         14.1451 
        2.89619         8.99828         1.47682         14.0692 
        2.90847         8.96147         1.46138         13.9908 
        2.92072         8.96345         1.44618         13.9067 
        2.93299         8.89896          1.4312         13.8375 
        2.94526         8.89148         1.41641          13.765 
        2.95753         8.85753         1.40183         13.6863 
        2.96982         8.81395         1.38744         13.6101 
        2.98209         8.80479         1.37327         13.5341 
        2.99436         8.78953          1.3593         13.4589 
        3.00666         8.75957         1.34549         13.3891 
        3.01894         8.73961          1.3319         13.3255 
        3.03119         8.72961         1.31852         13.2486 
        3.04345         8.68136         1.30532         13.1691 
        3.05573         8.71135         1.29228         13.1021 
          3.068          8.6846         1.27942         13.0369 
        3.08026         8.69538         1.26676         12.9581 
        3.09254          8.6882         1.25424          12.894 
        3.10483         8.68386         1.24189         12.8339 
         3.1171         8.68948         1.22973         12.7627 
        3.12933         8.70293         1.21776         12.6924 
        3.14159         8.66417         1.20592          12.626 
