# k  (h/Mpc)    P(k)  (Mpc/h)^3    P_linear(k)  (Mpc/h)^3     P_NL(k)  ShotnoiseSubtracted = false
      0.0156606         23192.3         23309.4         23119.6 
      0.0273761         19828.6         20118.3           19886 
      0.0384619           14970         15142.6         14934.5 
      0.0498308         11543.7         11903.5         11693.6 
      0.0625568         9749.57         10112.1         9926.36 
      0.0751274         8690.16         8588.91         8328.84 
      0.0867833         6723.57         6913.76          6832.6 
      0.0984825         5695.02         5470.62         5540.42 
       0.111151         4878.38         4567.38         4656.23 
       0.123864         4367.93         4115.79         4187.43 
       0.135742         3987.32          3700.9          3772.5 
        0.14762         3475.62          3164.3          3353.2 
       0.160083         2962.24         2637.52         2871.84 
       0.172465         2641.61         2301.97         2600.65 
       0.184281         2388.84         2122.09         2420.52 
       0.196406         2262.54          1959.7         2231.94 
       0.209011         2121.27          1743.6         2024.99 
       0.221538         1907.94         1523.71         1894.96 
       0.233611         1835.26         1363.31         1779.24 
       0.245665          1661.4         1258.27         1644.88 
       0.258103         1651.99         1171.33         1554.31 
       0.270422         1472.91          1076.3         1462.18 
       0.282519         1395.35         976.798         1387.87 
       0.294636         1366.13         889.964         1316.44 
       0.306978         1252.66         823.362         1263.25 
       0.319417         1231.37         769.791         1191.64 
        0.33169         1156.17         718.514         1130.16 
       0.343948         1112.24         665.741         1096.36 
       0.356249         1056.64         616.251         1056.95 
       0.368458         1011.84         574.798         1012.34 
        0.38068         999.036         540.136         975.166 
       0.392856           950.2         508.491         942.551 
       0.405069         899.485         477.548         911.425 
       0.417459         865.074         447.589         881.855 
       0.429752         864.468         420.696         851.422 
       0.441978         833.981         397.091          830.62 
       0.454294         798.403         375.657         797.682 
        0.46658         775.909         355.545         781.927 
       0.478753         762.285         336.572         759.112 
       0.490964         733.285          318.75         736.452 
       0.503334         702.863         302.302         720.972 
       0.515665         699.677         287.302         704.554 
       0.527909         670.057         273.455         690.837 
       0.540159         654.562         260.354         674.214 
        0.55248         641.008         247.924         657.141 
       0.564743         635.153         236.415           646.1 
        0.57686         615.529         225.836         629.546 
       0.589077         606.528          215.85         616.117 
       0.601441         590.424         206.355         604.604 
        0.61382         573.385         197.402          593.96 
       0.626067         567.707         189.048         583.479 
       0.638306         547.232         181.181         571.591 
       0.650632         542.077         173.727         558.836 
       0.662899         537.663         166.742         551.887 
       0.675076         521.435         160.197           544.9 
       0.687267         505.994         153.994          532.29 
       0.699615         505.442         148.042         523.903 
       0.711937         493.571         142.416         513.962 
       0.724148         478.069         137.129          507.48 
       0.736433         467.044         132.085         498.745 
       0.748747         461.069         127.287         490.152 
       0.761037         453.037         122.739         484.476 
       0.773197         445.333         118.461         476.254 
       0.785376         440.335         114.381         469.571 
       0.797761         427.094         110.431         463.046 
       0.810096         421.243         106.682         457.053 
       0.822371         411.082         103.126         449.768 
       0.834626         406.505         99.7388         444.778 
       0.846916         401.091         96.4955         437.835 
       0.859215         395.203         93.3953         431.391 
       0.871383         386.724         90.4629          425.84 
        0.88363         381.373         87.6396         421.577 
       0.895928         376.596         84.9267         415.128 
       0.908253         367.389          82.324         408.256 
       0.920535         358.979         79.8398         404.162 
       0.932774         354.224         77.4672         397.929 
        0.94508         348.751         75.1795         394.081 
       0.957324         344.228         72.9959         388.855 
        0.96953         339.878          70.906         384.169 
       0.981769         331.937         68.8931         379.882 
       0.994071         330.639         66.9492         375.334 
         1.0064         324.555         65.0772         369.901 
        1.01868         320.556         63.2827         365.273 
        1.03092         311.169         61.5641         362.114 
         1.0432         308.159         59.9035         357.745 
        1.05553         305.062         58.2979         352.799 
        1.06777         300.385          56.763         348.745 
           1.08         293.592         55.2852         344.932 
        1.09227         293.156         53.8555          340.82 
         1.1046         286.924         52.4712          337.68 
         1.1169         281.164         51.1382         333.246 
        1.12915         276.912         49.8583          329.75 
        1.14142         271.284         48.6197         325.954 
        1.15365         268.109          47.427         322.552 
        1.16585         263.722         46.2776         318.993 
        1.17807         261.082         45.1651         315.403 
        1.19037         255.921          44.082         312.743 
        1.20276         253.148         43.0271         308.687 
        1.21504         247.974         42.0153         305.212 
        1.22728         244.257         41.0403         302.085 
        1.23954         242.677          40.094         298.848 
        1.25184         237.063         39.1759         295.735 
        1.26414         232.453         38.2861         292.955 
        1.27632         230.028         37.4321         290.219 
         1.2886         227.609         36.5982         286.978 
        1.30093         222.817         35.7869         283.286 
        1.31316          218.12         35.0061         280.715 
        1.32541          216.93         34.2485         277.594 
        1.33772         212.815         33.5092         275.154 
        1.35005         210.274         32.7913         272.038 
        1.36225         206.261         32.1018         269.502 
        1.37447         202.884         31.4309         266.289 
        1.38676         200.922         30.7761         264.409 
        1.39907         197.931         30.1389          261.15 
        1.41133         194.079         29.5226         258.395 
        1.42358         191.619         28.9241         255.977 
        1.43591         188.938         28.3381         253.731 
        1.44818         185.287         27.7716         250.999 
        1.46037         183.756         27.2241         248.313 
        1.47263         180.186         26.6882         245.873 
        1.48494         178.782         26.1648         242.975 
        1.49724         175.335         25.6559         241.493 
        1.50952         172.385         25.1615         238.579 
        1.52178          170.08         24.6809          236.35 
        1.53409         167.232          24.211         234.107 
        1.54637         164.492         23.7543         232.178 
        1.55858         162.708          23.312         229.745 
        1.57081         159.819         22.8804         227.437 
        1.58313         157.818          22.457         225.139 
        1.59544         154.849         22.0446         223.144 
        1.60767         153.403         21.6452         221.171 
        1.61994         150.735         21.2543         218.893 
        1.63225         148.254         20.8723          216.69 
        1.64452         145.872         20.5007         214.776 
        1.65676         144.071         20.1394         212.956 
          1.669         142.319         19.7865         210.768 
        1.68133         139.463         19.4399         208.842 
        1.69363         137.081         19.1025         207.147 
        1.70585         134.952         18.7754          205.17 
        1.71809         133.132         18.4552         202.997 
        1.73038         131.243         18.1415         201.273 
        1.74268         130.077          17.835         199.309 
        1.75493         127.342         17.5369         197.714 
        1.76714         126.502         17.2464         195.962 
        1.77942         123.873          16.961         194.189 
        1.79173         122.173         16.6814         192.298 
        1.80402         120.337         16.4086         190.593 
         1.8163         118.276         16.1421         189.091 
         1.8286         116.568         15.8811         187.231 
         1.8409         115.023          15.626         185.498 
        1.85315         112.892         15.3774         183.969 
        1.86537         111.652         15.1348         182.401 
        1.87765         110.246         14.8964         180.836 
        1.88995         108.315         14.6627         179.107 
        1.90221         106.911         14.4348         177.718 
        1.91445         105.243          14.212         176.032 
        1.92674         103.468         13.9933         174.449 
        1.93902         102.287         13.7791         172.878 
        1.95124         100.804         13.5705         171.434 
         1.9635         99.1542         13.3658         169.945 
        1.97583         97.6362          13.164         168.415 
        1.98812         96.2047         12.9671         167.256 
        2.00039         95.1166         12.7746         165.627 
        2.01264         93.9346         12.5862         164.261 
        2.02492         92.4134         12.4014         162.751 
        2.03717         91.0959         12.2205         161.484 
        2.04942         89.8794         12.0435         160.078 
        2.06171         88.3639         11.8695         158.639 
        2.07397         87.2035         11.6992         157.455 
        2.08629         85.8578         11.5316         156.081 
        2.09857         84.8609         11.3676          154.84 
        2.11081          83.496         11.2076         153.413 
        2.12309         82.4252         11.0502         152.225 
        2.13538         81.0441         10.8956          150.91 
        2.14763          79.881         10.7445         149.672 
        2.15986         79.0566         10.5966         148.334 
        2.17214         77.8917         10.4509         147.226 
        2.18443         76.9811         10.3078         146.138 
        2.19671         75.9916         10.1676         144.858 
        2.20898         74.8773         10.0301         143.557 
        2.22126         73.8328         9.89503         142.511 
        2.23354         72.8598         9.76249         141.394 
         2.2458         71.4366         9.63261         140.168 
        2.25807          70.821         9.50498         139.064 
        2.27035         69.7967         9.37955         137.944 
        2.28263         68.9185         9.25645         136.895 
         2.2949         67.6154         9.13562         135.813 
        2.30718         66.6473         9.01691         134.688 
        2.31946         65.9696         8.90025         133.539 
        2.33169         64.9403         8.78617         132.542 
        2.34393         64.3082          8.6739         131.623 
        2.35622          63.295         8.56324         130.481 
        2.36847         62.5338         8.45482         129.567 
        2.38076         61.4347         8.34795         128.458 
        2.39305         60.8803         8.24296         127.552 
        2.40534          59.911         8.13977         126.488 
        2.41762         59.3531         8.03836         125.494 
        2.42989         58.3472         7.93883         124.569 
        2.44216         57.8466           7.841         123.536 
         2.4544         56.9879         7.74504         122.656 
        2.46667         56.0806         7.65047          121.72 
        2.47897         55.6344         7.55724         120.701 
        2.49124         54.8935         7.46584         119.797 
        2.50349         53.9133         7.37608         118.919 
        2.51578         53.5642         7.28752         118.096 
        2.52805         52.6438         7.20057         117.127 
        2.54029          52.141         7.11526         116.246 
        2.55257         51.4963         7.03108          115.43 
        2.56487         51.0751         6.94809         114.569 
        2.57716         50.5054         6.86657         113.712 
        2.58942         49.7071         6.78653         112.881 
        2.60167         49.1447         6.70785          112.07 
        2.61395         48.7615         6.63029         111.213 
        2.62624         48.0028         6.55386         110.335 
        2.63849         47.4546         6.47887         109.579 
        2.65073         46.7963         6.40514         108.757 
        2.66302         46.4108         6.33229         107.984 
         2.6753         45.7357         6.26062         107.215 
        2.68756         45.4442         6.19021         106.407 
        2.69983         44.8918         6.12083         105.641 
        2.71213         44.3795         6.05236         104.889 
        2.72441         43.9546         5.98507         104.118 
        2.73665         43.4547         5.91896         103.404 
         2.7489          43.004         5.85389          102.68 
        2.76118         42.6029          5.7896         101.914 
        2.77349         42.1541         5.72612         101.213 
        2.78576         41.7254         5.66384          100.48 
        2.79802         41.3701         5.60252         99.8271 
        2.81031         40.8816         5.54197         99.1073 
        2.82259         40.4405         5.48233         98.3677 
        2.83483         40.0322          5.4238         97.7245 
         2.8471         39.5771         5.36601          97.018 
         2.8594         39.2288         5.30888         96.3369 
         2.8717         38.9593         5.25261         95.7132 
        2.88396         38.5649         5.19736         95.0487 
        2.89619         38.2758         5.14301         94.3525 
        2.90847         37.9007         5.08923         93.6624 
        2.92072         37.5945         5.03631         93.0899 
        2.93299         37.3907         4.98411         92.4673 
        2.94526         37.0514         4.93261         91.8075 
        2.95753          36.806         4.88185         91.1787 
        2.96982         36.4082         4.83172           90.58 
        2.98209         36.2257         4.78239         89.9618 
        2.99436         36.0235         4.73371         89.3265 
        3.00666         35.8233         4.68563          88.727 
        3.01894         35.6146         4.63831         88.1411 
        3.03119         35.3494         4.59171         87.5791 
        3.04345         35.1078         4.54575          87.005 
        3.05573         35.0925         4.50032         86.4137 
          3.068         34.8076         4.45556         85.8475 
        3.08026         34.6241         4.41146         85.2753 
        3.09254         34.5875         4.36787         84.7207 
        3.10483         34.5007         4.32487         84.1682 
         3.1171         34.3536          4.2825          83.605 
        3.12933          34.122         4.24081         83.0498 
        3.14159         34.1084         4.19959         82.5014 
