# k  (h/Mpc)    Pcb(k)  (Mpc/h)^3    Pcb_linear(k) (Mpc/h)^3    Pcb_NL(k) (Mpc/h)^3   ShotnoiseSubtracted = false
      0.0156606         7513.64         7528.38         7485.71 
      0.0273761         6497.98          6511.9          6480.4 
      0.0384619         4935.23         4906.95         4886.11 
      0.0498308         3848.17         3860.07         3841.55 
      0.0625568         3247.46         3280.81          3262.3 
      0.0751274         2845.18         2787.52         2759.38 
      0.0867833         2234.42         2244.32         2237.99 
      0.0984825         1838.31         1776.13         1789.04 
       0.111151         1549.46         1483.05         1496.42 
       0.123864         1391.88         1336.54         1347.78 
       0.135742          1255.7         1201.89         1213.45 
        0.14762         1073.96         1027.69         1055.87 
       0.160083         892.973         856.638          889.01 
       0.172465         793.283         747.684         787.654 
       0.184281         733.261         689.278         731.306 
       0.196406         670.789         636.547         670.524 
       0.209011         612.521         566.366         603.438 
       0.221538         550.067         494.951         546.741 
       0.233611          504.84         442.853          500.87 
       0.245665         471.554         408.737         460.743 
       0.258103         434.929           380.5         432.249 
       0.270422          402.48         349.635          400.91 
       0.282519          367.56         317.314         371.183 
       0.294636         360.971         289.108         345.861 
       0.306978         319.341         267.474         326.471 
       0.319417         306.221         250.073         306.726 
        0.33169         286.598         233.416         288.101 
       0.343948          273.52         216.274         273.648 
       0.356249          254.45         200.197         260.319 
       0.368458         245.563         186.732         244.419 
        0.38068         233.203         175.471         232.461 
       0.392856         217.691         165.191         222.234 
       0.405069         208.189          155.14         212.708 
       0.417459         198.249         145.407         201.272 
       0.429752         190.788         136.671         193.017 
       0.441978         183.655         129.003         186.377 
       0.454294         171.074          122.04         177.089 
        0.46658         171.288         115.507         171.087 
       0.478753         161.144         109.343         164.696 
       0.490964           156.2         103.554         158.414 
       0.503334         148.487         98.2098         153.058 
       0.515665         144.632         93.3369         149.043 
       0.527909          140.08         88.8386         142.541 
       0.540159         135.371         84.5827         138.326 
        0.55248         130.852         80.5444         133.552 
       0.564743         127.152         76.8052         130.003 
        0.57686         123.136         73.3686         125.706 
       0.589077         117.603         70.1245         122.621 
       0.601441         115.006         67.0398         119.286 
        0.61382         112.965         64.1314           115.6 
       0.626067         108.528         61.4173         112.624 
       0.638306         104.797         58.8616         109.803 
       0.650632          101.07         56.4401          105.94 
       0.662899         100.701          54.171         103.511 
       0.675076         97.0593         52.0444         100.977 
       0.687267         94.9432         50.0293         98.5263 
       0.699615         91.9965         48.0957         96.5093 
       0.711937         89.1829         46.2678         93.7498 
       0.724148         88.4001         44.5505         92.4274 
       0.736433         84.7425         42.9118         89.9165 
       0.748747         83.2121         41.3531           87.92 
       0.761037         81.3207         39.8755         85.8311 
       0.773197         79.5515         38.4855         84.7612 
       0.785376         77.6004         37.1601         82.5857 
       0.797761         76.8582         35.8767         81.2821 
       0.810096          74.195          34.659         79.4257 
       0.822371         72.8019         33.5037         77.8627 
       0.834626         71.1081         32.4032         76.5536 
       0.846916          70.008         31.3495         75.1581 
       0.859215         68.4388         30.3423         73.6131 
       0.871383         67.5265         29.3896          72.373 
        0.88363         65.6709         28.4724         71.3468 
       0.895928         64.3009          27.591         70.0664 
       0.908253         62.7628         26.7455          68.869 
       0.920535         62.4083         25.9384         67.7569 
       0.932774          61.147         25.1676         66.5899 
        0.94508         60.2787         24.4244         65.3831 
       0.957324         58.7494          23.715         64.5218 
        0.96953         58.6653          23.036         63.3519 
       0.981769         56.7318         22.3821         62.5964 
       0.994071         56.0645         21.7505         61.6615 
         1.0064         54.8452         21.1424         60.7035 
        1.01868         53.9943         20.5594         59.8793 
        1.03092         53.1728          20.001         58.9828 
         1.0432         52.2629         19.4615         58.0262 
        1.05553         50.9828         18.9399         57.5654 
        1.06777         50.4807         18.4413         56.6588 
           1.08         49.2962         17.9612         55.8385 
        1.09227         48.7237         17.4967         55.0633 
         1.1046         48.0009         17.0469          54.315 
         1.1169         47.4452         16.6139         53.5367 
        1.12915         46.6328         16.1981         52.9553 
        1.14142         45.7357         15.7957         52.2864 
        1.15365         45.0701         15.4082         51.6807 
        1.16585         44.3873         15.0348         50.9402 
        1.17807         43.6696         14.6733         50.2821 
        1.19037          43.536         14.3215         49.8323 
        1.20276         42.7755         13.9788         49.2116 
        1.21504         42.1776           13.65         48.6626 
        1.22728         41.3779         13.3333         48.0838 
        1.23954         40.9161         13.0258         47.4147 
        1.25184         40.2196         12.7275         46.9833 
        1.26414         39.6612         12.4385          46.375 
        1.27632         39.3398          12.161         45.9006 
         1.2886         38.9225         11.8901         45.4038 
        1.30093         38.2403         11.6265         44.8191 
        1.31316         37.6653         11.3729         44.4516 
        1.32541         37.4072         11.1267          43.947 
        1.33772         36.6873         10.8866         43.4855 
        1.35005         36.2684         10.6533         43.0585 
        1.36225         35.6888         10.4293         42.6408 
        1.37447          34.857         10.2113         42.1604 
        1.38676         34.9714         9.99862           41.79 
        1.39907         34.4058         9.79161          41.406 
        1.41133         33.7058         9.59137         40.9697 
        1.42358          33.369         9.39693         40.5421 
        1.43591         32.9655         9.20657         40.1948 
        1.44818         32.6372         9.02253         39.7313 
        1.46037         32.2201         8.84463         39.3703 
        1.47263         31.9843         8.67055         39.0572 
        1.48494         31.3683          8.5005         38.6441 
        1.49724         31.2877         8.33515         38.2857 
        1.50952         30.7907         8.17455         37.9774 
        1.52178         30.3408         8.01842         37.6108 
        1.53409         30.0902         7.86575         37.2799 
        1.54637         29.7026         7.71738         36.9031 
        1.55858         29.0229         7.57369          36.588 
        1.57081         29.1119         7.43345         36.3042 
        1.58313         28.7485          7.2959          35.958 
        1.59544         28.2111         7.16192         35.6594 
        1.60767         27.8976         7.03216         35.3061 
        1.61994         27.5596         6.90517          35.032 
        1.63225          27.431         6.78106         34.7708 
        1.64452         27.0066         6.66034         34.4785 
        1.65676         26.7309         6.54295         34.1656 
          1.669         26.4728          6.4283         33.9202 
        1.68133         26.1268         6.31568         33.6108 
        1.69363         25.7671         6.20609         33.2834 
        1.70585         25.5612          6.0998         33.1084 
        1.71809         25.1496         5.99579         32.7627 
        1.73038         25.0198         5.89388         32.5578 
        1.74268         24.7128         5.79428         32.2305 
        1.75493         24.3949         5.69744         32.0062 
        1.76714         24.2681         5.60306         31.7724 
        1.77942         23.9977         5.51035         31.5055 
        1.79173         23.5528         5.41949         31.2585 
        1.80402         23.3225         5.33088         31.0943 
         1.8163         23.2275          5.2443         30.7263 
         1.8286         22.8211         5.15949         30.5496 
         1.8409         22.6233         5.07663         30.3206 
        1.85315         22.4038         4.99588         30.1074 
        1.86537         22.1007         4.91704         29.8789 
        1.87765         21.9732         4.83961         29.6459 
        1.88995         21.6744         4.76366         29.3851 
        1.90221         21.4637         4.68961         29.1759 
        1.91445         21.1993         4.61726         28.9639 
        1.92674         21.0119         4.54618         28.7486 
        1.93902         20.7631          4.4766         28.5657 
        1.95124         20.4592         4.40885          28.405 
         1.9635         20.3384         4.34232         28.1491 
        1.97583         20.1287         4.27675          27.951 
        1.98812         19.9595         4.21278         27.7689 
        2.00039         19.7466         4.15025         27.5614 
        2.01264         19.5203         4.08905         27.3829 
        2.02492         19.3627           4.029         27.1529 
        2.03717         19.0726         3.97025         26.9774 
        2.04942         18.9218         3.91275         26.7739 
        2.06171         18.7846         3.85619         26.5988 
        2.07397         18.5968         3.80088         26.3911 
        2.08629         18.4212         3.74642         26.2033 
        2.09857         18.2431         3.69316         26.0404 
        2.11081         18.0084         3.64115         25.8587 
        2.12309         17.8819         3.59003         25.6781 
        2.13538         17.6607          3.5398         25.5071 
        2.14763         17.4881         3.49071         25.3369 
        2.15986         17.3834         3.44267         25.1733 
        2.17214         17.1776         3.39533         25.0076 
        2.18443         17.0081         3.34884         24.8212 
        2.19671         16.8379         3.30328         24.6457 
        2.20898         16.6763         3.25862         24.4838 
        2.22126         16.5476         3.21473         24.3339 
        2.23354         16.4636         3.17167         24.1696 
         2.2458         16.2541         3.12948         24.0354 
        2.25807         16.0519         3.08801         23.8316 
        2.27035         15.9302         3.04726         23.6931 
        2.28263         15.7656         3.00727         23.5391 
         2.2949         15.6817         2.96801         23.3978 
        2.30718         15.5403         2.92945         23.2502 
        2.31946         15.4144         2.89155         23.0862 
        2.33169         15.2511         2.85448         22.9374 
        2.34393          15.113         2.81801         22.8097 
        2.35622         14.9117         2.78206         22.6565 
        2.36847         14.8114         2.74683         22.5011 
        2.38076         14.6525         2.71211         22.3745 
        2.39305         14.5525           2.678         22.2286 
        2.40534         14.4069         2.64448         22.0611 
        2.41762         14.2707         2.61153         21.9585 
        2.42989         14.1569          2.5792         21.7973 
        2.44216         14.0259         2.54741         21.6653 
         2.4544         14.0052         2.51624         21.5169 
        2.46667         13.8226         2.48551         21.3967 
        2.47897         13.6533         2.45523         21.2529 
        2.49124         13.5989         2.42553         21.1229 
        2.50349         13.4418         2.39637         20.9816 
        2.51578         13.3457          2.3676         20.8807 
        2.52805          13.243         2.33935         20.7433 
        2.54029         13.1592         2.31163         20.6153 
        2.55257         13.0679         2.28428         20.4858 
        2.56487         12.8862         2.25732         20.3641 
        2.57716         12.8164         2.23084         20.2224 
        2.58942          12.741         2.20483         20.1233 
        2.60167         12.5888         2.17927              20 
        2.61395         12.5804         2.15408         19.8765 
        2.62624           12.47         2.12924         19.7541 
        2.63849         12.3412         2.10488         19.6534 
        2.65073         12.2485         2.08093         19.5222 
        2.66302         12.1769         2.05726          19.416 
         2.6753         12.1183         2.03397         19.2912 
        2.68756         12.0206          2.0111         19.1859 
        2.69983         11.9231         1.98856         19.0655 
        2.71213          11.828         1.96632         18.9397 
        2.72441         11.7856         1.94445         18.8393 
        2.73665          11.713         1.92298         18.7286 
         2.7489         11.6516         1.90183         18.6119 
        2.76118         11.5288         1.88095         18.5097 
        2.77349         11.4692         1.86032          18.401 
        2.78576         11.3773         1.84009         18.3014 
        2.79802         11.3418         1.82017         18.1874 
        2.81031         11.2703          1.8005         18.0785 
        2.82259         11.2265         1.78112         17.9812 
        2.83483         11.1582          1.7621         17.8802 
         2.8471         11.0943         1.74333          17.771 
         2.8594         11.0604         1.72477          17.663 
         2.8717              11         1.70649         17.5679 
        2.88396         10.9289         1.68854          17.467 
        2.89619         10.8933         1.67088         17.3649 
        2.90847         10.8472         1.65341         17.2746 
        2.92072         10.8128         1.63621         17.1605 
        2.93299         10.7278         1.61926          17.073 
        2.94526         10.7157         1.60252         16.9831 
        2.95753         10.6681         1.58603         16.8806 
        2.96982         10.6236         1.56975         16.7843 
        2.98209         10.6181         1.55372         16.6907 
        2.99436         10.5947         1.53791         16.5914 
        3.00666         10.5629         1.52229         16.4998 
        3.01894         10.5397         1.50691         16.4213 
        3.03119         10.5021         1.49177         16.3241 
        3.04345         10.4383         1.47684         16.2207 
        3.05573         10.4638         1.46208         16.1348 
          3.068         10.4436         1.44754         16.0537 
        3.08026         10.4208         1.43321         15.9515 
        3.09254         10.4241         1.41905         15.8711 
        3.10483         10.4152         1.40508         15.7935 
         3.1171         10.4369         1.39131         15.7009 
        3.12933         10.4117         1.37777         15.6128 
        3.14159         10.3773         1.36438         15.5237 
