# k  (h/Mpc)    Pcb(k)  (Mpc/h)^3    Pcb_linear(k) (Mpc/h)^3    Pcb_NL(k) (Mpc/h)^3   ShotnoiseSubtracted = false
      0.0156606           22454         22581.8           22401 
      0.0273761         19236.5         19522.9         19304.4 
      0.0384619         14541.1         14707.7         14512.9 
      0.0498308         11223.9         11568.2         11371.9 
      0.0625568         9482.91         9831.33         9657.09 
      0.0751274         8450.24         8352.65         8108.26 
      0.0867833         6542.09         6724.74         6648.78 
      0.0984825          5535.3         5321.73         5388.22 
       0.111151         4738.53         4443.52         4527.22 
       0.123864         4243.79         4004.49          4072.1 
       0.135742         3871.82         3601.02          3668.7 
        0.14762         3372.91         3079.04         3258.11 
       0.160083         2870.12         2566.55         2788.07 
       0.172465         2559.65         2240.11         2522.33 
       0.184281         2317.16         2065.11         2347.61 
       0.196406         2190.34         1907.12          2163.6 
       0.209011         2051.42         1696.85         1962.19 
       0.221538         1846.06         1482.88          1834.4 
       0.233611         1772.88         1326.79         1720.97 
       0.245665         1605.78         1224.58         1590.26 
       0.258103         1593.39         1139.98         1502.21 
       0.270422         1420.75         1047.51         1412.35 
       0.282519         1344.05          950.67         1339.03 
       0.294636         1317.84         866.165          1269.4 
       0.306978         1206.21         801.348          1217.4 
       0.319417         1184.06         749.214         1148.16 
        0.33169         1112.34         699.311         1088.24 
       0.343948         1068.87         647.952         1055.32 
       0.356249         1014.27         599.786         1016.89 
       0.368458          972.79         559.444         972.969 
        0.38068         958.853         525.706         936.673 
       0.392856          911.21         494.908         904.758 
       0.405069         863.486         464.795         875.274 
       0.417459         830.463         435.636         845.712 
       0.429752         828.078         409.462         816.401 
       0.441978         798.892         386.489          796.15 
       0.454294         764.247         365.627         764.209 
        0.46658         742.621         346.054         748.893 
       0.478753             729         327.588         726.681 
       0.490964         700.873         310.243         704.798 
       0.503334         671.392         294.233         689.606 
       0.515665         668.652         279.634         674.039 
       0.527909         640.624         266.157         660.416 
       0.540159         625.264         253.407         644.139 
        0.55248         612.558         241.308         627.653 
       0.564743          607.28         230.105          617.09 
        0.57686         587.638         219.809          601.08 
       0.589077         577.829          210.09         588.052 
       0.601441         563.653         200.849          576.86 
        0.61382         547.701         192.135         566.788 
       0.626067         541.964         184.004         556.509 
       0.638306         522.273         176.347         545.221 
       0.650632         517.383         169.092         532.639 
       0.662899         513.111         162.294         526.149 
       0.675076         496.831         155.923         519.212 
       0.687267         482.406         149.886         507.044 
       0.699615          481.12         144.093          499.07 
       0.711937         470.705         138.616         489.666 
       0.724148         455.543         133.471         483.289 
       0.736433         444.883         128.562         474.847 
       0.748747         439.196         123.892          466.57 
       0.761037         431.411         119.465         461.044 
       0.773197         424.607         115.301         453.384 
       0.785376         419.305          111.33         446.945 
       0.797761         406.707         107.485         440.458 
       0.810096         401.988         103.837         434.854 
       0.822371         391.513         100.375          427.85 
       0.834626          387.52         97.0784         422.967 
       0.846916         381.722         93.9216         416.351 
       0.859215          376.95         90.9042         410.264 
       0.871383         368.545           88.05         404.928 
        0.88363         364.092          85.302         400.855 
       0.895928         359.016         82.6615         394.659 
       0.908253         350.109         80.1283         388.178 
       0.920535         342.991         77.7103         384.091 
       0.932774         337.956          75.401         378.244 
        0.94508         332.726         73.1744         374.496 
       0.957324         329.139          71.049         369.522 
        0.96953         324.906         69.0149          365.07 
       0.981769         317.072         67.0557         361.012 
       0.994071         315.817         65.1636         356.647 
         1.0064         309.844         63.3416         351.474 
        1.01868         306.215         61.5949         347.024 
        1.03092         297.051         59.9222         344.008 
         1.0432         294.211         58.3058         339.853 
        1.05553         291.082         56.7431          335.17 
        1.06777         287.036         55.2492         331.381 
           1.08         280.449         53.8108         327.738 
        1.09227         279.743         52.4192         323.808 
         1.1046         274.105         51.0718         320.762 
         1.1169         268.223         49.7744          316.52 
        1.12915         264.456         48.5286         313.301 
        1.14142         259.069         47.3231         309.622 
        1.15365         256.123         46.1622         306.379 
        1.16585         251.665         45.0435         302.961 
        1.17807         249.193         43.9606         299.676 
        1.19037         244.753         42.9064         297.146 
        1.20276         241.724         41.8797         293.268 
        1.21504         236.673         40.8948          289.98 
        1.22728         233.179         39.9458         286.834 
        1.23954         231.777         39.0248         283.962 
        1.25184         226.417         38.1311          280.97 
        1.26414         221.864         37.2651         278.318 
        1.27632          219.98         36.4339         275.763 
         1.2886         217.946         35.6222         272.638 
        1.30093         212.984         34.8325         269.182 
        1.31316         208.445         34.0726         266.613 
        1.32541          207.32         33.3352         263.781 
        1.33772         203.623         32.6156         261.393 
        1.35005         201.184         31.9169          258.44 
        1.36225         197.268         31.2457         256.026 
        1.37447         194.138         30.5927         252.925 
        1.38676         192.253         29.9554         251.146 
        1.39907         189.416         29.3352         248.079 
        1.41133         185.728         28.7353         245.488 
        1.42358         183.464         28.1528         243.181 
        1.43591         181.019         27.5824         241.006 
        1.44818         177.514         27.0311         238.465 
        1.46037         176.014         26.4981         235.905 
        1.47263         172.518         25.9765         233.679 
        1.48494         171.044         25.4671         230.878 
        1.49724         168.006         24.9717         229.432 
        1.50952         164.993         24.4906         226.773 
        1.52178          163.18         24.0228         224.512 
        1.53409         160.218         23.5654         222.468 
        1.54637         157.732         23.1209         220.631 
        1.55858         155.995         22.6904         218.283 
        1.57081         153.216         22.2703         216.171 
        1.58313         151.222         21.8582         213.975 
        1.59544          148.42         21.4567         212.069 
        1.60767         147.016          21.068         210.187 
        1.61994           144.5         20.6875         208.078 
        1.63225         142.178         20.3157         205.968 
        1.64452         139.888         19.9541         204.144 
        1.65676         138.102         19.6024         202.394 
          1.669         136.488         19.2589          200.38 
        1.68133         133.787         18.9215         198.552 
        1.69363         131.463         18.5931         196.901 
        1.70585         129.398         18.2747         195.068 
        1.71809         127.697         17.9631         192.979 
        1.73038         126.073         17.6578         191.372 
        1.74268         124.898         17.3594         189.498 
        1.75493         121.997         17.0693         187.968 
        1.76714         121.382         16.7865         186.326 
        1.77942         118.809         16.5087         184.587 
        1.79173         117.029         16.2365         182.853 
        1.80402         115.469         15.9711         181.226 
         1.8163         113.372         15.7117         179.783 
         1.8286         111.859         15.4576         178.017 
         1.8409         110.513         15.2093         176.367 
        1.85315         108.286         14.9674         174.921 
        1.86537         107.252         14.7312         173.446 
        1.87765         105.884         14.4992         171.961 
        1.88995         103.927         14.2717         170.316 
        1.90221         102.655         14.0498         168.993 
        1.91445         101.095         13.8331         167.367 
        1.92674         99.4641         13.6201         165.891 
        1.93902         98.2613         13.4117         164.396 
        1.95124         96.8787         13.2087         163.014 
         1.9635         95.2705         13.0094         161.596 
        1.97583         93.8049         12.8129         160.168 
        1.98812         92.4438         12.6213         159.033 
        2.00039         91.3995          12.434         157.497 
        2.01264          90.257         12.2506         156.202 
        2.02492         88.9869         12.0707         154.769 
        2.03717         87.6141         11.8947         153.558 
        2.04942          86.488         11.7224         152.243 
        2.06171         84.9535          11.553         150.889 
        2.07397         83.9556         11.3872         149.745 
        2.08629         82.6564         11.2241         148.436 
        2.09857         81.6677         11.0645         147.251 
        2.11081         80.3309         10.9087         145.892 
        2.12309         79.3203         10.7555          144.78 
        2.13538         78.0098         10.6051         143.514 
        2.14763         76.9456          10.458          142.35 
        2.15986         76.0785         10.3141         141.079 
        2.17214          74.984         10.1722         139.996 
        2.18443         74.0523          10.033         138.996 
        2.19671         73.1041         9.89646         137.783 
        2.20898         72.1402         9.76265         136.545 
        2.22126         71.0735         9.63118         135.547 
        2.23354         70.1951         9.50218         134.465 
         2.2458         68.8288         9.37576         133.328 
        2.25807         68.1433         9.25153         132.264 
        2.27035         67.1563         9.12945         131.189 
        2.28263         66.3291         9.00963         130.192 
         2.2949           65.04         8.89202         129.164 
        2.30718         64.1652         8.77648         128.102 
        2.31946         63.5773         8.66293         127.007 
        2.33169         62.5658         8.55188         126.057 
        2.34393         62.0428         8.44261         125.172 
        2.35622         60.9486          8.3349         124.101 
        2.36847         60.3398         8.22937         123.244 
        2.38076         59.2533         8.12535         122.159 
        2.39305          58.687         8.02316         121.316 
        2.40534         57.8005         7.92272         120.304 
        2.41762         57.1823         7.82402         119.346 
        2.42989         56.2719         7.72714         118.479 
        2.44216         55.7642         7.63192          117.49 
         2.4544         54.8722         7.53852         116.643 
        2.46667         54.0968         7.44647         115.753 
        2.47897         53.5885         7.35573         114.795 
        2.49124          52.963         7.26676         113.941 
        2.50349         52.0707          7.1794         113.098 
        2.51578         51.6969          7.0932         112.329 
        2.52805         50.8846         7.00857         111.391 
        2.54029         50.3777         6.92553         110.543 
        2.55257         49.7191          6.8436         109.778 
        2.56487         49.3949         6.76283          108.96 
        2.57716         48.8242         6.68347         108.147 
        2.58942         48.0253         6.60557         107.351 
        2.60167         47.4987         6.52899         106.573 
        2.61395         47.1513          6.4535         105.765 
        2.62624         46.3565         6.37911         104.926 
        2.63849         45.8655         6.30612         104.197 
        2.65073         45.2506         6.23435         103.432 
        2.66302         44.8697         6.16344         102.671 
         2.6753         44.2826         6.09369         101.951 
        2.68756         43.9631         6.02515         101.176 
        2.69983         43.4117         5.95762         100.455 
        2.71213         42.9194         5.89098         99.7398 
        2.72441         42.5287         5.82548         99.0062 
        2.73665         42.0576         5.76114         98.3292 
         2.7489         41.6016          5.6978         97.6398 
        2.76118         41.2123         5.63522         96.9107 
        2.77349         40.7615         5.57343         96.2419 
        2.78576         40.3804         5.51282         95.5358 
        2.79802         40.0297         5.45313         94.9251 
        2.81031         39.4938         5.39419         94.2319 
        2.82259         39.1187         5.33615         93.5321 
        2.83483         38.6962         5.27918         92.9239 
         2.8471         38.3287         5.22293         92.2487 
         2.8594         37.9375         5.16733         91.5952 
         2.8717         37.6754         5.11255          91.005 
        2.88396         37.3598         5.05878         90.3693 
        2.89619         37.0522         5.00587         89.6976 
        2.90847         36.6937         4.95353         89.0446 
        2.92072          36.412         4.90202         88.4971 
        2.93299         36.2658         4.85121         87.9097 
        2.94526         35.8965         4.80108         87.2869 
        2.95753         35.6622         4.75168         86.6785 
        2.96982         35.2893         4.70288         86.1045 
        2.98209         35.1655         4.65487         85.5262 
        2.99436         34.8771         4.60749         84.9146 
        3.00666         34.7409         4.56069         84.3469 
        3.01894          34.516         4.51463         83.7904 
        3.03119         34.2807         4.46928         83.2526 
        3.04345         34.0797         4.42454         82.7047 
        3.05573         33.9828         4.38032         82.1415 
          3.068         33.7707         4.33676         81.6005 
        3.08026         33.5808         4.29383         81.0552 
        3.09254          33.511         4.25141         80.5273 
        3.10483         33.5094         4.20955         80.0004 
         3.1171         33.3294         4.16831         79.4647 
        3.12933         33.0985         4.12773          78.937 
        3.14159         33.1051         4.08761          78.411 
