# k  (h/Mpc)    Pcb(k)  (Mpc/h)^3    Pcb_linear(k) (Mpc/h)^3    Pcb_NL(k) (Mpc/h)^3   ShotnoiseSubtracted = false
      0.0156606         11647.8         11683.2         11609.8 
      0.0273761         10042.8         10103.7         10037.4 
      0.0384619         7619.42         7612.83         7561.65 
      0.0498308         5920.92         5988.34         5939.56 
      0.0625568         4998.21         5089.54         5043.79 
      0.0751274         4407.91         4324.21         4257.54 
      0.0867833         3442.79         3481.51         3463.78 
      0.0984825         2859.16         2755.19          2780.1 
       0.111151         2421.48         2300.55         2327.62 
       0.123864         2173.83         2073.27         2095.89 
       0.135742         1967.25         1864.39         1887.59 
        0.14762         1693.23         1594.15         1653.44 
       0.160083         1414.31         1328.82         1398.49 
       0.172465         1259.91         1159.81         1247.02 
       0.184281         1158.44         1069.21         1159.46 
       0.196406         1067.49         987.411         1063.12 
       0.209011         983.217         878.545         959.295 
       0.221538         886.302         767.766         879.665 
       0.233611         826.038         686.951         812.695 
       0.245665         762.924          634.03         747.751 
       0.258103         722.498         590.228         703.174 
       0.270422         657.388         542.351         655.177 
       0.282519         606.382         492.214         610.757 
       0.294636         600.568         448.462         572.892 
       0.306978         535.667         414.903         544.117 
       0.319417         516.209          387.91         511.748 
        0.33169         485.695         362.073         481.652 
       0.343948         462.875         335.481         461.963 
       0.356249         433.567         310.543           441.5 
       0.368458         420.482         289.656         416.738 
        0.38068         402.807         272.188         397.893 
       0.392856         377.887         256.242          381.47 
       0.405069         362.815         240.651           368.3 
       0.417459         346.875         225.554         349.397 
       0.429752         335.414         212.002          336.31 
       0.441978         324.423         200.108         325.917 
       0.454294         304.421         189.306         310.912 
        0.46658          302.24         179.172          302.21 
       0.478753         289.361         169.611          291.53 
       0.490964         279.659         160.631         281.248 
       0.503334          263.92         152.342         273.077 
       0.515665         261.112         144.783         266.749 
       0.527909         252.991         137.805         257.575 
       0.540159         245.832         131.203         250.175 
        0.55248          240.84         124.939         242.635 
       0.564743         234.776         119.139         237.337 
        0.57686         226.391         113.808         229.904 
       0.589077         217.384         108.776         224.904 
       0.601441         214.118         103.991         219.423 
        0.61382         211.783         99.4795         214.047 
       0.626067         206.223         95.2696         208.948 
       0.638306         196.856         91.3051         204.705 
       0.650632         191.686          87.549         198.175 
       0.662899         191.468         84.0291         194.772 
       0.675076         184.493         80.7304         190.414 
       0.687267         179.757         77.6047         186.237 
       0.699615         176.199         74.6053         182.519 
       0.711937         172.022         71.7699         178.796 
       0.724148         168.836          69.106         176.172 
       0.736433         164.734          66.564         172.102 
       0.748747         161.116         64.1462         168.589 
       0.761037         158.678         61.8543          165.15 
       0.773197         155.416         59.6981         163.263 
       0.785376         153.556         57.6422          159.57 
       0.797761         150.361         55.6514         157.532 
       0.810096         146.818         53.7624         154.485 
       0.822371         142.175         51.9703         151.884 
       0.834626         140.448         50.2633          149.29 
       0.846916          138.88         48.6288         147.041 
       0.859215         137.107         47.0665         144.604 
       0.871383         134.334         45.5887         142.177 
        0.88363         131.834         44.1659         140.505 
       0.895928         129.246         42.7988           138.5 
       0.908253         125.795         41.4872         135.947 
       0.920535         125.214         40.2353          134.22 
       0.932774         121.567         39.0396         131.953 
        0.94508         120.612         37.8867         130.278 
       0.957324         119.199         36.7863         128.428 
        0.96953         118.578         35.7331         126.336 
       0.981769          114.79         34.7187         125.178 
       0.994071         114.029         33.7391         123.386 
         1.0064         111.285         32.7957         121.571 
        1.01868         110.259         31.8914         120.181 
        1.03092         108.292         31.0253         118.691 
         1.0432         106.441         30.1884         117.119 
        1.05553          103.95         29.3793         115.962 
        1.06777         103.784         28.6058         114.617 
           1.08         101.741         27.8611         113.087 
        1.09227         100.318         27.1406         111.744 
         1.1046         98.5669         26.4429         110.368 
         1.1169         97.4219         25.7712         108.858 
        1.12915         96.0368         25.1262         107.724 
        1.14142         94.4426          24.502          106.38 
        1.15365         92.6304         23.9009          105.19 
        1.16585         91.5424         23.3217         103.927 
        1.17807         90.1056          22.761         103.011 
        1.19037         89.9437         22.2152         101.932 
        1.20276         87.9671         21.6836         100.719 
        1.21504         87.3512         21.1737         99.5268 
        1.22728         85.4349         20.6823         98.5231 
        1.23954         84.7885         20.2055         97.4019 
        1.25184         83.1096         19.7428         96.4814 
        1.26414         82.0297         19.2944         95.4916 
        1.27632         81.2343          18.864         94.8227 
         1.2886         79.9096         18.4438         93.4659 
        1.30093          78.785         18.0349         92.4172 
        1.31316         77.9777         17.6414         91.7231 
        1.32541         77.2252         17.2596          90.821 
        1.33772         76.0146         16.8871         89.8807 
        1.35005         75.3228         16.5253         88.9899 
        1.36225         74.1551         16.1778          88.111 
        1.37447         72.5372         15.8397         87.1724 
        1.38676         72.5861         15.5097         86.2306 
        1.39907         71.1737         15.1886         85.6105 
        1.41133         69.9397          14.878         84.9433 
        1.42358         69.1693         14.5764         83.8913 
        1.43591          68.677         14.2811         83.1495 
        1.44818         67.6909         13.9956         82.3082 
        1.46037         66.8568         13.7196         81.6767 
        1.47263         65.8491         13.4496         81.0141 
        1.48494         65.1511         13.1858         80.1902 
        1.49724          64.114         12.9293         79.3767 
        1.50952         63.6505         12.6802         78.6245 
        1.52178         62.8153          12.438         78.0218 
        1.53409         62.2684         12.2012         77.3484 
        1.54637         60.7837         11.9711          76.592 
        1.55858          60.188         11.7482         75.8591 
        1.57081         59.7227         11.5306         75.3133 
        1.58313         58.7535         11.3173         74.6905 
        1.59544          58.002         11.1094         73.9476 
        1.60767         57.4294         10.9082         73.3366 
        1.61994         56.5534         10.7112         72.8035 
        1.63225         55.8586         10.5187         72.0068 
        1.64452         55.2586         10.3314         71.5014 
        1.65676         54.4367         10.1493         70.8191 
          1.669         54.0667         9.97148         70.2881 
        1.68133         53.5004         9.79678         69.6403 
        1.69363         52.5704         9.62678         69.1504 
        1.70585         52.2714         9.46191         68.5586 
        1.71809          51.172         9.30057         68.0174 
        1.73038         50.8056         9.14249         67.4314 
        1.74268         50.0888         8.98799         66.8615 
        1.75493         49.5683         8.83777         66.3021 
        1.76714         48.9566         8.69138         65.7431 
        1.77942         48.6651         8.54756           65.24 
        1.79173         47.8181         8.40663         64.6366 
        1.80402         47.3853         8.26917         64.2149 
         1.8163         46.7639         8.13486         63.6041 
         1.8286          46.111         8.00332         63.2313 
         1.8409         45.5517         7.87479          62.603 
        1.85315         45.0638         7.74952          62.246 
        1.86537         44.5346         7.62722         61.7186 
        1.87765         44.1168         7.50712         61.1456 
        1.88995          43.507         7.38931         60.6523 
        1.90221         43.1515         7.27445         60.1795 
        1.91445          42.468         7.16221         59.7835 
        1.92674         42.0528         7.05196         59.2636 
        1.93902         41.5961         6.94402         58.7875 
        1.95124         41.1799         6.83893         58.4154 
         1.9635         40.5153         6.73573         57.9037 
        1.97583         40.1595         6.63402         57.5333 
        1.98812         39.4946          6.5348         57.0329 
        2.00039         39.2643          6.4378         56.5844 
        2.01264         38.6405         6.34287         56.2078 
        2.02492         38.3178         6.24971         55.7836 
        2.03717         37.7625         6.15858         55.3134 
        2.04942         37.3215         6.06939         54.9155 
        2.06171         36.9821         5.98166         54.4522 
        2.07397         36.4723         5.89586         54.0999 
        2.08629         36.0847         5.81138         53.6641 
        2.09857         35.7608         5.72877         53.3089 
        2.11081         35.2496         5.64809         52.8714 
        2.12309         34.9382         5.56878         52.4699 
        2.13538         34.4412         5.49088         52.1335 
        2.14763         34.1341         5.41474           51.73 
        2.15986         33.9281         5.34021          51.322 
        2.17214         33.3174         5.26678         51.0224 
        2.18443         33.0568         5.19467         50.5644 
        2.19671         32.5563         5.12399         50.2027 
        2.20898         32.1319         5.05471         49.8243 
        2.22126         31.9874         4.98664         49.4544 
        2.23354         31.5713         4.91985          49.157 
         2.2458         31.2374         4.85439         48.7738 
        2.25807         30.7225         4.79007         48.3999 
        2.27035         30.4267         4.72686         48.0729 
        2.28263         30.0827         4.66483         47.7388 
         2.2949           29.83         4.60393         47.4007 
        2.30718         29.5127         4.54411         47.0433 
        2.31946          29.202         4.48532         46.7141 
        2.33169         28.9041         4.42782         46.3691 
        2.34393         28.5126         4.37125         46.0137 
        2.35622         28.1909         4.31548         45.7465 
        2.36847         27.8738         4.26084         45.3729 
        2.38076         27.6346         4.20698         45.1029 
        2.39305         27.3058         4.15407         44.7899 
        2.40534         27.0541         4.10207         44.4107 
        2.41762         26.6791         4.05096         44.1307 
        2.42989         26.5051         4.00081         43.8223 
        2.44216         26.1793          3.9515         43.5251 
         2.4544         25.9188         3.90314         43.2346 
        2.46667          25.571         3.85548         42.9165 
        2.47897         25.3657          3.8085         42.6356 
        2.49124         25.1452         3.76244           42.33 
        2.50349         24.8234          3.7172         42.0671 
        2.51578          24.486         3.67257         41.7811 
        2.52805         24.3263         3.62876          41.474 
        2.54029         24.1247         3.58576         41.1939 
        2.55257          23.875         3.54334         40.9114 
        2.56487         23.6535         3.50152         40.6351 
        2.57716         23.3907         3.46043         40.3457 
        2.58942         23.1507          3.4201         40.1047 
        2.60167         22.9267         3.38045         39.8091 
        2.61395         22.7127         3.34136         39.5408 
        2.62624         22.5257         3.30285         39.2903 
        2.63849         22.3494         3.26506         39.0225 
        2.65073         22.0706          3.2279         38.7431 
        2.66302         21.7972         3.19118         38.5076 
         2.6753         21.6881         3.15507         38.2542 
        2.68756         21.5259         3.11958         38.0191 
        2.69983         21.3286         3.08462         37.7377 
        2.71213         21.1316         3.05011          37.496 
        2.72441         20.9678          3.0162         37.2303 
        2.73665         20.7519         2.98289         36.9857 
         2.7489         20.5416         2.95009         36.7486 
        2.76118         20.4186         2.91769         36.4829 
        2.77349         20.3097          2.8857         36.2681 
        2.78576         20.0727         2.85432         36.0402 
        2.79802         19.8797         2.82341         35.7972 
        2.81031         19.7761          2.7929         35.5822 
        2.82259         19.6766         2.76284         35.3451 
        2.83483         19.4232         2.73335         35.0997 
         2.8471         19.3721         2.70422         34.8646 
         2.8594          19.208         2.67543         34.6508 
         2.8717         19.0318         2.64708         34.4187 
        2.88396         18.8644         2.61923         34.1881 
        2.89619         18.8333         2.59184         33.9791 
        2.90847         18.6901         2.56474          33.759 
        2.92072         18.5385         2.53807         33.5557 
        2.93299         18.4801         2.51176         33.3482 
        2.94526         18.3903         2.48581         33.1302 
        2.95753         18.2975         2.46023         32.9166 
        2.96982         18.2289         2.43497         32.7134 
        2.98209         18.0798         2.41011         32.5108 
        2.99436         18.0498         2.38558          32.305 
        3.00666          17.926         2.36134         32.0949 
        3.01894         17.8691          2.3375         31.8838 
        3.03119           17.72         2.31401         31.6836 
        3.04345         17.7607         2.29085          31.494 
        3.05573          17.676         2.26795         31.2977 
          3.068         17.5975          2.2454         31.0897 
        3.08026         17.5869         2.22317         30.8993 
        3.09254         17.5106         2.20121         30.7145 
        3.10483         17.4763         2.17953         30.5274 
         3.1171         17.4894         2.15818         30.3408 
        3.12933         17.4286         2.13717         30.1523 
        3.14159         17.3598          2.1164         29.9599 
