# k  (h/Mpc)    Pcb(k)  (Mpc/h)^3    Pcb_linear(k) (Mpc/h)^3    Pcb_NL(k) (Mpc/h)^3   ShotnoiseSubtracted = false
      0.0156606         5759.04         5767.66         5736.54 
      0.0273761         4987.95         4989.45         4969.21 
      0.0384619         3789.57         3759.91         3748.17 
      0.0498308         2959.81         2957.83          2948.1 
      0.0625568         2497.47         2514.01         2503.58 
      0.0751274         2180.11         2136.04         2119.57 
      0.0867833         1717.25          1719.8         1716.55 
      0.0984825         1406.13         1361.03         1369.52 
       0.111151         1182.58         1136.46         1145.06 
       0.123864         1062.43         1024.19         1031.35 
       0.135742         957.148          921.01         928.356 
        0.14762         816.379         787.515         805.017 
       0.160083         678.019         656.442         676.367 
       0.172465         601.046         572.951         597.346 
       0.184281         556.505         528.195         554.009 
       0.196406         508.055         487.788           508.3 
       0.209011         461.932         434.008         456.682 
       0.221538         413.572         379.283         410.983 
       0.233611         377.002          339.36         374.785 
       0.245665         353.479         313.217         344.869 
       0.258103         322.531         291.578         323.101 
       0.270422         300.581         267.927          298.98 
       0.282519         273.637         243.159         275.879 
       0.294636         266.624         221.545         256.057 
       0.306978         235.368         204.966          240.81 
       0.319417          225.36         191.632         226.115 
        0.33169         210.309         178.868         212.169 
       0.343948         200.688         165.732         200.379 
       0.356249         185.885         153.412         190.108 
       0.368458         178.794         143.093         177.974 
        0.38068         169.138         134.464         168.936 
       0.392856         157.718         126.587         161.193 
       0.405069         150.235         118.884         153.446 
       0.417459         142.596         111.426          145.21 
       0.429752         137.047         104.732         138.803 
       0.441978         131.398         98.8556         133.717 
       0.454294         122.257         93.5197         126.814 
        0.46658         122.368         88.5132         122.038 
       0.478753         114.367         83.7901         117.299 
       0.490964         110.885         79.3536         112.692 
       0.503334         105.924         75.2586         108.428 
       0.515665         102.287         71.5245         105.381 
       0.527909         98.6395         68.0774         100.292 
       0.540159          95.194         64.8162         97.1744 
        0.55248         90.8108         61.7216         93.5908 
       0.564743          88.698         58.8562         90.8493 
        0.57686         85.9478         56.2227         87.7767 
       0.589077         81.7495         53.7368         85.3867 
       0.601441         79.6978         51.3729         82.8347 
        0.61382         77.7024         49.1442         80.0271 
       0.626067         74.4795         47.0644         77.9106 
       0.638306         72.2205         45.1059         75.6302 
       0.650632         69.7065         43.2503         72.9864 
       0.662899         68.7052         41.5115         71.0513 
       0.675076         66.0289         39.8819         69.1954 
       0.687267         64.9242         38.3377          67.345 
       0.699615         62.6674          36.856         65.9229 
       0.711937         60.3937         35.4553         63.7742 
       0.724148         60.0288         34.1393         62.7695 
       0.736433         56.9935         32.8835         60.9581 
       0.748747         56.2093         31.6891         59.4856 
       0.761037          54.694         30.5568         58.0826 
       0.773197         53.4836         29.4916         57.1222 
       0.785376         51.7791          28.476         55.6353 
       0.797761         51.2616         27.4925         54.6056 
       0.810096         49.7674         26.5593         53.2948 
       0.822371         48.7263          25.674         52.0837 
       0.834626         47.4543         24.8307         51.2193 
       0.846916         46.4272         24.0233          50.132 
       0.859215         45.1493         23.2515         49.0478 
       0.871383         44.5415         22.5214         48.1897 
        0.88363         43.3861         21.8186         47.4045 
       0.895928          42.384         21.1432         46.3749 
       0.908253         41.5055         20.4952         45.6348 
       0.920535         40.9844         19.8768         44.7557 
       0.932774         40.2372         19.2861         43.9675 
        0.94508         39.5121         18.7166         43.0775 
       0.957324         38.5775         18.1729         42.4273 
        0.96953         38.0711         17.6526         41.6198 
       0.981769         37.0907         17.1515          41.052 
       0.994071         36.4514         16.6676         40.3673 
         1.0064          35.662         16.2015         39.6986 
        1.01868         34.9612         15.7548         39.1153 
        1.03092         34.6329         15.3269         38.4568 
         1.0432         33.8776         14.9135         37.7514 
        1.05553         33.1695         14.5138          37.442 
        1.06777         32.4725         14.1316         36.7208 
           1.08         31.7389         13.7637         36.1558 
        1.09227         31.3923         13.4078         35.7202 
         1.1046         30.9359         13.0632         35.1211 
         1.1169         30.4915         12.7313         34.6295 
        1.12915         30.0371         12.4127         34.1698 
        1.14142         29.2878         12.1043         33.6839 
        1.15365         28.9726         11.8074          33.254 
        1.16585         28.5627         11.5212         32.7968 
        1.17807         28.0099         11.2443         32.2616 
        1.19037         27.8193         10.9746          32.005 
        1.20276         27.4058          10.712         31.5339 
        1.21504         26.8447         10.4601         31.2006 
        1.22728         26.3851         10.2174         30.7613 
        1.23954         26.0753         9.98177         30.3115 
        1.25184         25.5793         9.75319         29.9913 
        1.26414         25.2799         9.53169         29.5839 
        1.27632         24.9869         9.31907         29.2313 
         1.2886         24.7211         9.11147         28.9136 
        1.30093         24.1483         8.90947         28.5865 
        1.31316         23.8682         8.71509         28.2428 
        1.32541         23.6239         8.52648         27.9502 
        1.33772         23.2018         8.34243         27.6319 
        1.35005         22.8932         8.16371         27.3473 
        1.36225          22.591         7.99205         27.0481 
        1.37447         22.1139         7.82501         26.7075 
        1.38676         21.9761           7.662         26.4685 
        1.39907         21.6365         7.50336         26.1872 
        1.41133         21.2795         7.34992         25.8752 
        1.42358         21.0607         7.20092         25.6011 
        1.43591         20.7292         7.05504         25.3759 
        1.44818         20.5081         6.91401         25.1097 
        1.46037         20.3526         6.77769          24.811 
        1.47263         20.0389         6.64429         24.6211 
        1.48494         19.8337         6.51398         24.3334 
        1.49724         19.6672         6.38727         24.1186 
        1.50952         19.2878          6.2642         23.9171 
        1.52178         19.0744         6.14456         23.6398 
        1.53409         18.7844         6.02757         23.4253 
        1.54637         18.6916         5.91387         23.1654 
        1.55858         18.3149         5.80376         22.9752 
        1.57081         18.1819         5.69629         22.7755 
        1.58313         18.0025         5.59089          22.548 
        1.59544          17.684         5.48821         22.3671 
        1.60767         17.5217         5.38878         22.1286 
        1.61994          17.232         5.29147         21.9575 
        1.63225         17.1734         5.19636         21.7989 
        1.64452          16.907         5.10386         21.6088 
        1.65676         16.7284          5.0139         21.3871 
          1.669         16.5832         4.92604         21.2117 
        1.68133         16.2735         4.83974         21.0215 
        1.69363         16.1162         4.75576         20.7835 
        1.70585         15.9288         4.67431         20.6857 
        1.71809          15.749         4.59461         20.4917 
        1.73038         15.5845         4.51651         20.3421 
        1.74268         15.4633         4.44019         20.1352 
        1.75493         15.1907         4.36598         19.9846 
        1.76714          15.187         4.29366         19.8225 
        1.77942         15.0048         4.22261         19.6405 
        1.79173          14.692         4.15299         19.5058 
        1.80402         14.5798         4.08508          19.374 
         1.8163         14.4622         4.01873         19.1915 
         1.8286         14.2625         3.95375         19.0589 
         1.8409          14.113         3.89025         18.9096 
        1.85315         13.9994         3.82837         18.7554 
        1.86537         13.8316         3.76795         18.6191 
        1.87765         13.7267         3.70862         18.4718 
        1.88995         13.5096         3.65042         18.3308 
        1.90221          13.425         3.59367         18.1793 
        1.91445         13.2755         3.53823          18.051 
        1.92674         13.1353         3.48376         17.9136 
        1.93902         12.9903         3.43044         17.8082 
        1.95124         12.8188         3.37852         17.6977 
         1.9635         12.7038         3.32754         17.5317 
        1.97583         12.5851          3.2773         17.3828 
        1.98812         12.4788         3.22828          17.279 
        2.00039         12.4013         3.18036         17.1563 
        2.01264         12.2663         3.13346         17.0475 
        2.02492         12.1405         3.08744         16.9004 
        2.03717          11.988         3.04242         16.7879 
        2.04942         11.8635         2.99836         16.6639 
        2.06171         11.8072         2.95502         16.5494 
        2.07397         11.6751         2.91263         16.4432 
        2.08629         11.5761          2.8709         16.3381 
        2.09857         11.4796         2.83009         16.2177 
        2.11081         11.3567         2.79024         16.1212 
        2.12309         11.2109         2.75106         15.9909 
        2.13538         11.0955         2.71257         15.8802 
        2.14763         11.0158         2.67495         15.7827 
        2.15986         10.9808         2.63814         15.6945 
        2.17214         10.8514         2.60186         15.5663 
        2.18443         10.7065         2.56624         15.4737 
        2.19671         10.6714         2.53132         15.3641 
        2.20898         10.5369          2.4971         15.2743 
        2.22126         10.4157         2.46347         15.1707 
        2.23354         10.3778         2.43047         15.0595 
         2.2458         10.2469         2.39814          14.989 
        2.25807         10.1633         2.36636          14.864 
        2.27035         10.0887         2.33513         14.7768 
        2.28263         10.0049         2.30449         14.6773 
         2.2949         9.89661         2.27441         14.5944 
        2.30718         9.82818         2.24485         14.5164 
        2.31946         9.73056         2.21581         14.4159 
        2.33169         9.64906          2.1874         14.3282 
        2.34393         9.57076         2.15946         14.2355 
        2.35622          9.4953         2.13191         14.1509 
        2.36847         9.41778         2.10491         14.0602 
        2.38076         9.34306         2.07831         13.9739 
        2.39305         9.22111         2.05217          13.879 
        2.40534         9.17869         2.02648         13.7864 
        2.41762         9.11133         2.00123          13.725 
        2.42989         9.04848         1.97645         13.6365 
        2.44216           8.966          1.9521         13.5429 
         2.4544         8.88993         1.92821         13.4659 
        2.46667         8.85321         1.90466         13.3908 
        2.47897          8.7797         1.88145         13.2972 
        2.49124         8.67428          1.8587         13.2218 
        2.50349         8.62728         1.83635         13.1476 
        2.51578         8.55859          1.8143         13.0784 
        2.52805         8.50574         1.79266         13.0017 
        2.54029         8.42747         1.77142         12.9277 
        2.55257         8.40072         1.75046         12.8466 
        2.56487         8.27983          1.7298          12.764 
        2.57716         8.24478          1.7095         12.6943 
        2.58942         8.21379         1.68958         12.6299 
        2.60167         8.15818         1.66999         12.5568 
        2.61395         8.08744         1.65068         12.4827 
        2.62624         8.02792         1.63165         12.4116 
        2.63849         7.99132         1.61298         12.3475 
        2.65073         7.93804         1.59463         12.2684 
        2.66302         7.87403         1.57649         12.1973 
         2.6753         7.84202         1.55865         12.1273 
        2.68756         7.80138         1.54112         12.0718 
        2.69983         7.73438         1.52384         11.9908 
        2.71213          7.6973          1.5068         11.9214 
        2.72441         7.63615         1.49004         11.8594 
        2.73665         7.63898         1.47359         11.7866 
         2.7489         7.58262         1.45739         11.7204 
        2.76118         7.50953         1.44138         11.6665 
        2.77349         7.48555         1.42558         11.5996 
        2.78576         7.46401         1.41007         11.5368 
        2.79802         7.41191          1.3948         11.4707 
        2.81031         7.38926         1.37973         11.4117 
        2.82259         7.33451         1.36488         11.3484 
        2.83483         7.29906         1.35031         11.2851 
         2.8471         7.28524         1.33592         11.2295 
         2.8594         7.27328          1.3217         11.1697 
         2.8717         7.22396         1.30769         11.1018 
        2.88396         7.18712         1.29394         11.0448 
        2.89619          7.1378          1.2804         10.9922 
        2.90847         7.13208         1.26702          10.927 
        2.92072          7.1384         1.25384         10.8658 
        2.93299         7.09289         1.24085          10.816 
        2.94526         7.07854         1.22802         10.7574 
        2.95753         7.05181         1.21539         10.6977 
        2.96982         7.02396         1.20291         10.6421 
        2.98209         7.01544         1.19063         10.5807 
        2.99436         7.01566         1.17851         10.5264 
        3.00666         7.00539         1.16654         10.4758 
        3.01894         6.96936         1.15476         10.4219 
        3.03119         6.97053         1.14315         10.3649 
        3.04345         6.96053         1.13171          10.309 
        3.05573         6.96242          1.1204         10.2565 
          3.068         6.95252         1.10926         10.2058 
        3.08026          6.9756         1.09828         10.1517 
        3.09254         6.96496         1.08743         10.0989 
        3.10483         6.93977         1.07672         10.0516 
         3.1171         6.95557         1.06617         10.0014 
        3.12933         6.97359         1.05579         9.94643 
        3.14159         6.94456         1.04553         9.89808 
