# k  (h/Mpc)    Pcb(k)  (Mpc/h)^3    Pcb_linear(k) (Mpc/h)^3    Pcb_NL(k) (Mpc/h)^3   ShotnoiseSubtracted = false
      0.0156606         239.804           240.6         239.496 
      0.0273761         209.348         208.349         207.938 
      0.0384619         158.946         157.068         157.073 
      0.0498308         125.273         123.585         123.679 
      0.0625568         105.776         105.054         105.014 
      0.0751274         90.2362         89.2651         89.1328 
      0.0867833         72.4683         71.8736         71.8625 
      0.0984825         57.8671         56.8816         56.9759 
       0.111151         48.3287         47.4969         47.5797 
       0.123864         43.3801         42.8054         42.8335 
       0.135742         38.9161         38.4935         38.5066 
        0.14762         33.1814         32.9144         32.9959 
       0.160083          27.667         27.4364         27.5477 
       0.172465         24.1815          23.947         24.0753 
       0.184281         22.3257         22.0764         22.2029 
       0.196406         20.4861         20.3876         20.4746 
       0.209011         18.2896         18.1399         18.2459 
       0.221538         16.0675         15.8526         16.0113 
       0.233611         14.3729          14.184         14.3605 
       0.245665         13.3478         13.0914         13.2447 
       0.258103         12.2284          12.187         12.3368 
       0.270422         11.3371         11.1984         11.3414 
       0.282519         10.2938         10.1632         10.3215 
       0.294636         9.48012         9.25985          9.4276 
       0.306978         8.61725         8.56693         8.73908 
       0.319417         8.12383         8.00959         8.17605 
        0.33169         7.56713         7.47611         7.63587 
       0.343948         7.05719         6.92706         7.08578 
       0.356249          6.4842         6.41214         6.59566 
       0.368458         6.08507         5.98086         6.14234 
        0.38068         5.68701         5.62018         5.78085 
       0.392856          5.3601         5.29094         5.45309 
       0.405069         5.05839         4.96901         5.12173 
       0.417459         4.67515         4.65729         4.81878 
       0.429752         4.42639         4.37746         4.53608 
       0.441978         4.19675         4.13187         4.30026 
       0.454294         3.94715         3.90884         4.06767 
        0.46658         3.77211         3.69959         3.85448 
       0.478753         3.55795         3.50218         3.65589 
       0.490964         3.39283         3.31675         3.48025 
       0.503334         3.22882         3.14559         3.29806 
       0.515665         3.04238         2.98951         3.15033 
       0.527909         2.91761         2.84544         2.99352 
       0.540159         2.76139         2.70912         2.85457 
        0.55248         2.61772         2.57978         2.71865 
       0.564743         2.53047         2.46002         2.60966 
        0.57686         2.41374         2.34995         2.49337 
       0.589077         2.28284         2.24604         2.39469 
       0.601441         2.19638         2.14724         2.29231 
        0.61382         2.10218         2.05408         2.19365 
       0.626067         2.00547         1.96716         2.10523 
       0.638306         1.93078          1.8853         2.02047 
       0.650632         1.86446         1.80774         1.94502 
       0.662899         1.79015         1.73506         1.86736 
       0.675076         1.70166         1.66695         1.79894 
       0.687267         1.63357         1.60241         1.72765 
       0.699615          1.5903         1.54047         1.66441 
       0.711937         1.52331         1.48193         1.60897 
       0.724148         1.47688         1.42692         1.55098 
       0.736433         1.41298         1.37444         1.49335 
       0.748747         1.36366         1.32451         1.44788 
       0.761037         1.31129         1.27719         1.39645 
       0.773197         1.26454         1.23267         1.35351 
       0.785376         1.22012         1.19022         1.30764 
       0.797761         1.17943         1.14911         1.26226 
       0.810096         1.15153          1.1101          1.2271 
       0.822371         1.11402          1.0731         1.18473 
       0.834626         1.07916         1.03785         1.14719 
       0.846916         1.04372          1.0041          1.1165 
       0.859215         1.00195        0.971846         1.08391 
       0.871383         0.97232        0.941332         1.05023 
        0.88363        0.943245        0.911954         1.01998 
       0.895928        0.918263        0.883724        0.989318 
       0.908253         0.89172        0.856642        0.961615 
       0.920535        0.865221        0.830792        0.932928 
       0.932774        0.837691        0.806103        0.905201 
        0.94508        0.815588        0.782299        0.881286 
       0.957324        0.794179        0.759577        0.859824 
        0.96953         0.76706         0.73783        0.836113 
       0.981769        0.745263        0.716885        0.811526 
       0.994071        0.726027        0.696657        0.793643 
         1.0064        0.705195        0.677178        0.771625 
        1.01868        0.687202        0.658504        0.752086 
        1.03092        0.672111        0.640621        0.731387 
         1.0432        0.654996        0.623341        0.713736 
        1.05553        0.634451        0.606634        0.697293 
        1.06777        0.617432        0.590663        0.680413 
           1.08        0.605774        0.575285         0.66315 
        1.09227        0.586486        0.560408        0.646737 
         1.1046        0.572498        0.546003         0.63248 
         1.1169        0.558355        0.532133        0.617392 
        1.12915        0.543516        0.518814        0.603042 
        1.14142        0.533786        0.505926        0.589083 
        1.15365        0.520732        0.493515        0.576177 
        1.16585        0.507257        0.481555         0.56264 
        1.17807        0.498278        0.469978        0.550981 
        1.19037        0.481485        0.458708        0.537918 
        1.20276        0.473063        0.447731        0.525162 
        1.21504         0.46362        0.437202         0.51624 
        1.22728        0.454634        0.427057        0.503133 
        1.23954        0.443027         0.41721        0.494379 
        1.25184        0.435392        0.407656        0.482583 
        1.26414        0.425235        0.398398        0.472371 
        1.27632         0.41281        0.389511        0.463003 
         1.2886        0.402789        0.380834        0.452665 
        1.30093        0.394461        0.372391         0.44516 
        1.31316        0.384611        0.364266        0.435568 
        1.32541        0.377524        0.356383          0.4275 
        1.33772        0.370325         0.34869        0.419029 
        1.35005        0.364841         0.34122        0.411076 
        1.36225        0.356779        0.334045        0.402521 
        1.37447        0.350019        0.327063        0.395653 
        1.38676        0.343568         0.32025        0.387316 
        1.39907        0.336306         0.31362        0.380584 
        1.41133        0.328287        0.307206        0.373423 
        1.42358        0.323741        0.300978        0.365638 
        1.43591        0.317382        0.294881        0.360426 
        1.44818        0.310904        0.288986          0.3539 
        1.46037        0.304931        0.283288        0.346608 
        1.47263        0.298955        0.277713        0.340979 
        1.48494        0.293333        0.272266        0.335208 
        1.49724        0.287882         0.26697        0.329374 
        1.50952        0.282068        0.261826        0.322468 
        1.52178        0.277581        0.256825        0.317349 
        1.53409        0.273116        0.251935        0.312021 
        1.54637        0.267058        0.247183        0.306369 
        1.55858        0.263076        0.242581        0.301327 
        1.57081        0.258426        0.238089           0.296 
        1.58313        0.254603        0.233684        0.291709 
        1.59544        0.250363        0.229392        0.286476 
        1.60767        0.245975        0.225236        0.281867 
        1.61994        0.240448        0.221169        0.277686 
        1.63225        0.236042        0.217193        0.273283 
        1.64452        0.233537        0.213327        0.268504 
        1.65676         0.23021        0.209567        0.264424 
          1.669        0.226377        0.205895        0.259978 
        1.68133        0.221837        0.202288        0.256235 
        1.69363        0.217991        0.198777        0.252219 
        1.70585        0.214426        0.195373        0.248332 
        1.71809        0.211015        0.192042        0.244418 
        1.73038         0.20821        0.188778         0.24082 
        1.74268        0.203877        0.185587         0.23687 
        1.75493        0.202691        0.182486        0.233855 
        1.76714        0.198472        0.179463        0.230188 
        1.77942        0.196077        0.176493        0.226836 
        1.79173        0.193113        0.173583        0.223115 
        1.80402        0.189584        0.170745        0.220093 
         1.8163        0.187113        0.167972        0.216409 
         1.8286        0.184166        0.165256        0.214212 
         1.8409        0.181245        0.162602        0.210664 
        1.85315        0.179266        0.160015        0.207631 
        1.86537        0.175399         0.15749        0.204788 
        1.87765        0.173023         0.15501        0.201869 
        1.88995        0.171652        0.152577        0.199279 
        1.90221        0.169418        0.150206        0.196338 
        1.91445        0.165979        0.147888        0.193758 
        1.92674        0.163673        0.145612        0.191121 
        1.93902        0.161252        0.143383        0.188304 
        1.95124        0.158916        0.141213        0.185793 
         1.9635        0.156912        0.139082        0.183233 
        1.97583        0.155223        0.136982        0.180696 
        1.98812        0.152808        0.134933        0.178727 
        2.00039        0.151479         0.13293        0.176058 
        2.01264        0.149086         0.13097        0.173894 
        2.02492        0.147703        0.129046        0.171621 
        2.03717        0.144864        0.127165        0.169414 
        2.04942        0.143427        0.125323        0.167126 
        2.06171        0.141332        0.123512        0.164985 
        2.07397        0.139143         0.12174        0.162993 
        2.08629        0.137717        0.119996        0.160836 
        2.09857         0.13615         0.11829         0.15888 
        2.11081        0.134599        0.116624        0.156653 
        2.12309        0.132374        0.114986        0.155062 
        2.13538        0.131025        0.113378        0.152993 
        2.14763        0.129544        0.111806         0.15121 
        2.15986        0.127731        0.110267        0.149434 
        2.17214        0.126218        0.108751        0.147531 
        2.18443        0.125199        0.107261        0.145682 
        2.19671        0.123315        0.105802        0.144102 
        2.20898        0.122112        0.104372        0.142227 
        2.22126        0.120299        0.102966        0.140669 
        2.23354        0.118894        0.101587        0.139097 
         2.2458        0.117801        0.100235        0.137103 
        2.25807        0.116501       0.0989073        0.135797 
        2.27035        0.115057       0.0976021        0.134163 
        2.28263        0.113666       0.0963211        0.132694 
         2.2949        0.112664       0.0950638        0.131036 
        2.30718        0.111113       0.0938285        0.129603 
        2.31946        0.110243       0.0926146         0.12818 
        2.33169         0.10852       0.0914274         0.12667 
        2.34393         0.10801       0.0902592        0.125397 
        2.35622        0.106794       0.0891077        0.123843 
        2.36847        0.105693       0.0879795        0.122513 
        2.38076         0.10438       0.0868674        0.121191 
        2.39305        0.103531       0.0857749        0.119852 
        2.40534         0.10226       0.0847011        0.118565 
        2.41762        0.101205       0.0836459        0.117252 
        2.42989        0.100216       0.0826102        0.115931 
        2.44216       0.0993135       0.0815922        0.114746 
         2.4544       0.0982359       0.0805937        0.113567 
        2.46667       0.0971985       0.0796095         0.11225 
        2.47897       0.0959058       0.0786395        0.111081 
        2.49124       0.0953469       0.0776883        0.109923 
        2.50349       0.0942894       0.0767543        0.108728 
        2.51578       0.0932276       0.0758328         0.10759 
        2.52805       0.0928894        0.074928        0.106508 
        2.54029        0.091796       0.0740403        0.105439 
        2.55257        0.091118       0.0731643        0.104387 
        2.56487       0.0902486       0.0723008        0.103298 
        2.57716       0.0895716       0.0714524        0.102228 
        2.58942       0.0885113       0.0706196        0.101149 
        2.60167       0.0876249       0.0698008        0.100141 
        2.61395       0.0869217       0.0689938       0.0991794 
        2.62624        0.086582       0.0681984       0.0981973 
        2.63849       0.0854782       0.0674182       0.0972174 
        2.65073       0.0847783       0.0666509       0.0962256 
        2.66302       0.0842552       0.0658928       0.0952613 
         2.6753       0.0835524       0.0651471       0.0943444 
        2.68756       0.0830915       0.0644143       0.0934436 
        2.69983       0.0821085       0.0636924       0.0924168 
        2.71213        0.081482         0.06298        0.091608 
        2.72441       0.0808567       0.0622797       0.0907864 
        2.73665       0.0801252       0.0615918       0.0898897 
         2.7489       0.0798619       0.0609147       0.0890238 
        2.76118       0.0791902       0.0602457        0.088184 
        2.77349       0.0785147       0.0595851       0.0873855 
        2.78576       0.0781561       0.0589371       0.0865993 
        2.79802       0.0774211        0.058299       0.0856422 
        2.81031       0.0768007       0.0576689       0.0849355 
        2.82259       0.0762956       0.0570483       0.0841021 
        2.83483       0.0758962       0.0564392       0.0832923 
         2.8471       0.0753684       0.0558379       0.0826409 
         2.8594       0.0752233       0.0552434       0.0818906 
         2.8717       0.0744382       0.0546579        0.081092 
        2.88396       0.0741423        0.054083       0.0803958 
        2.89619       0.0735712       0.0535174       0.0796941 
        2.90847       0.0731632       0.0529577       0.0789691 
        2.92072       0.0726394        0.052407       0.0782065 
        2.93299       0.0723351       0.0518639       0.0775066 
        2.94526       0.0720484        0.051328       0.0768614 
        2.95753       0.0714939       0.0507998       0.0761859 
        2.96982       0.0712393       0.0502781       0.0754683 
        2.98209       0.0706245       0.0497649       0.0747906 
        2.99436       0.0705418       0.0492583       0.0741396 
        3.00666       0.0702248        0.048758       0.0734871 
        3.01894       0.0699583       0.0482656        0.072896 
        3.03119       0.0697449       0.0477806       0.0722653 
        3.04345       0.0692662       0.0473024       0.0716487 
        3.05573       0.0693362       0.0468296       0.0710564 
          3.068       0.0689799       0.0463639       0.0704086 
        3.08026       0.0686994        0.045905       0.0698341 
        3.09254        0.068603       0.0454514       0.0692553 
        3.10483        0.068357       0.0450039       0.0686784 
         3.1171       0.0682788        0.044563       0.0680759 
        3.12933       0.0679501       0.0441292       0.0674537 
        3.14159       0.0676734       0.0437003       0.0669556 
