# k  (h/Mpc)    Pcb(k)  (Mpc/h)^3    Pcb_linear(k) (Mpc/h)^3    Pcb_NL(k) (Mpc/h)^3   ShotnoiseSubtracted = false
      0.0156606         2722.79         2724.71         2711.26 
      0.0273761         2365.68         2357.76         2351.14 
      0.0384619         1797.68         1776.96         1774.69 
      0.0498308         1409.12         1397.99          1396.8 
      0.0625568         1188.92         1188.27         1186.14 
      0.0751274         1028.86         1009.64          1005.7 
      0.0867833         816.175         812.912         812.401 
      0.0984825         661.478         643.337         645.887 
       0.111151         554.087         537.188         539.666 
       0.123864         497.725         484.124         485.997 
       0.135742         447.207         435.354         437.208 
        0.14762         380.013         372.253         376.661 
       0.160083          315.56         310.297         315.327 
       0.172465         278.069         270.832         276.869 
       0.184281         257.781         249.676         256.087 
       0.196406          235.12         230.576         235.506 
       0.209011         211.889         205.154         210.752 
       0.221538         188.184         179.286         187.122 
       0.233611          169.61         160.415          169.12 
       0.245665          159.27         148.057         155.798 
       0.258103         143.573         137.829         145.536 
       0.270422         134.769         126.649         134.132 
       0.282519         122.281         114.941         122.934 
       0.294636         116.514         104.724         113.153 
       0.306978         103.109         96.8876         105.598 
       0.319417         98.3686         90.5844         99.0082 
        0.33169         91.4392         84.5509         92.6908 
       0.343948         86.7739         78.3414         86.6187 
       0.356249         79.6216          72.518         81.5816 
       0.368458         75.9536         67.6403         75.9985 
        0.38068         71.1956         63.5612         71.8497 
       0.392856         66.5543         59.8377         68.1978 
       0.405069         62.9684         56.1968         64.3146 
       0.417459         58.9247         52.6714          60.848 
       0.429752         56.4202         49.5067         57.6886 
       0.441978         53.7158         46.7292          55.217 
       0.454294         49.9825         44.2069         52.2569 
        0.46658         49.5193         41.8403         49.8525 
       0.478753         46.0515         39.6077         47.6411 
       0.490964         44.4737         37.5106         45.6735 
       0.503334         42.6041         35.5748           43.51 
       0.515665         40.4548         33.8097         42.0344 
       0.527909         38.7083         32.1803         39.8266 
       0.540159         37.0848         30.6387         38.2931 
        0.55248          34.672         29.1759         36.6747 
       0.564743         34.1973         27.8214         35.4555 
        0.57686         33.0377         26.5766         34.0961 
       0.589077         31.1064         25.4015          32.984 
       0.601441         30.0059         24.2841          31.777 
        0.61382         28.9542         23.2305         30.5154 
       0.626067         27.7846         22.2474         29.5644 
       0.638306         26.8573         21.3216         28.4764 
       0.650632         26.1131         20.4445         27.5634 
       0.662899         24.9883         19.6225         26.6015 
       0.675076         23.8442         18.8522         25.7468 
       0.687267         23.4826         18.1223         24.9022 
       0.699615         22.6779         17.4219         24.2015 
       0.711937         21.5283         16.7598         23.4081 
       0.724148         21.4068         16.1377         22.8049 
       0.736433         20.1634         15.5441         22.0728 
       0.748747          19.789         14.9795         21.4629 
       0.761037         19.2939         14.4443         20.8954 
       0.773197         18.6088         13.9407         20.3498 
       0.785376         17.9049         13.4607          19.796 
       0.797761         17.5038         12.9958         19.2612 
       0.810096         17.0923         12.5546          18.794 
       0.822371         16.6186         12.1362         18.2411 
       0.834626         16.0897         11.7375         17.8444 
       0.846916         15.5924         11.3558         17.3781 
       0.859215         15.0247          10.991         16.9673 
       0.871383          14.743         10.6459         16.6015 
        0.88363         14.3557         10.3137         16.1993 
       0.895928         14.0731         9.99441         15.7835 
       0.908253         13.7037         9.68813         15.4593 
       0.920535         13.2888         9.39578         15.0902 
       0.932774         13.0763         9.11656          14.707 
        0.94508         12.6411         8.84735         14.4289 
       0.957324          12.404         8.59037         14.1447 
        0.96953         11.9682         8.34444         13.8234 
       0.981769         11.8632         8.10755         13.5371 
       0.994071         11.5393         7.87879         13.2497 
         1.0064         11.1735         7.65849          12.994 
        1.01868         10.9583          7.4473         12.7405 
        1.03092          10.779         7.24506         12.4712 
         1.0432         10.3849         7.04963         12.2206 
        1.05553         10.2205         6.86068         12.0296 
        1.06777          9.9208         6.68006         11.7692 
           1.08         9.74472         6.50615         11.5599 
        1.09227         9.54509         6.33789         11.3494 
         1.1046         9.36544         6.17498         11.1194 
         1.1169         9.07228         6.01811         10.9198 
        1.12915         9.04921         5.86749         10.7697 
        1.14142          8.6991         5.72173          10.551 
        1.15365         8.59812         5.58137         10.3658 
        1.16585         8.48634         5.44611         10.2159 
        1.17807         8.23553         5.31518         10.0105 
        1.19037         8.09094         5.18772         9.85702 
        1.20276         7.89552         5.06358         9.68334 
        1.21504         7.78225         4.94451          9.5432 
        1.22728         7.58188         4.82976          9.3718 
        1.23954         7.46637          4.7184         9.24478 
        1.25184         7.30816         4.61035         9.09222 
        1.26414          7.2159         4.50565         8.93361 
        1.27632         7.01118         4.40514         8.80668 
         1.2886          6.9297         4.30701         8.67585 
        1.30093         6.78979         4.21153         8.57309 
        1.31316         6.63641         4.11964          8.4243 
        1.32541         6.53947         4.03049         8.32315 
        1.33772         6.41313         3.94348         8.18048 
        1.35005         6.32916           3.859         8.07525 
        1.36225         6.20121         3.77786         7.94482 
        1.37447         6.09146          3.6989          7.8498 
        1.38676         5.97694         3.62184         7.74426 
        1.39907         5.86656         3.54685         7.63712 
        1.41133         5.78225         3.47432         7.53193 
        1.42358         5.66641         3.40389         7.42553 
        1.43591         5.60383         3.33493          7.3432 
        1.44818         5.46653         3.26827         7.24231 
        1.46037         5.37513         3.20383         7.14383 
        1.47263         5.29858         3.14077         7.06126 
        1.48494         5.23995         3.07917         6.96196 
        1.49724         5.13723         3.01928         6.87924 
        1.50952         5.10865          2.9611         6.79734 
        1.52178         4.98829         2.90455         6.71207 
        1.53409          4.8916         2.84924         6.62087 
        1.54637         4.83509          2.7955         6.54155 
        1.55858          4.7714         2.74345         6.45874 
        1.57081         4.66944         2.69265         6.40015 
        1.58313         4.61445         2.64282          6.3174 
        1.59544         4.52969         2.59429         6.25178 
        1.60767         4.48081         2.54729         6.17122 
        1.61994         4.40575         2.50129         6.11162 
        1.63225         4.32943         2.45633         6.03879 
        1.64452          4.2578          2.4126         5.96836 
        1.65676         4.19726         2.37008         5.90511 
          1.669         4.16001         2.32855         5.84079 
        1.68133         4.05422         2.28776         5.77647 
        1.69363         4.03587         2.24806          5.7217 
        1.70585         3.97307         2.20956         5.65236 
        1.71809         3.92969         2.17188         5.59918 
        1.73038         3.87176         2.13497         5.53737 
        1.74268         3.80797         2.09889         5.48204 
        1.75493          3.7594         2.06381         5.42073 
        1.76714         3.72832         2.02962         5.36651 
        1.77942         3.66585         1.99604         5.31158 
        1.79173         3.61622         1.96313         5.25398 
        1.80402         3.57034         1.93103         5.20485 
         1.8163         3.54024         1.89966         5.15979 
         1.8286         3.47955         1.86894         5.11157 
         1.8409         3.42349         1.83893         5.06361 
        1.85315         3.38831         1.80968         5.00288 
        1.86537         3.35804         1.78112         4.96394 
        1.87765         3.29922         1.75307         4.91212 
        1.88995          3.2544         1.72556          4.8711 
        1.90221         3.21599         1.69874         4.82218 
        1.91445         3.18199         1.67253         4.78895 
        1.92674         3.15696         1.64678         4.73323 
        1.93902         3.10062         1.62158         4.68775 
        1.95124         3.06215         1.59703          4.6483 
         1.9635         3.04405         1.57294         4.60981 
        1.97583         2.99003         1.54919         4.56998 
        1.98812         2.95146         1.52601         4.52618 
        2.00039         2.92133         1.50336         4.48749 
        2.01264         2.88374         1.48119         4.45542 
        2.02492         2.85507         1.45944         4.41492 
        2.03717         2.81873         1.43816         4.37425 
        2.04942         2.78293         1.41733         4.33916 
        2.06171         2.74975         1.39684         4.29992 
        2.07397         2.72479         1.37681         4.26426 
        2.08629         2.69922         1.35708         4.23393 
        2.09857         2.66628         1.33779         4.19604 
        2.11081         2.62996         1.31895         4.16239 
        2.12309         2.61012         1.30043         4.12818 
        2.13538          2.5757         1.28224         4.09846 
        2.14763         2.56004         1.26446         4.06285 
        2.15986         2.53278         1.24705         4.03394 
        2.17214          2.4906         1.22991          3.9949 
        2.18443         2.47933         1.21306         3.96538 
        2.19671         2.44443         1.19656         3.93544 
        2.20898         2.42149         1.18038         3.90802 
        2.22126         2.40186         1.16449         3.87766 
        2.23354         2.37141         1.14889         3.84682 
         2.2458         2.35923          1.1336         3.81356 
        2.25807         2.32611         1.11858         3.78916 
        2.27035         2.30094         1.10382         3.76317 
        2.28263         2.27638         1.08934         3.73408 
         2.2949         2.26234         1.07512         3.70843 
        2.30718         2.23809         1.06115         3.68402 
        2.31946         2.21289         1.04742          3.6566 
        2.33169           2.195         1.03399         3.62856 
        2.34393         2.18386         1.02078         3.60269 
        2.35622         2.15842         1.00776         3.57648 
        2.36847         2.13402        0.994996         3.55005 
        2.38076         2.11693         0.98242         3.52438 
        2.39305         2.09492        0.970064         3.49773 
        2.40534         2.07696         0.95792         3.47665 
        2.41762         2.05314        0.945986         3.45548 
        2.42989         2.04085        0.934273         3.42905 
        2.44216         2.02674         0.92276          3.4076 
         2.4544         2.00723        0.911467         3.38561 
        2.46667         1.98955        0.900337         3.36254 
        2.47897         1.97475        0.889367         3.33894 
        2.49124         1.95399        0.878609         3.31747 
        2.50349          1.9419        0.868046         3.29503 
        2.51578          1.9218        0.857624         3.27056 
        2.52805         1.90403        0.847392          3.2508 
        2.54029         1.89522        0.837352         3.22992 
        2.55257         1.87674        0.827445         3.20923 
        2.56487         1.86318         0.81768         3.18776 
        2.57716         1.85591        0.808085         3.16752 
        2.58942         1.83657        0.798666         3.14787 
        2.60167          1.8245        0.789406         3.12653 
        2.61395         1.80207         0.78028         3.10967 
        2.62624         1.79775        0.771285         3.08986 
        2.63849         1.78461         0.76246         3.06869 
        2.65073         1.76913        0.753783         3.04991 
        2.66302         1.75614        0.745209         3.03242 
         2.6753          1.7555        0.736775          3.0138 
        2.68756         1.73282        0.728488         2.99581 
        2.69983         1.72192        0.720323         2.97623 
        2.71213          1.7152        0.712266         2.95862 
        2.72441         1.70329        0.704347         2.94112 
        2.73665         1.68939        0.696568         2.92517 
         2.7489         1.67962        0.688909         2.90971 
        2.76118         1.67009        0.681343         2.89224 
        2.77349         1.66728        0.673873         2.87479 
        2.78576         1.65731        0.666544         2.85747 
        2.79802         1.64922        0.659327         2.84084 
        2.81031         1.63369        0.652201          2.8236 
        2.82259          1.6269        0.645183         2.80704 
        2.83483          1.6227        0.638294          2.7923 
         2.8471         1.61422        0.631494         2.77631 
         2.8594          1.6052        0.624771         2.76129 
         2.8717         1.59821        0.618148         2.74585 
        2.88396         1.59471        0.611647         2.72957 
        2.89619         1.58206         0.60525         2.71405 
        2.90847         1.57806        0.598921         2.69798 
        2.92072         1.57321        0.592693         2.68438 
        2.93299         1.57222         0.58655         2.66976 
        2.94526         1.56501        0.580489         2.65567 
        2.95753         1.55685        0.574516         2.64106 
        2.96982         1.55502        0.568616         2.62629 
        2.98209           1.554        0.562811         2.61321 
        2.99436         1.54751        0.557083         2.59922 
        3.00666         1.55001        0.551424         2.58561 
        3.01894          1.5434        0.545855          2.5703 
        3.03119         1.54315        0.540371         2.55694 
        3.04345            1.54        0.534962         2.54487 
        3.05573         1.53822        0.529616         2.53196 
          3.068         1.53856        0.524349         2.51864 
        3.08026         1.53461        0.519158         2.50432 
        3.09254         1.53961        0.514029         2.49097 
        3.10483         1.53982        0.508968          2.4791 
         3.1171         1.53963        0.503982          2.4669 
        3.12933         1.54034        0.499076          2.4535 
        3.14159         1.54042        0.494225         2.44028 
