# k  (h/Mpc)    Pcb(k)  (Mpc/h)^3    Pcb_linear(k) (Mpc/h)^3    Pcb_NL(k) (Mpc/h)^3   ShotnoiseSubtracted = false
      0.0156606         5942.03         5951.22         5919.11 
      0.0273761         5145.55         5148.14         5127.26 
      0.0384619         3909.15         3879.46         3867.34 
      0.0498308         3052.61         3051.85         3041.82 
      0.0625568         2575.76         2593.91         2583.15 
      0.0751274         2249.36         2203.92         2186.93 
      0.0867833         1771.19         1774.45          1771.1 
      0.0984825         1451.01         1404.28         1413.04 
       0.111151          1220.6         1172.57         1181.44 
       0.123864         1096.57         1056.73         1064.12 
       0.135742         988.046         950.274         957.854 
        0.14762         842.959         812.537         830.595 
       0.160083         700.145           677.3         697.858 
       0.172465         620.814         591.156         616.325 
       0.184281         574.717         544.977         571.612 
       0.196406         524.767         503.286          524.45 
       0.209011         477.345         447.797         471.192 
       0.221538         427.519         391.333         424.041 
       0.233611         389.979         350.142         386.693 
       0.245665         365.526         323.168         355.827 
       0.258103         333.876         300.842         333.367 
       0.270422         310.935         276.439         308.479 
       0.282519         283.141         250.885         284.644 
       0.294636         276.145         228.584         264.192 
       0.306978         243.814         211.479         248.461 
       0.319417         233.474          197.72         233.299 
        0.33169         217.946         184.551          218.91 
       0.343948         207.991         170.997         206.745 
       0.356249         192.742         158.286         196.148 
       0.368458         185.456          147.64         183.628 
        0.38068         175.515         138.736         174.304 
       0.392856         163.677         130.609         166.314 
       0.405069         155.973         122.662         158.321 
       0.417459         148.109         114.967         149.823 
       0.429752         142.365         108.059         143.213 
       0.441978         136.557         101.996         137.965 
       0.454294         127.064          96.491         130.843 
        0.46658         127.201         91.3254         125.915 
       0.478753         118.954         86.4522         121.026 
       0.490964         115.334         81.8748         116.273 
       0.503334         110.122         77.6497         111.872 
       0.515665         106.442          73.797         108.729 
       0.527909           102.7         70.2404         103.478 
       0.540159          99.125         66.8755         100.262 
        0.55248         94.7032         63.6826         96.5644 
       0.564743         92.4333         60.7262         93.7357 
        0.57686         89.5668          58.009         90.5655 
       0.589077         85.2365         55.4441         88.0995 
       0.601441         83.1266         53.0051         85.4665 
        0.61382         81.1073         50.7056         82.5697 
       0.626067         77.7499         48.5597         80.3859 
       0.638306         75.3743          46.539         78.0331 
       0.650632         72.7305         44.6245         75.3053 
       0.662899         71.7845         42.8304         73.3087 
       0.675076         69.0161          41.149         71.3938 
       0.687267         67.8225         39.5558         69.4846 
       0.699615          65.483          38.027         68.0174 
       0.711937         63.1542         36.5818         65.8004 
       0.724148         62.7574         35.2239         64.7638 
       0.736433         59.6361         33.9283         62.8948 
       0.748747         58.7952         32.6959         61.3755 
       0.761037         57.2285         31.5277          59.928 
       0.773197         55.9691         30.4286         58.9371 
       0.785376         54.2268         29.3807         57.4029 
       0.797761         53.7011          28.366         56.3405 
       0.810096         52.0953         27.4032         54.9881 
       0.822371         51.0286         26.4897         53.7385 
       0.834626         49.7125         25.6196         52.8466 
       0.846916         48.6648         24.7865         51.7248 
       0.859215         47.3533         23.9902         50.6062 
       0.871383         46.7207          23.237         49.7207 
        0.88363         45.4988         22.5118         48.9106 
       0.895928         44.4522         21.8149         47.8483 
       0.908253         43.5173         21.1464         47.0847 
       0.920535         43.0156         20.5083         46.1777 
       0.932774         42.2216         19.8988         45.3644 
        0.94508         41.4841         19.3112         44.4462 
       0.957324          40.484         18.7503         43.7753 
        0.96953         40.0146         18.2135         42.9421 
       0.981769         38.9381         17.6964         42.3563 
       0.994071         38.2995         17.1971         41.6499 
         1.0064         37.4717         16.7163         40.9599 
        1.01868         36.7432         16.2553         40.3581 
        1.03092         36.3794         15.8139         39.6787 
         1.0432         35.6172         15.3873         38.9509 
        1.05553         34.8554         14.9749         38.6316 
        1.06777         34.1624         14.5806         37.8874 
           1.08         33.3797          14.201         37.3045 
        1.09227         33.0235         13.8338         36.8551 
         1.1046         32.5434         13.4782          36.237 
         1.1169          32.089         13.1358         35.7298 
        1.12915         31.5891          12.807         35.2554 
        1.14142         30.8331         12.4889         34.7541 
        1.15365          30.487         12.1825         34.3105 
        1.16585         30.0476         11.8873         33.8388 
        1.17807         29.4855         11.6015         33.2866 
        1.19037         29.2981         11.3233         33.0219 
        1.20276          28.858         11.0523         32.5357 
        1.21504         28.2741         10.7924         32.1919 
        1.22728         27.7958          10.542         31.7386 
        1.23954         27.4728         10.2989         31.2745 
        1.25184         26.9527         10.0631         30.9442 
        1.26414         26.6336         9.83452         30.5238 
        1.27632         26.3398         9.61515           30.16 
         1.2886         26.0589         9.40095         29.8322 
        1.30093         25.4665         9.19254         29.4948 
        1.31316         25.1616         8.99198         29.1401 
        1.32541         24.9135         8.79738         28.8382 
        1.33772         24.4653         8.60748         28.5098 
        1.35005         24.1413         8.42308         28.2162 
        1.36225         23.8188         8.24596         27.9075 
        1.37447         23.3095         8.07362          27.556 
        1.38676         23.1939         7.90543         27.3094 
        1.39907         22.8295         7.74176         27.0192 
        1.41133         22.4432         7.58344         26.6973 
        1.42358         22.2175          7.4297         26.4144 
        1.43591         21.8701         7.27919         26.1821 
        1.44818         21.6458         7.13368         25.9075 
        1.46037         21.4671         6.99302         25.5992 
        1.47263         21.1581         6.85539         25.4033 
        1.48494         20.9227         6.72094         25.1065 
        1.49724         20.7729          6.5902         24.8849 
        1.50952         20.3611         6.46323          24.677 
        1.52178         20.1356         6.33978         24.3909 
        1.53409         19.8466         6.21907         24.1696 
        1.54637         19.7271         6.10176         23.9014 
        1.55858         19.3199         5.98815         23.7051 
        1.57081         19.2141         5.87727         23.4991 
        1.58313         19.0148         5.76852         23.2643 
        1.59544          18.675         5.66258         23.0778 
        1.60767         18.5015         5.55999         22.8317 
        1.61994         18.2035         5.45958         22.6552 
        1.63225         18.1436         5.36145         22.4915 
        1.64452         17.8533         5.26601         22.2954 
        1.65676          17.673          5.1732         22.0666 
          1.669         17.5184         5.08255         21.8856 
        1.68133         17.1955         4.99351         21.6894 
        1.69363         17.0306         4.90686         21.4439 
        1.70585         16.8349         4.82282         21.3429 
        1.71809         16.6356         4.74059         21.1427 
        1.73038         16.4692         4.66001         20.9884 
        1.74268         16.3404         4.58126         20.7749 
        1.75493         16.0553         4.50469         20.6195 
        1.76714         16.0446         4.43007         20.4523 
        1.77942         15.8546         4.35677         20.2645 
        1.79173         15.5216         4.28493         20.1255 
        1.80402         15.3966         4.21487         19.9895 
         1.8163         15.2872         4.14641         19.8012 
         1.8286         15.0726         4.07936         19.6645 
         1.8409         14.9123         4.01385         19.5104 
        1.85315         14.7952            3.95         19.3513 
        1.86537         14.6089         3.88767         19.2106 
        1.87765         14.5013         3.82645         19.0587 
        1.88995         14.2782          3.7664         18.9132 
        1.90221         14.1826         3.70785         18.7569 
        1.91445         14.0274         3.65064         18.6245 
        1.92674         13.8794         3.59445         18.4827 
        1.93902         13.7235         3.53943          18.374 
        1.95124         13.5391         3.48586         18.2599 
         1.9635         13.4205         3.43327         18.0887 
        1.97583         13.2934         3.38142          17.935 
        1.98812          13.176         3.33085         17.8279 
        2.00039         13.0952         3.28141         17.7014 
        2.01264         12.9525         3.23302         17.5891 
        2.02492         12.8156         3.18553         17.4373 
        2.03717         12.6618         3.13909         17.3213 
        2.04942         12.5312         3.09362         17.1933 
        2.06171         12.4632         3.04891         17.0752 
        2.07397         12.3298         3.00517         16.9656 
        2.08629          12.224         2.96211         16.8571 
        2.09857         12.1217            2.92         16.7329 
        2.11081         11.9865         2.87889         16.6334 
        2.12309         11.8358         2.83846          16.499 
        2.13538         11.7124         2.79875         16.3848 
        2.14763         11.6268         2.75994         16.2842 
        2.15986         11.5938         2.72195         16.1932 
        2.17214         11.4519         2.68453         16.0609 
        2.18443         11.3003         2.64777         15.9654 
        2.19671         11.2564         2.61174         15.8522 
        2.20898         11.1206         2.57643         15.7596 
        2.22126         10.9958         2.54174         15.6527 
        2.23354         10.9558         2.50769          15.538 
         2.2458         10.8153         2.47433         15.4652 
        2.25807         10.7243         2.44154         15.3363 
        2.27035         10.6458         2.40933         15.2463 
        2.28263         10.5555          2.3777         15.1436 
         2.2949         10.4488         2.34667         15.0581 
        2.30718         10.3748         2.31617         14.9776 
        2.31946         10.2654         2.28621          14.874 
        2.33169         10.1796          2.2569         14.7835 
        2.34393         10.0961         2.22806         14.6877 
        2.35622         10.0094         2.19964         14.6005 
        2.36847         9.93275         2.17179         14.5069 
        2.38076         9.84927         2.14434         14.4179 
        2.39305         9.72388         2.11737         14.3199 
        2.40534         9.67874         2.09086         14.2244 
        2.41762          9.6052         2.06481          14.161 
        2.42989         9.53844         2.03925         14.0698 
        2.44216         9.45179         2.01412         13.9732 
         2.4544         9.37365         1.98947         13.8938 
        2.46667         9.32525         1.96518         13.8162 
        2.47897         9.24621         1.94123         13.7196 
        2.49124          9.1405         1.91775         13.6419 
        2.50349         9.08799         1.89469         13.5653 
        2.51578         9.01614         1.87194         13.4939 
        2.52805         8.95847         1.84961         13.4147 
        2.54029         8.88014          1.8277         13.3384 
        2.55257         8.84793         1.80607         13.2548 
        2.56487         8.71501         1.78476         13.1695 
        2.57716         8.68005         1.76381         13.0976 
        2.58942         8.64387         1.74326         13.0312 
        2.60167         8.58754         1.72304         12.9557 
        2.61395         8.51674         1.70312         12.8793 
        2.62624         8.44708         1.68349         12.8059 
        2.63849          8.4031         1.66423         12.7398 
        2.65073         8.35067         1.64529         12.6582 
        2.66302         8.28494         1.62658         12.5848 
         2.6753          8.2511         1.60817         12.5126 
        2.68756         8.20664         1.59008         12.4553 
        2.69983         8.13291         1.57226         12.3717 
        2.71213         8.09529         1.55467         12.3002 
        2.72441         8.03031         1.53739         12.2362 
        2.73665         8.03436          1.5204         12.1611 
         2.7489         7.96886         1.50369         12.0928 
        2.76118         7.89132         1.48717         12.0372 
        2.77349         7.86802         1.47087         11.9682 
        2.78576         7.84234         1.45487         11.9034 
        2.79802         7.79028         1.43912         11.8351 
        2.81031         7.76309         1.42357         11.7742 
        2.82259         7.70882         1.40825          11.709 
        2.83483         7.66664         1.39321         11.6436 
         2.8471         7.64976         1.37837         11.5863 
         2.8594         7.63519         1.36369         11.5246 
         2.8717         7.58635         1.34924         11.4545 
        2.88396         7.54787         1.33505         11.3957 
        2.89619         7.49519         1.32109         11.3414 
        2.90847         7.48589         1.30727         11.2742 
        2.92072         7.49152         1.29368          11.211 
        2.93299         7.44155         1.28027         11.1596 
        2.94526         7.42846         1.26704         11.0991 
        2.95753         7.40014           1.254         11.0376 
        2.96982          7.3695         1.24112         10.9802 
        2.98209          7.3595         1.22845         10.9168 
        2.99436         7.35842         1.21595         10.8608 
        3.00666         7.34246          1.2036         10.8086 
        3.01894         7.31044         1.19144          10.753 
        3.03119         7.31114         1.17947         10.6942 
        3.04345         7.29409         1.16767         10.6365 
        3.05573         7.30127           1.156         10.5823 
          3.068         7.28648          1.1445         10.5301 
        3.08026         7.31007         1.13317         10.4742 
        3.09254         7.29791         1.12198         10.4198 
        3.10483         7.27579         1.11093         10.3709 
         3.1171         7.28953         1.10005         10.3191 
        3.12933         7.30984         1.08934         10.2624 
        3.14159         7.27609         1.07875         10.2126 
