# k  (h/Mpc)    Pcb(k)  (Mpc/h)^3    Pcb_linear(k) (Mpc/h)^3    Pcb_NL(k) (Mpc/h)^3   ShotnoiseSubtracted = false
      0.0156606         20584.7         20692.6         20532.8 
      0.0273761         17653.5         17890.4         17703.6 
      0.0384619         13354.6         13478.1         13313.7 
      0.0498308         10319.9         10601.2         10436.3 
      0.0625568         8718.88         9009.62         8862.35 
      0.0751274         7759.83         7654.57         7447.27 
      0.0867833         6015.01         6162.74         6099.05 
      0.0984825         5076.13         4876.99         4935.28 
       0.111151         4338.77         4072.19          4143.8 
       0.123864         3888.18         3669.85         3727.92 
       0.135742         3542.71          3300.1         3358.46 
        0.14762         3081.81         2821.74         2976.72 
       0.160083         2613.86         2352.08         2542.54 
       0.172465         2331.55         2052.91         2295.23 
       0.184281          2116.3         1892.54          2136.1 
       0.196406         1991.94         1747.75         1966.54 
       0.209011         1861.62         1555.05         1781.96 
       0.221538         1677.28         1358.97         1662.13 
       0.233611         1604.77         1215.92         1556.37 
       0.245665         1456.12         1122.25         1436.78 
       0.258103         1437.63         1044.72         1356.29 
       0.270422         1283.39         959.975         1273.55 
       0.282519         1210.15         871.231         1204.38 
       0.294636         1190.57         793.788         1140.27 
       0.306978         1085.44         734.387          1092.2 
       0.319417         1062.43         686.609         1029.62 
        0.33169         999.473         640.876         974.598 
       0.343948         958.336         593.808         944.278 
       0.356249         907.519         549.668         908.929 
       0.368458         873.571         512.696          867.72 
        0.38068         857.629         481.777         834.295 
       0.392856         813.671         453.554         804.774 
       0.405069         773.272         425.956         779.215 
       0.417459         743.864         399.234          750.59 
       0.429752         737.992         375.247         724.341 
       0.441978         712.318         354.194         705.758 
       0.454294         680.348         335.075          676.82 
        0.46658         661.587         317.137         662.736 
       0.478753         648.323         300.214         642.409 
       0.490964          623.35         284.319         622.684 
       0.503334         595.818         269.647         608.532 
       0.515665         594.179         256.268          595.04 
       0.527909         570.138         243.917         581.979 
       0.540159         555.989         232.232         566.956 
        0.55248         545.167         221.144         552.185 
       0.564743         540.952         210.878         542.793 
        0.57686         521.991         201.442         528.313 
       0.589077         510.902         192.535         516.592 
       0.601441         501.088         184.066         506.328 
        0.61382         487.885          176.08         497.528 
       0.626067         482.438         168.628         487.985 
       0.638306         464.516         161.611         478.254 
       0.650632          460.06         154.963         466.439 
       0.662899         456.204         148.733         460.934 
       0.675076         440.525         142.894         454.235 
       0.687267          428.62         137.361         443.422 
       0.699615         425.976         132.052         436.431 
       0.711937         418.469         127.034         428.361 
       0.724148         404.623         122.318         422.438 
       0.736433         395.226         117.819         414.782 
       0.748747          390.31          113.54         407.381 
       0.761037         383.228         109.483         402.255 
       0.773197         378.212         105.666         395.901 
       0.785376         372.863         102.027         390.054 
       0.797761         362.196         98.5035          384.01 
       0.810096         359.214         95.1601         379.214 
       0.822371         348.468         91.9881         373.009 
       0.834626         345.914         88.9666          368.45 
       0.846916         339.556         86.0735         362.736 
       0.859215         337.394         83.3082         357.513 
       0.871383         329.282         80.6925         352.705 
        0.88363         326.716         78.1742          349.11 
       0.895928         321.079         75.7543         343.616 
       0.908253         313.089         73.4328          338.07 
       0.920535         308.732         71.2169         334.131 
       0.932774         302.875         69.1005         329.226 
        0.94508         298.684         67.0599         325.844 
       0.957324         296.754         65.1121         321.442 
        0.96953         292.703          63.248         317.489 
       0.981769         285.188         61.4525         314.058 
       0.994071         284.233         59.7185         310.178 
         1.0064         278.506         58.0488         305.656 
        1.01868         275.488          56.448         301.755 
        1.03092         267.481         54.9151         299.059 
         1.0432         264.605         53.4338         295.438 
        1.05553         261.545         52.0016          291.43 
        1.06777         259.295         50.6326          288.26 
           1.08         253.262         49.3144         285.003 
        1.09227         251.758         48.0391         281.587 
         1.1046         247.416         46.8043         278.858 
         1.1169         241.825         45.6152         275.106 
        1.12915         238.777         44.4736          272.49 
        1.14142         234.376         43.3687         269.151 
        1.15365         231.647         42.3049         266.313 
        1.16585         227.633         41.2797         263.208 
        1.17807         225.346         40.2873         260.642 
        1.19037         222.308         39.3211         258.358 
        1.20276         219.267         38.3802         254.988 
        1.21504         214.625         37.4777         252.171 
        1.22728         211.385         36.6079         249.147 
        1.23954         210.398         35.7639         247.022 
        1.25184         205.908         34.9449         244.344 
        1.26414         201.936         34.1513         241.973 
        1.27632         200.906         33.3895         239.902 
         1.2886         199.422         32.6456         237.051 
        1.30093         194.182         31.9219         234.181 
        1.31316         190.418         31.2255         231.721 
        1.32541         189.332         30.5497         229.536 
        1.33772         186.742         29.8903         227.305 
        1.35005          184.22         29.2499         224.751 
        1.36225         180.886         28.6348         222.658 
        1.37447         178.335         28.0364         219.925 
        1.38676         176.482         27.4523         218.297 
        1.39907         173.842         26.8839         215.746 
        1.41133         170.807         26.3342         213.597 
        1.42358         168.837         25.8003         211.583 
        1.43591         166.862         25.2776         209.551 
        1.44818         163.852         24.7723         207.467 
        1.46037          162.26         24.2839         205.259 
        1.47263         159.483         23.8059          203.49 
        1.48494         157.646          23.339         200.993 
        1.49724         155.357         22.8851         199.609 
        1.50952         152.497         22.4441         197.482 
        1.52178         151.556         22.0154         195.348 
        1.53409         148.465         21.5963         193.686 
        1.54637         146.597         21.1889         192.087 
        1.55858         144.614         20.7944         189.994 
        1.57081         142.324         20.4094         188.291 
        1.58313         140.445         20.0317          186.37 
        1.59544         137.961         19.6638         184.709 
        1.60767         136.902         19.3076         183.044 
        1.61994         134.465         18.9589         181.366 
        1.63225          132.66         18.6181         179.445 
        1.64452         130.413         18.2867         177.842 
        1.65676         128.634         17.9644         176.311 
          1.669         127.492         17.6496           174.7 
        1.68133         124.944         17.3404         173.106 
        1.69363         122.947         17.0395         171.584 
        1.70585         120.972         16.7477         170.056 
        1.71809         119.512         16.4621         168.221 
        1.73038         118.485         16.1823          166.87 
        1.74268         117.322         15.9088         165.253 
        1.75493         114.247         15.6429         163.874 
        1.76714         113.777         15.3838         162.497 
        1.77942         111.645         15.1293         160.885 
        1.79173         109.909         14.8798         159.504 
        1.80402         108.904         14.6365         158.088 
         1.8163         106.646         14.3988         156.749 
         1.8286         105.363         14.1659         155.271 
         1.8409         104.556         13.9385         153.827 
        1.85315         102.356         13.7167          152.58 
        1.86537          101.55         13.5003         151.316 
        1.87765         100.316         13.2877         150.023 
        1.88995         98.5402         13.0792         148.631 
        1.90221         97.3073         12.8758         147.435 
        1.91445         96.0744         12.6772         146.019 
        1.92674         94.5647          12.482         144.774 
        1.93902         93.3018          12.291         143.473 
        1.95124         92.1986          12.105         142.266 
         1.9635         90.6803         11.9223         141.011 
        1.97583         89.3293         11.7423         139.837 
        1.98812         88.2001         11.5667         138.768 
        2.00039         87.1783          11.395         137.474 
        2.01264         86.0887         11.2269         136.345 
        2.02492         85.1823         11.0621         135.118 
        2.03717         83.7132         10.9008         134.032 
        2.04942         83.0232         10.7429         132.946 
        2.06171         81.2399         10.5876         131.789 
        2.07397         80.4329         10.4357         130.748 
        2.08629         79.4169         10.2862         129.612 
        2.09857         78.3211           10.14         128.567 
        2.11081          76.996         9.99718          127.38 
        2.12309         75.9547          9.8568         126.457 
        2.13538         74.9756         9.71892         125.342 
        2.14763         74.0376         9.58414         124.341 
        2.15986         72.9903         9.45222         123.244 
        2.17214         72.1828         9.32226         122.259 
        2.18443          71.226         9.19461         121.425 
        2.19671         70.1567         9.06951          120.38 
        2.20898         69.4608         8.94689         119.314 
        2.22126         68.4323          8.8264         118.405 
        2.23354         67.6752         8.70818         117.464 
         2.2458         66.4116         8.59233         116.519 
        2.25807         65.7006         8.47848         115.562 
        2.27035         64.7904         8.36659         114.618 
        2.28263         63.9483         8.25679         113.732 
         2.2949         62.9697           8.149          112.84 
        2.30718         62.0545         8.04312         111.951 
        2.31946         61.6314         7.93906         110.992 
        2.33169          60.532         7.83729         110.151 
        2.34393         60.0792         7.73715         109.356 
        2.35622         58.9385         7.63844         108.463 
        2.36847         58.5216         7.54173         107.723 
        2.38076         57.5329          7.4464         106.742 
        2.39305         56.9214         7.35275         106.023 
        2.40534         56.1661          7.2607         105.146 
        2.41762         55.5148         7.17024         104.291 
        2.42989          54.658         7.08146         103.551 
        2.44216          54.116          6.9942         102.688 
         2.4544         53.2781          6.9086         101.934 
        2.46667         52.6864         6.82424         101.148 
        2.47897         52.1069         6.74109         100.336 
        2.49124         51.5651         6.65955         99.6115 
        2.50349         51.0412         6.57949         98.8483 
        2.51578         50.2547         6.50049         98.1939 
        2.52805         49.6817         6.42294         97.3658 
        2.54029         49.1842         6.34684         96.6029 
        2.55257         48.5414         6.27175          95.942 
        2.56487         48.2598         6.19773         95.2538 
        2.57716         47.5044           6.125         94.5337 
        2.58942         46.8535         6.05361         93.8279 
        2.60167         46.3241         5.98342         93.1436 
        2.61395         45.8532         5.91425         92.4558 
        2.62624         45.2224         5.84607         91.7178 
        2.63849         44.7271         5.77918         91.0654 
        2.65073         44.2962         5.71341          90.403 
        2.66302          43.772         5.64843         89.7163 
         2.6753         43.3437          5.5845         89.0979 
        2.68756         42.8988         5.52169          88.423 
        2.69983         42.3422          5.4598         87.8142 
        2.71213         41.9412         5.39873         87.1837 
        2.72441         41.5082         5.33871         86.5432 
        2.73665         40.9996         5.27974         85.9443 
         2.7489         40.5841         5.22169         85.3366 
        2.76118         40.2134         5.16434         84.7139 
        2.77349         39.7585         5.10772         84.1155 
        2.78576         39.3918         5.05217         83.4863 
        2.79802         39.0565         4.99747         82.9732 
        2.81031         38.5183         4.94346          82.364 
        2.82259         38.3331         4.89026         81.7523 
        2.83483         37.8325         4.83805         81.2283 
         2.8471         37.5262          4.7865         80.6385 
         2.8594         37.1746         4.73555         80.0556 
         2.8717         36.9962         4.68535         79.5353 
        2.88396         36.5705         4.63607         78.9738 
        2.89619         36.3563         4.58758         78.3803 
        2.90847         35.9569         4.53961          77.818 
        2.92072         35.7509          4.4924         77.3336 
        2.93299         35.5934         4.44585         76.8214 
        2.94526         35.1839         4.39991         76.2851 
        2.95753         34.9626         4.35463         75.7469 
        2.96982         34.6482         4.30991         75.2403 
        2.98209          34.443         4.26591         74.7442 
        2.99436         34.1688         4.22249         74.2012 
        3.00666         34.1273          4.1796         73.7053 
        3.01894         33.7593         4.13739         73.2077 
        3.03119         33.7233         4.09582         72.7363 
        3.04345          33.556         4.05482         72.2651 
        3.05573         33.2223          4.0143         71.7737 
          3.068          33.154         3.97438         71.2957 
        3.08026         32.9784         3.93504         70.8151 
        3.09254         32.9102         3.89616         70.3549 
        3.10483          32.873          3.8578         69.8969 
         3.1171          32.698            3.82         69.4299 
        3.12933         32.5609         3.78282         68.9655 
        3.14159         32.4382         3.74605         68.4972 
