# k  (h/Mpc)    Pcb(k)  (Mpc/h)^3    Pcb_linear(k) (Mpc/h)^3    Pcb_NL(k) (Mpc/h)^3   ShotnoiseSubtracted = false
      0.0156606         2209.55         2210.88         2200.19 
      0.0273761         1921.03         1913.25         1908.34 
      0.0384619         1459.71         1441.99         1440.67 
      0.0498308         1145.08         1134.47         1134.03 
      0.0625568         966.161         964.288         962.975 
      0.0751274         834.424         819.333         816.717 
      0.0867833         663.013         659.686          659.39 
      0.0984825         536.159         522.075         523.845 
       0.111151         448.805         435.934         437.632 
       0.123864         403.111         392.872         394.081 
       0.135742         362.031         353.295          354.46 
        0.14762         307.555         302.088         304.936 
       0.160083         255.471          251.81         255.092 
       0.172465         224.801         219.783           223.7 
       0.184281          208.37         202.615          206.76 
       0.196406         190.121         187.115          190.27 
       0.209011         171.044         166.485         170.096 
       0.221538         151.625         145.493         150.561 
       0.233611         136.415         130.179         135.802 
       0.245665         127.987          120.15         125.142 
       0.258103         115.361          111.85         116.815 
       0.270422         108.262         102.777          107.58 
       0.282519         98.2048         93.2762         98.4314 
       0.294636         93.0812         84.9851         90.4201 
       0.306978         82.5528         78.6256         84.2336 
       0.319417         78.6615         73.5104         78.9406 
        0.33169         73.1016         68.6142          73.859 
       0.343948         69.2224         63.5751         68.8762 
       0.356249         63.4271         58.8493         64.7158 
       0.368458         60.3763          54.891         60.2488 
        0.38068         56.4938         51.5808         56.8996 
       0.392856          52.883         48.5591         53.9271 
       0.405069         49.9929         45.6044         50.7789 
       0.417459         46.6087         42.7435         48.0076 
       0.429752         44.5716         40.1754         45.4246 
       0.441978         42.3977         37.9213         43.3899 
       0.454294         39.4753         35.8745         41.0556 
        0.46658         38.9503          33.954         39.0895 
       0.478753         36.2494         32.1422         37.2859 
       0.490964         34.9543         30.4403         35.7115 
       0.503334         33.4535         28.8695         33.9513 
       0.515665         31.6719         27.4371          32.726 
       0.527909         30.3047         26.1147         31.0144 
       0.540159         28.9555         24.8637         29.7509 
        0.55248         27.0631         23.6766         28.4489 
       0.564743         26.6808         22.5775         27.4779 
        0.57686         25.7261         21.5672         26.3767 
       0.589077         24.1907         20.6136         25.4821 
       0.601441         23.2863         19.7068         24.5092 
        0.61382         22.4382         18.8519         23.5077 
       0.626067         21.5289         18.0541          22.723 
       0.638306         20.7791         17.3028         21.8637 
       0.650632         20.2178          16.591          21.156 
       0.662899         19.2767          15.924         20.3842 
       0.675076         18.3755         15.2988         19.7014 
       0.687267         18.0372         14.7065         19.0163 
       0.699615         17.4401         14.1381         18.4373 
       0.711937         16.5307         13.6008         17.8471 
       0.724148         16.4126         13.0959         17.3351 
       0.736433         15.4668         12.6142         16.7547 
       0.748747         15.1269          12.156         16.2877 
       0.761037         14.7595         11.7217         15.8209 
       0.773197         14.1731         11.3131         15.3926 
       0.785376         13.6592         10.9235         14.9487 
       0.797761         13.3107         10.5462         14.5098 
       0.810096         12.9739         10.1883         14.1619 
       0.822371         12.6226         9.84866         13.7222 
       0.834626           12.21         9.52516         13.3902 
       0.846916         11.8075         9.21542         13.0358 
       0.859215         11.3699         8.91936         12.7146 
       0.871383         11.1263         8.63931         12.4181 
        0.88363         10.8364         8.36968         12.0957 
       0.895928         10.6185          8.1106         11.7767 
       0.908253         10.3182         7.86205         11.5091 
       0.920535          9.9852          7.6248         11.2195 
       0.932774         9.81204         7.39821         10.9141 
        0.94508         9.47696         7.17974          10.704 
       0.957324         9.27933          6.9712          10.485 
        0.96953         8.95058         6.77162         10.2355 
       0.981769          8.8393         6.57939          9.9936 
       0.994071         8.62424         6.39374         9.78303 
         1.0064          8.3281         6.21497         9.57786 
        1.01868         8.15225         6.04359         9.37336 
        1.03092         7.99923         5.87946         9.16285 
         1.0432         7.70362         5.72087          8.9741 
        1.05553         7.57693         5.56753         8.81441 
        1.06777          7.3495         5.42096         8.62906 
           1.08           7.223         5.27982         8.45544 
        1.09227         7.05714         5.14328         8.28484 
         1.1046         6.90219         5.01108         8.11303 
         1.1169         6.67953         4.88378         7.96135 
        1.12915         6.65775         4.76155         7.83979 
        1.14142         6.40491         4.64326          7.6669 
        1.15365         6.30316         4.52936         7.52829 
        1.16585         6.21567         4.41959         7.40882 
        1.17807         6.04756         4.31334         7.25243 
        1.19037         5.90672          4.2099         7.12677 
        1.20276         5.77068         4.10916         6.99189 
        1.21504         5.66642         4.01253         6.88665 
        1.22728         5.52627         3.91942          6.7517 
        1.23954         5.43613         3.82905         6.65968 
        1.25184         5.31605         3.74136          6.5346 
        1.26414         5.24681         3.65639         6.41373 
        1.27632         5.08594         3.57483         6.32338 
         1.2886         5.02448         3.49519         6.21675 
        1.30093         4.91479         3.41771         6.13269 
        1.31316         4.78703         3.34314         6.02311 
        1.32541         4.72058         3.27079         5.94146 
        1.33772         4.63314         3.20019         5.83544 
        1.35005         4.55772         3.13163         5.75242 
        1.36225          4.4666         3.06578         5.65393 
        1.37447         4.38075         3.00171          5.5828 
        1.38676         4.29073         2.93917         5.49469 
        1.39907         4.20559         2.87832            5.42 
        1.41133         4.14198         2.81946         5.33763 
        1.42358         4.06841          2.7623         5.25505 
        1.43591         4.01159         2.70634         5.19461 
        1.44818         3.90827         2.65224         5.11729 
        1.46037         3.83465         2.59995         5.04205 
        1.47263         3.77902         2.54878         4.97665 
        1.48494         3.72692         2.49879         4.90654 
        1.49724         3.65334         2.45018         4.83794 
        1.50952         3.63383         2.40297         4.77526 
        1.52178         3.54018         2.35708         4.71539 
        1.53409         3.46795          2.3122         4.64207 
        1.54637         3.42196         2.26858         4.58498 
        1.55858         3.36883         2.22634         4.51643 
        1.57081          3.3056         2.18512         4.47395 
        1.58313         3.24955         2.14469         4.41186 
        1.59544         3.19928          2.1053         4.36182 
        1.60767         3.15945         2.06716         4.30243 
        1.61994          3.0956         2.02983         4.25499 
        1.63225         3.04486         1.99334         4.20113 
        1.64452         2.99596         1.95786         4.14661 
        1.65676         2.94384         1.92335         4.09949 
          1.669         2.91229         1.88965         4.05078 
        1.68133         2.83745         1.85654         4.00582 
        1.69363         2.83113         1.82433         3.95989 
        1.70585         2.78334         1.79309         3.91033 
        1.71809         2.74925         1.76251         3.86847 
        1.73038         2.70032         1.73255         3.82115 
        1.74268         2.65144         1.70327         3.78016 
        1.75493         2.62092         1.67481         3.73843 
        1.76714         2.59065         1.64706         3.69139 
        1.77942         2.54809         1.61981         3.65487 
        1.79173         2.51391          1.5931         3.61059 
        1.80402         2.47604         1.56705         3.57376 
         1.8163         2.45479          1.5416         3.53768 
         1.8286         2.40712         1.51667         3.50473 
         1.8409         2.37091         1.49232         3.46688 
        1.85315         2.34499         1.46858         3.42133 
        1.86537         2.31555          1.4454         3.39377 
        1.87765         2.28159         1.42264         3.35763 
        1.88995         2.24583         1.40032         3.32411 
        1.90221         2.21687         1.37855         3.28853 
        1.91445         2.19304         1.35728         3.26221 
        1.92674         2.17111         1.33639          3.2221 
        1.93902         2.13014         1.31593         3.18655 
        1.95124          2.1007         1.29602         3.16129 
         1.9635         2.08522         1.27646         3.12828 
        1.97583         2.04524         1.25718         3.09869 
        1.98812         2.02179         1.23838         3.06986 
        2.00039         1.99698            1.22         3.03801 
        2.01264          1.9659         1.20201         3.01619 
        2.02492         1.94789         1.18436         2.98681 
        2.03717         1.92703         1.16709         2.95596 
        2.04942         1.89897         1.15018         2.92725 
        2.06171         1.87236         1.13356         2.89921 
        2.07397         1.85275          1.1173         2.87478 
        2.08629         1.83474         1.10129         2.85219 
        2.09857         1.81087         1.08563         2.82435 
        2.11081          1.7874         1.07035         2.79807 
        2.12309         1.77155         1.05532         2.77637 
        2.13538         1.74397         1.04055         2.75064 
        2.14763         1.73529         1.02612         2.72586 
        2.15986         1.71242           1.012         2.70526 
        2.17214         1.68177        0.998085         2.67604 
        2.18443         1.67273        0.984419          2.6561 
        2.19671         1.65285        0.971025         2.63429 
        2.20898         1.63266        0.957896         2.61294 
        2.22126         1.61613        0.944996         2.59139 
        2.23354         1.59729        0.932339         2.56909 
         2.2458         1.58652        0.919935         2.54525 
        2.25807         1.56158        0.907746         2.52539 
        2.27035         1.54548        0.895767         2.50689 
        2.28263         1.52383        0.884011         2.48674 
         2.2949         1.51635        0.872471         2.46681 
        2.30718          1.4988        0.861134         2.44805 
        2.31946         1.47762        0.849993         2.42808 
        2.33169         1.46668        0.839097         2.40916 
        2.34393         1.45872        0.828376         2.39108 
        2.35622         1.43697        0.817808          2.3724 
        2.36847         1.42478        0.807453          2.3528 
        2.38076         1.40501        0.797247         2.33448 
        2.39305         1.39333         0.78722         2.31488 
        2.40534          1.3815        0.777365         2.30014 
        2.41762         1.36434         0.76768         2.28266 
        2.42989         1.35318        0.758175         2.26676 
        2.44216         1.34296        0.748832         2.24899 
         2.4544         1.33175        0.739668         2.23404 
        2.46667         1.31448        0.730636         2.21724 
        2.47897         1.30467        0.721733         2.19911 
        2.49124         1.28928        0.713003         2.18452 
        2.50349         1.27935        0.704431         2.16752 
        2.51578          1.2677        0.695973         2.15017 
        2.52805         1.25251         0.68767         2.13647 
        2.54029         1.24632        0.679523         2.12108 
        2.55257         1.23115        0.671483         2.10596 
        2.56487         1.22058        0.663558         2.09237 
        2.57716         1.21513        0.655772         2.07664 
        2.58942         1.20559        0.648128         2.06281 
        2.60167         1.19486        0.640614         2.04808 
        2.61395         1.18048        0.633207         2.03552 
        2.62624         1.17373        0.625908         2.02102 
        2.63849         1.16448        0.618747         2.00677 
        2.65073         1.15475        0.611705         1.99318 
        2.66302         1.14537        0.604748         1.97985 
         2.6753         1.14306        0.597903         1.96717 
        2.68756         1.12982        0.591178         1.95492 
        2.69983          1.1215        0.584552         1.94146 
        2.71213         1.11135        0.578014         1.92914 
        2.72441         1.10428        0.571587         1.91633 
        2.73665         1.09722        0.565274         1.90552 
         2.7489         1.08971        0.559059         1.89425 
        2.76118         1.08097        0.552919         1.87997 
        2.77349         1.07749        0.546857         1.86838 
        2.78576         1.07185        0.540909         1.85678 
        2.79802           1.065        0.535053         1.84418 
        2.81031          1.0557         0.52927         1.83331 
        2.82259         1.04869        0.523575         1.82108 
        2.83483         1.04557        0.517985         1.81044 
         2.8471         1.03969        0.512466         1.79894 
         2.8594         1.03385         0.50701         1.78817 
         2.8717         1.02997        0.501636         1.77828 
        2.88396         1.02229        0.496359         1.76722 
        2.89619         1.01794        0.491169         1.75607 
        2.90847         1.01253        0.486032         1.74556 
        2.92072         1.01045        0.480978         1.73557 
        2.93299         1.00619        0.475993         1.72461 
        2.94526         1.00425        0.471075         1.71475 
        2.95753        0.999371        0.466227         1.70504 
        2.96982        0.995696         0.46144          1.6946 
        2.98209        0.993481        0.456729         1.68495 
        2.99436        0.990963         0.45208         1.67521 
        3.00666        0.990292        0.447488         1.66535 
        3.01894        0.986669        0.442969         1.65622 
        3.03119        0.984627        0.438518         1.64653 
        3.04345        0.981462        0.434129         1.63729 
        3.05573        0.980331         0.42979         1.62884 
          3.068        0.978902        0.425516         1.61962 
        3.08026        0.977656        0.421304         1.61011 
        3.09254        0.979377        0.417141           1.601 
        3.10483        0.979839        0.413034         1.59256 
         3.1171        0.980452        0.408988         1.58395 
        3.12933            0.98        0.405007         1.57483 
        3.14159        0.979348         0.40107         1.56627 
