# k  (h/Mpc)    Pcb(k)  (Mpc/h)^3    Pcb_linear(k) (Mpc/h)^3    Pcb_NL(k) (Mpc/h)^3   ShotnoiseSubtracted = false
      0.0156606         6613.36         6624.75         6588.13 
      0.0273761         5723.63         5730.58         5705.16 
      0.0384619         4347.88          4318.3         4302.45 
      0.0498308         3393.02         3397.05         3383.38 
      0.0625568         2863.17          2887.3         2873.23 
      0.0751274         2504.01         2453.19         2431.44 
      0.0867833         1969.37         1975.15         1970.54 
      0.0984825         1616.43         1563.11         1573.69 
       0.111151         1360.92         1305.19         1316.02 
       0.123864          1222.6         1176.25         1185.32 
       0.135742         1102.21         1057.75         1067.08 
        0.14762         941.341         904.435         926.905 
       0.160083         782.185         753.903         779.584 
       0.172465          694.17         658.015         689.595 
       0.184281         642.239         606.614         639.933 
       0.196406         586.846         560.208         586.908 
       0.209011         534.718         498.443         527.764 
       0.221538         479.509         435.593         476.579 
       0.233611          438.55         389.743         435.605 
       0.245665         410.492         359.719         400.757 
       0.258103         376.473         334.867         375.722 
       0.270422         349.682         307.705         348.074 
       0.282519         318.794         279.259          321.72 
       0.294636         311.934         254.437           299.2 
       0.306978         275.609         235.397         281.917 
       0.319417         264.075         220.082         264.791 
        0.33169         246.788         205.423         248.588 
       0.343948         235.544         190.337          235.45 
       0.356249         218.662         176.188         223.693 
       0.368458          210.68         164.338         209.724 
        0.38068         199.693         154.427         199.269 
       0.392856         186.286          145.38         190.329 
       0.405069         177.803         136.535         181.681 
       0.417459         169.077         127.969         171.909 
       0.429752         162.605          120.28          164.61 
       0.441978          156.22         113.532          158.77 
       0.454294         145.413         107.404          150.71 
        0.46658         145.621         101.654         145.327 
       0.478753         136.508         96.2299         139.804 
       0.490964         132.357         91.1348         134.386 
       0.503334         126.142         86.4318         129.591 
       0.515665         122.337         82.1434         126.075 
       0.527909          118.26         78.1845         120.267 
       0.540159         114.203          74.439          116.64 
        0.55248         109.696          70.885         112.478 
       0.564743         106.822         67.5943         109.333 
        0.57686         103.489         64.5698         105.684 
       0.589077         98.6575         61.7148         102.953 
       0.601441         96.3415              59         100.027 
        0.61382         94.2746         56.4403         96.7852 
       0.626067         90.4298         54.0518         94.2615 
       0.638306         87.5476         51.8025         91.7116 
       0.650632         84.4267         49.6714         88.4731 
       0.662899          83.722         47.6744         86.2963 
       0.675076          80.598         45.8029          84.124 
       0.687267         79.0326         44.0295          81.981 
       0.699615          76.406         42.3278         80.2927 
       0.711937         73.8793         40.7191         77.8169 
       0.724148         73.3456         39.2077          76.679 
       0.736433         69.9464         37.7655         74.5231 
       0.748747         68.8483         36.3938         72.8041 
       0.761037         67.1183         35.0934          71.072 
       0.773197         65.6583         33.8701         70.0667 
       0.785376         63.8011         32.7037         68.2464 
       0.797761         63.2253         31.5742         67.0814 
       0.810096         61.1684         30.5024         65.5103 
       0.822371         59.9941         29.4857         64.1259 
       0.834626         58.5135         28.5172         63.0619 
       0.846916         57.4209         27.5899         61.8241 
       0.859215         55.9946         26.7035         60.5123 
       0.871383         55.2565         25.8651         59.4788 
        0.88363         53.7699         25.0578         58.5823 
       0.895928         52.5707         24.2821         57.4217 
       0.908253         51.4006          23.538         56.4782 
       0.920535         50.9732         22.8277         55.4764 
       0.932774         49.9979         22.1494         54.5284 
        0.94508         49.2057         21.4953         53.4697 
       0.957324         47.9654         20.8709         52.7256 
        0.96953         47.6599         20.2734         51.7452 
       0.981769           46.21         19.6979         51.0831 
       0.994071         45.5717         19.1421         50.2906 
         1.0064         44.5881         18.6069          49.478 
        1.01868         43.7814         18.0938         48.7824 
        1.03092         43.2475         17.6024           48.01 
         1.0432         42.4481         17.1276         47.1747 
        1.05553         41.4743         16.6685         46.8063 
        1.06777         40.8308         16.2297         45.9899 
           1.08         39.8682         15.8072         45.2971 
        1.09227         39.4549         15.3984          44.718 
         1.1046         38.8764         15.0026         44.0385 
         1.1169         38.3862         14.6214         43.4208 
        1.12915         37.7301         14.2555         42.8985 
        1.14142         36.9333         13.9014         42.3293 
        1.15365         36.4648         13.5603         41.8201 
        1.16585         35.9156         13.2317         41.2221 
        1.17807          35.301         12.9136          40.624 
        1.19037         35.1365         12.6039         40.2865 
        1.20276         34.5798         12.3023          39.743 
        1.21504         33.9471          12.013         39.3197 
        1.22728         33.3634         11.7343         38.8057 
        1.23954         32.9884         11.4637         38.2467 
        1.25184         32.3859         11.2012         37.8746 
        1.26414         31.9845         10.9468         37.3735 
        1.27632         31.6906         10.7026          36.962 
         1.2886         31.3448         10.4642         36.5682 
        1.30093         30.7017         10.2322         36.1186 
        1.31316           30.29          10.009           35.76 
        1.32541         30.0355         9.79236         35.3696 
        1.33772         29.4747         9.58098          34.989 
        1.35005         29.1043         9.37572         34.6363 
        1.36225         28.6854         9.17857         34.2923 
        1.37447         28.0449         8.98674         33.8778 
        1.38676         28.0337         8.79952         33.5879 
        1.39907         27.5745         8.61734         33.2555 
        1.41133         27.0632         8.44112         32.8703 
        1.42358         26.8017            8.27         32.5379 
        1.43591         26.4106         8.10246         32.2498 
        1.44818         26.1637         7.94049         31.8979 
        1.46037         25.8859         7.78393         31.5624 
        1.47263         25.6108         7.63072          31.316 
        1.48494         25.2246         7.48107         30.9777 
        1.49724          25.138         7.33555         30.6913 
        1.50952         24.6457         7.19421         30.4495 
        1.52178          24.342          7.0568         30.1216 
        1.53409         24.0727         6.92244         29.8574 
        1.54637         23.8397         6.79187         29.5429 
        1.55858         23.3129          6.6654         29.3006 
        1.57081         23.3141         6.54199         29.0548 
        1.58313         23.0378         6.42093         28.7655 
        1.59544         22.6096         6.30301           28.54 
        1.60767         22.3853         6.18882         28.2431 
        1.61994         22.0735         6.07706         28.0297 
        1.63225          21.999         5.96783         27.8325 
        1.64452         21.6241         5.86159         27.5892 
        1.65676         21.4263         5.75828         27.3259 
          1.669         21.2297         5.65738         27.1186 
        1.68133         20.8816         5.55827         26.8783 
        1.69363         20.6568         5.46182         26.5851 
        1.70585         20.4509         5.36828         26.4579 
        1.71809         20.1642         5.27674         26.1987 
        1.73038         20.0135         5.18705         26.0191 
        1.74268         19.8283          5.0994         25.7576 
        1.75493         19.5135         5.01417         25.5772 
        1.76714         19.4635         4.93111         25.3773 
        1.77942         19.2472         4.84951         25.1569 
        1.79173         18.8402         4.76956         24.9713 
        1.80402         18.6687         4.69157         24.8285 
         1.8163         18.5896         4.61537         24.5566 
         1.8286          18.302         4.54073         24.4067 
         1.8409         18.1128         4.46781         24.2248 
        1.85315         17.9661         4.39674         24.0401 
        1.86537         17.7206         4.32736         23.8591 
        1.87765          17.603         4.25921         23.6726 
        1.88995         17.3578         4.19237         23.4793 
        1.90221         17.2181         4.12721         23.3047 
        1.91445         17.0298         4.06353         23.1276 
        1.92674          16.858         4.00098         22.9607 
        1.93902         16.6592         3.93974         22.8217 
        1.95124         16.4304         3.88011         22.6965 
         1.9635         16.3052         3.82156         22.4807 
        1.97583         16.1475         3.76386         22.3042 
        1.98812         15.9949         3.70756         22.1764 
        2.00039         15.8688         3.65253         22.0094 
        2.01264         15.6978         3.59867         21.8702 
        2.02492         15.5374         3.54582         21.6815 
        2.03717         15.3494         3.49411         21.5415 
        2.04942         15.2054         3.44351         21.3813 
        2.06171         15.0934         3.39373         21.2346 
        2.07397         14.9549         3.34505         21.0861 
        2.08629         14.8193         3.29713         20.9435 
        2.09857         14.6877         3.25025         20.8045 
        2.11081         14.5032         3.20448         20.6692 
        2.12309         14.3538         3.15949         20.5182 
        2.13538         14.1965         3.11529         20.3729 
        2.14763         14.0702         3.07209         20.2474 
        2.15986         14.0377          3.0298         20.1291 
        2.17214         13.8534         2.98814         19.9825 
        2.18443         13.6832         2.94723         19.8473 
        2.19671         13.5948         2.90713         19.7035 
        2.20898         13.4536         2.86782         19.5858 
        2.22126         13.3228          2.8292         19.4608 
        2.23354         13.2732         2.79131         19.3202 
         2.2458         13.0965         2.75417          19.228 
        2.25807         12.9622         2.71768         19.0618 
        2.27035         12.8743         2.68182         18.9509 
        2.28263         12.7465         2.64662          18.826 
         2.2949         12.6615         2.61207         18.7204 
        2.30718         12.5633         2.57813         18.6132 
        2.31946         12.4273         2.54477         18.4804 
        2.33169         12.3125         2.51215          18.364 
        2.34393         12.2118         2.48006         18.2581 
        2.35622         12.0638         2.44842         18.1409 
        2.36847         11.9953         2.41742         18.0228 
        2.38076         11.8674         2.38686         17.9143 
        2.39305         11.7474         2.35684         17.7962 
        2.40534         11.6768         2.32734         17.6702 
        2.41762         11.5795         2.29834         17.5883 
        2.42989         11.4979         2.26988         17.4708 
        2.44216          11.389         2.24191         17.3542 
         2.4544         11.3232         2.21448         17.2456 
        2.46667         11.2219         2.18743         17.1531 
        2.47897         11.1066         2.16078          17.036 
        2.49124         11.0236         2.13464         16.9363 
        2.50349          10.931         2.10898         16.8295 
        2.51578         10.8472         2.08366         16.7472 
        2.52805         10.7689          2.0588         16.6429 
        2.54029         10.7011         2.03441         16.5446 
        2.55257         10.6426         2.01034         16.4413 
        2.56487         10.4742         1.98661         16.3403 
        2.57716          10.432          1.9633          16.235 
        2.58942         10.3739         1.94042         16.1582 
        2.60167         10.2951         1.91792         16.0647 
        2.61395         10.2485         1.89575         15.9645 
        2.62624         10.1449         1.87389         15.8746 
        2.63849         10.0682         1.85245          15.792 
        2.65073         10.0073         1.83137         15.6886 
        2.66302         9.93747         1.81054         15.6013 
         2.6753          9.8892         1.79005         15.5064 
        2.68756         9.83188         1.76991         15.4298 
        2.69983         9.74331         1.75008         15.3301 
        2.71213         9.69026          1.7305         15.2341 
        2.72441         9.62439         1.71126         15.1555 
        2.73665         9.60942         1.69236         15.0638 
         2.7489         9.53227         1.67376         14.9723 
        2.76118         9.43549         1.65537         14.8978 
        2.77349          9.4032         1.63722         14.8128 
        2.78576         9.35429         1.61942         14.7328 
        2.79802          9.3028         1.60188         14.6452 
        2.81031          9.2599         1.58457         14.5639 
        2.82259         9.22242         1.56752         14.4824 
        2.83483         9.15248         1.55078         14.4023 
         2.8471         9.11145         1.53426         14.3239 
         2.8594         9.09323         1.51793         14.2425 
         2.8717         9.04568         1.50184         14.1614 
        2.88396         8.99712         1.48604         14.0845 
        2.89619         8.94484          1.4705          14.009 
        2.90847         8.90904         1.45512         13.9308 
        2.92072         8.91148         1.43999         13.8471 
        2.93299         8.84775         1.42507         13.7783 
        2.94526          8.8402         1.41034          13.706 
        2.95753         8.80657         1.39583         13.6277 
        2.96982         8.76324         1.38149         13.5518 
        2.98209         8.75401         1.36739         13.4761 
        2.99436         8.73901         1.35347         13.4013 
        3.00666         8.70945         1.33972         13.3318 
        3.01894         8.68934         1.32619         13.2684 
        3.03119         8.68024         1.31287         13.1919 
        3.04345         8.63294         1.29973         13.1127 
        3.05573         8.66243         1.28674         13.0459 
          3.068          8.6358         1.27394          12.981 
        3.08026          8.6475         1.26133         12.9026 
        3.09254         8.64016         1.24887         12.8388 
        3.10483         8.63546         1.23657         12.7789 
         3.1171         8.64091         1.22446         12.7081 
        3.12933         8.65537         1.21254          12.638 
        3.14159         8.61641         1.20075         12.5719 
