# k  (h/Mpc)    Pcb(k)  (Mpc/h)^3    Pcb_linear(k) (Mpc/h)^3    Pcb_NL(k) (Mpc/h)^3   ShotnoiseSubtracted = false
      0.0156606         87.7527           88.89          88.482 
      0.0273761         76.6618         77.0008         76.8487 
      0.0384619         58.1907         58.0534         58.0552 
      0.0498308          45.893         45.6795          45.714 
      0.0625568         38.7588         38.8303         38.8158 
      0.0751274         32.9903         32.9947         32.9458 
      0.0867833         26.5494         26.5666         26.5625 
      0.0984825          21.167         21.0252         21.0601 
       0.111151         17.6703         17.5564          17.587 
       0.123864         15.8663         15.8222         15.8326 
       0.135742         14.2332         14.2284         14.2332 
        0.14762         12.1549         12.1662         12.1964 
       0.160083         10.1427         10.1414         10.1825 
       0.172465         8.86568         8.85159         8.89903 
       0.184281         8.17578         8.16015         8.20691 
       0.196406         7.51007         7.53591         7.56808 
       0.209011         6.69899         6.70509         6.74428 
       0.221538         5.87275         5.85966         5.91833 
       0.233611         5.26294          5.2429         5.30812 
       0.245665         4.87426           4.839         4.89569 
       0.258103         4.48823          4.5047         4.56008 
       0.270422         4.14982         4.13931         4.19216 
       0.282519         3.76749         3.75667         3.81518 
       0.294636          3.4574         3.42275         3.48476 
       0.306978         3.16311         3.16662         3.23026 
       0.319417         2.97542         2.96061         3.02214 
        0.33169         2.77413         2.76342         2.82247 
       0.343948         2.57947         2.56047         2.61914 
       0.356249         2.37643         2.37014         2.43798 
       0.368458          2.2232         2.21073         2.27041 
        0.38068         2.08509         2.07741          2.1368 
       0.392856         1.96303         1.95571         2.01565 
       0.405069         1.85335         1.83671         1.89316 
       0.417459          1.7183         1.72149         1.78118 
       0.429752         1.62358         1.61806         1.67669 
       0.441978          1.5372         1.52728         1.58952 
       0.454294         1.45078         1.44484         1.50355 
        0.46658         1.38011         1.36749         1.42474 
       0.478753         1.30669         1.29452         1.35134 
       0.490964         1.24194         1.22598         1.28642 
       0.503334         1.18056         1.16272         1.21908 
       0.515665         1.11623         1.10503         1.16447 
       0.527909         1.06954         1.05177          1.1065 
       0.540159         1.01411         1.00138         1.05515 
        0.55248        0.962025        0.953575          1.0049 
       0.564743        0.926551        0.909306        0.964618 
        0.57686        0.883864         0.86862        0.921635 
       0.589077        0.839179        0.830213        0.885159 
       0.601441         0.80876        0.793692        0.847316 
        0.61382        0.772615        0.759259        0.810846 
       0.626067        0.738171        0.727127        0.778166 
       0.638306        0.709919        0.696869        0.746832 
       0.650632        0.683087        0.668201        0.718944 
       0.662899        0.657219        0.641337         0.69024 
       0.675076        0.626016         0.61616        0.664949 
       0.687267        0.601862        0.592303        0.638599 
       0.699615        0.583951        0.569412         0.61522 
       0.711937        0.560498        0.547771        0.594731 
       0.724148        0.542767        0.527439        0.573295 
       0.736433        0.520848        0.508038        0.551992 
       0.748747        0.502307        0.489585        0.535187 
       0.761037        0.483452        0.472092        0.516174 
       0.773197        0.467265        0.455635        0.500304 
       0.785376        0.450011        0.439944        0.483347 
       0.797761        0.435689        0.424749        0.466574 
       0.810096        0.424417        0.410332        0.453578 
       0.822371        0.410454        0.396655        0.437915 
       0.834626        0.397443        0.383626         0.42404 
       0.846916        0.385078        0.371151        0.412695 
       0.859215        0.370006        0.359227        0.400651 
       0.871383        0.360193        0.347948          0.3882 
        0.88363        0.348691        0.337089        0.377019 
       0.895928        0.339737        0.326654        0.365686 
       0.908253        0.329682        0.316644        0.355445 
       0.920535        0.320145        0.307089        0.344842 
       0.932774        0.310728        0.297963        0.334593 
        0.94508        0.301862        0.289164        0.325753 
       0.957324        0.293909        0.280765         0.31782 
        0.96953        0.284263        0.272727        0.309056 
       0.981769        0.276608        0.264985        0.299968 
       0.994071        0.269661        0.257508        0.293358 
         1.0064        0.261892        0.250308        0.285219 
        1.01868        0.255534        0.243405        0.277996 
        1.03092        0.249626        0.236795        0.270345 
         1.0432        0.243536        0.230408        0.263821 
        1.05553        0.236266        0.224233        0.257743 
        1.06777        0.229796        0.218329        0.251504 
           1.08        0.225236        0.212645        0.245123 
        1.09227        0.218841        0.207146        0.239056 
         1.1046        0.213522        0.201821        0.233786 
         1.1169        0.208272        0.196694        0.228209 
        1.12915        0.202732        0.191771        0.222905 
        1.14142        0.199287        0.187007        0.217745 
        1.15365        0.194493         0.18242        0.212975 
        1.16585        0.189535        0.177999        0.207971 
        1.17807        0.186046         0.17372        0.203661 
        1.19037        0.180743        0.169554        0.198833 
        1.20276        0.177555        0.165497        0.194118 
        1.21504        0.173443        0.161605         0.19082 
        1.22728        0.170072        0.157855        0.185975 
        1.23954          0.1664        0.154215        0.182739 
        1.25184        0.163002        0.150683        0.178379 
        1.26414        0.159427        0.147261        0.174605 
        1.27632        0.155211        0.143976        0.171142 
         1.2886        0.151713        0.140769         0.16732 
        1.30093        0.148684        0.137648        0.164546 
        1.31316        0.145184        0.134645        0.161001 
        1.32541        0.142545        0.131731        0.158019 
        1.33772        0.139805        0.128888        0.154887 
        1.35005         0.13764        0.126126        0.151948 
        1.36225         0.13474        0.123474        0.148785 
        1.37447        0.132143        0.120894        0.146247 
        1.38676        0.129938        0.118375        0.143165 
        1.39907        0.127493        0.115924        0.140677 
        1.41133        0.124523        0.113554         0.13803 
        1.42358        0.122447        0.111252        0.135152 
        1.43591        0.120448        0.108998        0.133226 
        1.44818        0.118072        0.106819        0.130814 
        1.46037        0.115772        0.104713        0.128118 
        1.47263        0.113712        0.102652        0.126037 
        1.48494        0.111468        0.100639        0.123904 
        1.49724        0.109344       0.0986812        0.121748 
        1.50952        0.107593       0.0967798        0.119195 
        1.52178        0.105864       0.0949314        0.117303 
        1.53409        0.104333       0.0931239        0.115334 
        1.54637        0.102321       0.0913673        0.113244 
        1.55858        0.100299       0.0896661        0.111381 
        1.57081       0.0987728       0.0880058        0.109412 
        1.58313        0.097362       0.0863774        0.107826 
        1.59544       0.0959855       0.0847911        0.105891 
        1.60767       0.0944407       0.0832548        0.104188 
        1.61994       0.0924027       0.0817514        0.102642 
        1.63225       0.0906446        0.080282        0.101015 
        1.64452       0.0896556       0.0788529       0.0992483 
        1.65676       0.0885483       0.0774631       0.0977401 
          1.669       0.0871082       0.0761057       0.0960967 
        1.68133       0.0854394       0.0747724       0.0947133 
        1.69363       0.0839794       0.0734749       0.0932289 
        1.70585       0.0827646       0.0722166       0.0917919 
        1.71809       0.0814919       0.0709852       0.0903453 
        1.73038       0.0803227       0.0697786       0.0890154 
        1.74268       0.0787464       0.0685994       0.0875552 
        1.75493        0.078205       0.0674529       0.0864408 
        1.76714       0.0768526       0.0663356       0.0850853 
        1.77942       0.0759385       0.0652379       0.0838464 
        1.79173       0.0749211       0.0641623        0.082471 
        1.80402       0.0736726       0.0631132       0.0813537 
         1.8163       0.0726321       0.0620881        0.079992 
         1.8286       0.0715605       0.0610841       0.0791802 
         1.8409       0.0704015       0.0601031       0.0778685 
        1.85315       0.0697273        0.059147       0.0767475 
        1.86537       0.0683481       0.0582136       0.0756964 
        1.87765       0.0676531       0.0572969       0.0746175 
        1.88995         0.06685       0.0563978       0.0736603 
        1.90221       0.0661037       0.0555211        0.072573 
        1.91445       0.0649175       0.0546645       0.0716197 
        1.92674       0.0641939        0.053823       0.0706448 
        1.93902       0.0632099       0.0529992       0.0696036 
        1.95124       0.0624971       0.0521971       0.0686752 
         1.9635       0.0615947       0.0514095       0.0677291 
        1.97583       0.0609796       0.0506332       0.0667914 
        1.98812       0.0600916       0.0498759       0.0660636 
        2.00039        0.059414       0.0491355       0.0650771 
        2.01264       0.0586645        0.048411        0.064277 
        2.02492       0.0581151          0.0477       0.0634368 
        2.03717        0.057119       0.0470044       0.0626212 
        2.04942       0.0566978       0.0463237       0.0617754 
        2.06171       0.0558189       0.0456541       0.0609842 
        2.07397       0.0550228       0.0449992       0.0602479 
        2.08629       0.0544263       0.0443545       0.0594506 
        2.09857       0.0538857       0.0437239       0.0587273 
        2.11081       0.0533319       0.0431082       0.0579042 
        2.12309       0.0525404       0.0425029       0.0573163 
        2.13538       0.0520496       0.0419083       0.0565514 
        2.14763         0.05147       0.0413271       0.0558925 
        2.15986       0.0509264       0.0407583        0.055236 
        2.17214       0.0502294       0.0401979       0.0545325 
        2.18443       0.0498688       0.0396475       0.0538489 
        2.19671       0.0491648       0.0391081       0.0532648 
        2.20898       0.0487662       0.0385793        0.052572 
        2.22126       0.0480081       0.0380598       0.0519962 
        2.23354       0.0475833         0.03755        0.051415 
         2.2458       0.0470967       0.0370504       0.0506778 
        2.25807       0.0465508       0.0365595        0.050195 
        2.27035       0.0461545       0.0360771       0.0495913 
        2.28263       0.0455397       0.0356036       0.0490481 
         2.2949        0.045189       0.0351388       0.0484355 
        2.30718       0.0446952       0.0346822       0.0479058 
        2.31946       0.0443109       0.0342335       0.0473795 
        2.33169       0.0435901       0.0337947       0.0468215 
        2.34393       0.0435382       0.0333629       0.0463509 
        2.35622       0.0429207       0.0329372       0.0457766 
        2.36847       0.0426398       0.0325202       0.0452849 
        2.38076       0.0420556       0.0321092       0.0447963 
        2.39305       0.0418697       0.0317053       0.0443014 
        2.40534       0.0413783       0.0313084       0.0438256 
        2.41762       0.0409172       0.0309184       0.0433405 
        2.42989        0.040554       0.0305355       0.0428519 
        2.44216       0.0402322       0.0301592       0.0424139 
         2.4544       0.0398192       0.0297902       0.0419784 
        2.46667       0.0395553       0.0294264       0.0414913 
        2.47897       0.0390053       0.0290678       0.0410592 
        2.49124         0.03873       0.0287162       0.0406312 
        2.50349       0.0383347        0.028371       0.0401896 
        2.51578       0.0379953       0.0280304       0.0397688 
        2.52805       0.0378214        0.027696       0.0393691 
        2.54029       0.0373564       0.0273678       0.0389738 
        2.55257       0.0370663        0.027044       0.0385852 
        2.56487        0.036794       0.0267248       0.0381826 
        2.57716        0.036596       0.0264112       0.0377869 
        2.58942       0.0361452       0.0261034        0.037388 
        2.60167       0.0358284       0.0258008       0.0370156 
        2.61395       0.0355736       0.0255025       0.0366601 
        2.62624       0.0354534       0.0252085       0.0362971 
        2.63849       0.0350566       0.0249201       0.0359349 
        2.65073       0.0346717       0.0246364       0.0355683 
        2.66302       0.0345501       0.0243562       0.0352118 
         2.6753       0.0342747       0.0240806       0.0348729 
        2.68756       0.0341052       0.0238097       0.0345399 
        2.69983       0.0337587       0.0235429       0.0341604 
        2.71213       0.0335135       0.0232795       0.0338614 
        2.72441       0.0332105       0.0230207       0.0335578 
        2.73665       0.0330553       0.0227664       0.0332263 
         2.7489       0.0328101       0.0225161       0.0329062 
        2.76118       0.0326457       0.0222689       0.0325958 
        2.77349       0.0323113       0.0220247       0.0323007 
        2.78576       0.0322071       0.0217851         0.03201 
        2.79802       0.0319856       0.0215493       0.0316563 
        2.81031       0.0317463       0.0213164       0.0313951 
        2.82259       0.0314555        0.021087        0.031087 
        2.83483       0.0312073       0.0208619       0.0307877 
         2.8471       0.0311567       0.0206396       0.0305469 
         2.8594       0.0309465       0.0204199       0.0302695 
         2.8717       0.0307185       0.0202034       0.0299744 
        2.88396       0.0306584       0.0199909        0.029717 
        2.89619        0.030395       0.0197818       0.0294576 
        2.90847       0.0302783        0.019575       0.0291897 
        2.92072       0.0300602       0.0193714       0.0289078 
        2.93299       0.0298903       0.0191707       0.0286491 
        2.94526       0.0297854       0.0189726       0.0284106 
        2.95753       0.0295664       0.0187773       0.0281609 
        2.96982        0.029431       0.0185845       0.0278956 
        2.98209       0.0292419       0.0183948       0.0276452 
        2.99436       0.0291765       0.0182076       0.0274045 
        3.00666       0.0290224       0.0180226       0.0271633 
        3.01894       0.0289532       0.0178406       0.0269448 
        3.03119       0.0288297       0.0176614       0.0267117 
        3.04345         0.02868       0.0174846       0.0264838 
        3.05573       0.0286279       0.0173098       0.0262649 
          3.068       0.0284476       0.0171377       0.0260254 
        3.08026       0.0283417       0.0169681       0.0258131 
        3.09254       0.0282948       0.0168004       0.0255991 
        3.10483       0.0282003        0.016635       0.0253859 
         3.1171       0.0281552        0.016472       0.0251632 
        3.12933       0.0279387       0.0163117       0.0249332 
        3.14159       0.0278475       0.0161531       0.0247491 
