# k  (h/Mpc)    Pcb(k)  (Mpc/h)^3    Pcb_linear(k) (Mpc/h)^3    Pcb_NL(k) (Mpc/h)^3   ShotnoiseSubtracted = false
      0.0156606         87.9035         89.0427         88.6341 
      0.0273761         76.7934         77.1331         76.9806 
      0.0384619         58.2906         58.1531         58.1549 
      0.0498308         45.9717         45.7579         45.7925 
      0.0625568         38.8253         38.8969         38.8824 
      0.0751274         33.0469         33.0514         33.0024 
      0.0867833          26.595         26.6122          26.608 
      0.0984825         21.2033         21.0613         21.0962 
       0.111151         17.7007         17.5865         17.6171 
       0.123864         15.8935         15.8494         15.8598 
       0.135742         14.2576         14.2528         14.2577 
        0.14762         12.1758         12.1871         12.2173 
       0.160083         10.1601         10.1588            10.2 
       0.172465         8.88088         8.86678          8.9143 
       0.184281         8.18981         8.17416         8.22099 
       0.196406         7.52295         7.54884         7.58106 
       0.209011         6.71048          6.7166         6.75585 
       0.221538         5.88284         5.86972         5.92848 
       0.233611         5.27197         5.25189         5.31723 
       0.245665         4.88265         4.84731         4.90408 
       0.258103         4.49593         4.51243         4.56791 
       0.270422         4.15694         4.14641         4.19936 
       0.282519         3.77396         3.76312         3.82172 
       0.294636         3.46335         3.42863         3.49074 
       0.306978         3.16853         3.17206          3.2358 
       0.319417         2.98053         2.96569         3.02733 
        0.33169         2.77889         2.76816         2.82731 
       0.343948         2.58391         2.56487         2.62363 
       0.356249         2.38051         2.37421         2.44216 
       0.368458         2.22703         2.21452         2.27431 
        0.38068         2.08866         2.08097         2.14046 
       0.392856          1.9664         1.95906          2.0191 
       0.405069         1.85654         1.83986         1.89641 
       0.417459         1.72125         1.72444         1.78424 
       0.429752         1.62636         1.62083         1.67956 
       0.441978         1.53985          1.5299         1.59225 
       0.454294         1.45327         1.44732         1.50613 
        0.46658         1.38248         1.36984         1.42719 
       0.478753         1.30894         1.29674         1.35366 
       0.490964         1.24408         1.22808         1.28863 
       0.503334          1.1826         1.16471         1.22117 
       0.515665         1.11815         1.10692         1.16646 
       0.527909         1.07138         1.05357          1.1084 
       0.540159         1.01585          1.0031         1.05696 
        0.55248         0.96368        0.955211         1.00663 
       0.564743         0.92815        0.910866        0.966273 
        0.57686        0.885388         0.87011        0.923217 
       0.589077        0.840624        0.831637        0.886678 
       0.601441        0.810149        0.795054        0.848769 
        0.61382        0.773945        0.760562        0.812237 
       0.626067         0.73944        0.728375        0.779501 
       0.638306        0.711142        0.698065        0.748114 
       0.650632        0.684266        0.669348        0.720177 
       0.662899        0.658352        0.642437        0.691425 
       0.675076        0.627094        0.617217         0.66609 
       0.687267        0.602898         0.59332        0.639695 
       0.699615        0.584958        0.570388        0.616276 
       0.711937        0.561465        0.548711        0.595751 
       0.724148        0.543704        0.528344        0.574278 
       0.736433        0.521747         0.50891        0.552939 
       0.748747        0.503174        0.490425        0.536105 
       0.761037        0.484286        0.472902         0.51706 
       0.773197        0.468071        0.456417        0.501162 
       0.785376        0.450787        0.440699        0.484176 
       0.797761        0.436439        0.425478        0.467374 
       0.810096         0.42515        0.411036        0.454356 
       0.822371        0.411163        0.397335        0.438667 
       0.834626        0.398129        0.384284        0.424768 
       0.846916        0.385743        0.371788        0.413403 
       0.859215        0.370643        0.359843        0.401338 
       0.871383        0.360815        0.348545        0.388867 
        0.88363        0.349292        0.337667        0.377666 
       0.895928        0.340323        0.327215        0.366313 
       0.908253        0.330252        0.317187        0.356055 
       0.920535        0.320698        0.307616        0.345433 
       0.932774        0.311265        0.298474        0.335167 
        0.94508        0.302383         0.28966        0.326312 
       0.957324        0.294416        0.281247        0.318365 
        0.96953        0.284753        0.273195        0.309586 
       0.981769        0.277085         0.26544        0.300482 
       0.994071        0.270126         0.25795        0.293861 
         1.0064        0.262344        0.250737        0.285708 
        1.01868        0.255975        0.243823        0.278473 
        1.03092        0.250058        0.237202        0.270809 
         1.0432        0.243957        0.230803        0.264273 
        1.05553        0.236675        0.224617        0.258185 
        1.06777        0.230193        0.218704        0.251935 
           1.08        0.225625         0.21301        0.245543 
        1.09227        0.219219        0.207501        0.239466 
         1.1046        0.213891        0.202168        0.234187 
         1.1169        0.208632        0.197032          0.2286 
        1.12915        0.203082          0.1921        0.223287 
        1.14142        0.199631        0.187328        0.218119 
        1.15365        0.194829        0.182733         0.21334 
        1.16585        0.189863        0.178304        0.208328 
        1.17807        0.186368        0.174018        0.204011 
        1.19037        0.181055        0.169845        0.199174 
        1.20276        0.177861        0.165781        0.194451 
        1.21504        0.173743        0.161882        0.191147 
        1.22728        0.170367        0.158125        0.186294 
        1.23954        0.166688        0.154479        0.183053 
        1.25184        0.163284        0.150942        0.178685 
        1.26414        0.159703        0.147514        0.174904 
        1.27632        0.155479        0.144224        0.171435 
         1.2886        0.151975        0.141011        0.167607 
        1.30093        0.148941        0.137885        0.164828 
        1.31316        0.145435        0.134876        0.161277 
        1.32541        0.142792        0.131957         0.15829 
        1.33772        0.140046        0.129109        0.155153 
        1.35005        0.137878        0.126343        0.152208 
        1.36225        0.134973        0.123686        0.149041 
        1.37447        0.132371        0.121101        0.146498 
        1.38676        0.130163        0.118578        0.143411 
        1.39907        0.127714        0.116123        0.140918 
        1.41133        0.124738        0.113749        0.138267 
        1.42358        0.122658        0.111443        0.135384 
        1.43591        0.120657        0.109185        0.133454 
        1.44818        0.118276        0.107002        0.131038 
        1.46037        0.115972        0.104893        0.128338 
        1.47263        0.113909        0.102828        0.126254 
        1.48494        0.111661        0.100811        0.124117 
        1.49724        0.109532       0.0988505        0.121957 
        1.50952        0.107778       0.0969459        0.119399 
        1.52178        0.106047       0.0950942        0.117504 
        1.53409        0.104513       0.0932837        0.115531 
        1.54637        0.102498       0.0915241        0.113439 
        1.55858        0.100472       0.0898199        0.111572 
        1.57081       0.0989434       0.0881568        0.109599 
        1.58313       0.0975305       0.0865256        0.108011 
        1.59544       0.0961514       0.0849365        0.106073 
        1.60767       0.0946037       0.0833977        0.104366 
        1.61994       0.0925623       0.0818917        0.102818 
        1.63225       0.0908012       0.0804197        0.101188 
        1.64452       0.0898108       0.0789882       0.0994186 
        1.65676       0.0887014        0.077596       0.0979078 
          1.669       0.0872587       0.0762363       0.0962616 
        1.68133       0.0855868       0.0749007       0.0948758 
        1.69363       0.0841248        0.073601       0.0933888 
        1.70585       0.0829076       0.0723405       0.0919494 
        1.71809       0.0816328        0.071107       0.0905003 
        1.73038       0.0804614       0.0698984       0.0891681 
        1.74268       0.0788822       0.0687171       0.0877054 
        1.75493       0.0783402       0.0675687       0.0865891 
        1.76714       0.0769854       0.0664494       0.0852313 
        1.77942       0.0760699       0.0653498       0.0839903 
        1.79173       0.0750508       0.0642724       0.0826125 
        1.80402       0.0737996       0.0632214       0.0814933 
         1.8163       0.0727575       0.0621946       0.0801293 
         1.8286       0.0716843       0.0611889       0.0793161 
         1.8409        0.070523       0.0602062       0.0780021 
        1.85315       0.0698481       0.0592485       0.0768791 
        1.86537       0.0684657       0.0583135       0.0758263 
        1.87765       0.0677695       0.0573952       0.0747455 
        1.88995       0.0669656       0.0564945       0.0737867 
        1.90221       0.0662176       0.0556163       0.0726975 
        1.91445       0.0650296       0.0547583       0.0717425 
        1.92674       0.0643048       0.0539154        0.070766 
        1.93902        0.063319       0.0530901        0.069723 
        1.95124       0.0626048       0.0522866       0.0687931 
         1.9635       0.0617009       0.0514977       0.0678453 
        1.97583       0.0610848         0.05072        0.066906 
        1.98812       0.0601954       0.0499614       0.0661769 
        2.00039       0.0595166       0.0492198       0.0651888 
        2.01264       0.0587656        0.048494       0.0643873 
        2.02492       0.0582153       0.0477818       0.0635456 
        2.03717       0.0572176       0.0470851       0.0627287 
        2.04942       0.0567954       0.0464032       0.0618814 
        2.06171       0.0559153       0.0457324       0.0610888 
        2.07397       0.0551176       0.0450764       0.0603513 
        2.08629         0.05452       0.0444306       0.0595526 
        2.09857       0.0539783        0.043799       0.0588281 
        2.11081       0.0534239       0.0431822       0.0580035 
        2.12309       0.0526309       0.0425758       0.0574146 
        2.13538       0.0521393       0.0419802       0.0566485 
        2.14763       0.0515586       0.0413981       0.0559884 
        2.15986        0.051014       0.0408283       0.0553307 
        2.17214       0.0503158       0.0402669       0.0546261 
        2.18443       0.0499546       0.0397155       0.0539413 
        2.19671       0.0492496       0.0391752       0.0533562 
        2.20898       0.0488501       0.0386455       0.0526622 
        2.22126        0.048091       0.0381251       0.0520854 
        2.23354       0.0476651       0.0376144       0.0515032 
         2.2458       0.0471776        0.037114       0.0507648 
        2.25807       0.0466309       0.0366222       0.0502811 
        2.27035       0.0462338        0.036139       0.0496764 
        2.28263        0.045618       0.0356647       0.0491323 
         2.2949       0.0452666       0.0351991       0.0485186 
        2.30718        0.044772       0.0347417       0.0479879 
        2.31946       0.0443869       0.0342922       0.0474608 
        2.33169        0.043665       0.0338527       0.0469018 
        2.34393       0.0436127       0.0334201       0.0464305 
        2.35622       0.0429942       0.0329937       0.0458551 
        2.36847       0.0427128        0.032576       0.0453626 
        2.38076       0.0421277       0.0321643       0.0448731 
        2.39305       0.0419414       0.0317597       0.0443774 
        2.40534       0.0414494       0.0313621       0.0439008 
        2.41762       0.0409872       0.0309714       0.0434148 
        2.42989       0.0406236       0.0305879       0.0429254 
        2.44216       0.0403011        0.030211       0.0424866 
         2.4544       0.0398873       0.0298413       0.0420504 
        2.46667       0.0396229       0.0294769       0.0415625 
        2.47897       0.0390721       0.0291177       0.0411296 
        2.49124       0.0387966       0.0287655       0.0407009 
        2.50349       0.0384003       0.0284197       0.0402585 
        2.51578       0.0380604       0.0280785        0.039837 
        2.52805       0.0378862       0.0277435       0.0394367 
        2.54029       0.0374204       0.0274148       0.0390407 
        2.55257       0.0371298       0.0270904       0.0386514 
        2.56487        0.036857       0.0267707       0.0382481 
        2.57716       0.0366586       0.0264566       0.0378517 
        2.58942       0.0362069       0.0261482       0.0374521 
        2.60167       0.0358897        0.025845       0.0370791 
        2.61395       0.0356344       0.0255462        0.036723 
        2.62624       0.0355139       0.0252517       0.0363594 
        2.63849       0.0351163       0.0249628       0.0359965 
        2.65073       0.0347311       0.0246787       0.0356293 
        2.66302       0.0346089        0.024398       0.0352722 
         2.6753       0.0343333       0.0241219       0.0349327 
        2.68756       0.0341635       0.0238506       0.0345992 
        2.69983       0.0338163       0.0235833        0.034219 
        2.71213       0.0335706       0.0233195       0.0339195 
        2.72441       0.0332672       0.0230602       0.0336153 
        2.73665       0.0331115       0.0228055       0.0332833 
         2.7489        0.032866       0.0225548       0.0329627 
        2.76118       0.0327014       0.0223071       0.0326517 
        2.77349       0.0323664       0.0220625       0.0323561 
        2.78576       0.0322619       0.0218225        0.032065 
        2.79802       0.0320399       0.0215863       0.0317106 
        2.81031       0.0318003        0.021353       0.0314489 
        2.82259        0.031509       0.0211232       0.0311404 
        2.83483       0.0312605       0.0208977       0.0308405 
         2.8471       0.0312095        0.020675       0.0305993 
         2.8594       0.0309991       0.0204549       0.0303215 
         2.8717       0.0307708       0.0202381       0.0300258 
        2.88396       0.0307104       0.0200252        0.029768 
        2.89619       0.0304464       0.0198158       0.0295082 
        2.90847       0.0303298       0.0196086       0.0292397 
        2.92072       0.0301114       0.0194047       0.0289574 
        2.93299       0.0299411       0.0192036       0.0286982 
        2.94526       0.0298358       0.0190051       0.0284593 
        2.95753       0.0296166       0.0188096       0.0282092 
        2.96982       0.0294811       0.0186164       0.0279435 
        2.98209       0.0292914       0.0184264       0.0276926 
        2.99436       0.0292258       0.0182388       0.0274516 
        3.00666       0.0290715       0.0180535         0.02721 
        3.01894       0.0290021       0.0178712       0.0269911 
        3.03119       0.0288787       0.0176917       0.0267575 
        3.04345       0.0287286       0.0175146       0.0265293 
        3.05573       0.0286765       0.0173395         0.02631 
          3.068       0.0284958       0.0171671       0.0260701 
        3.08026       0.0283897       0.0169972       0.0258574 
        3.09254       0.0283428       0.0168292       0.0256431 
        3.10483       0.0282482       0.0166635       0.0254294 
         3.1171       0.0282031       0.0165003       0.0252063 
        3.12933       0.0279861       0.0163397        0.024976 
        3.14159       0.0278948       0.0161808       0.0247916 
