# k  (h/Mpc)    Pcb(k)  (Mpc/h)^3    Pcb_linear(k) (Mpc/h)^3    Pcb_NL(k) (Mpc/h)^3   ShotnoiseSubtracted = false
      0.0156606         474.567         475.191         473.017 
      0.0273761         413.953         411.414         410.616 
      0.0384619         314.359         310.133         310.167 
      0.0498308         247.529         244.014         244.219 
      0.0625568         208.957         207.421         207.356 
      0.0751274         178.687         176.246         176.008 
      0.0867833         143.178         141.907         141.887 
      0.0984825         114.604         112.307         112.474 
       0.111151         95.7329         93.7774         93.9209 
       0.123864         85.9282         84.5145           84.55 
       0.135742         77.0888          76.001         76.0049 
        0.14762         65.6259         64.9856         65.1042 
       0.160083         54.6693         54.1698         54.3447 
       0.172465         47.8198         47.2803         47.4799 
       0.184281          44.202         43.5872         43.7777 
       0.196406         40.5034         40.2528         40.3783 
       0.209011         36.2025          35.815         35.9719 
       0.221538         31.8353          31.299         31.5411 
       0.233611         28.4942         28.0046         28.2744 
       0.245665         26.5166         25.8473         26.0798 
       0.258103         24.1769         24.0616         24.2869 
       0.270422         22.4877         22.1099         22.3244 
       0.282519         20.4081          20.066         20.3058 
       0.294636         18.8832         18.2824         18.5374 
       0.306978         17.0681         16.9143         17.1757 
       0.319417         16.1228         15.8139         16.0661 
        0.33169         15.0082         14.7606         15.0021 
       0.343948         14.0296         13.6766         13.9163 
       0.356249         12.8669           12.66         12.9393 
       0.368458         12.1028         11.8084         12.0529 
        0.38068         11.2963         11.0963         11.3395 
       0.392856         10.6331         10.4463         10.6916 
       0.405069         10.0335         9.81067         10.0411 
       0.417459         9.26754         9.19521         9.44024 
       0.429752         8.78928         8.64274         8.88293 
       0.441978          8.3385         8.15784          8.4137 
       0.454294         7.82568         7.71751          7.9585 
        0.46658          7.5212         7.30436         7.53888 
       0.478753         7.06648          6.9146         7.14693 
       0.490964         6.75805         6.54849          6.7971 
       0.503334         6.42955         6.21056         6.44128 
       0.515665         6.05287         5.90241         6.14625 
       0.527909         5.80241         5.61795         5.84227 
       0.540159         5.49157         5.34882         5.56874 
        0.55248         5.19175         5.09345         5.30253 
       0.564743         5.04919         4.85699         5.08416 
        0.57686         4.81193         4.63967         4.85656 
       0.589077         4.53455         4.43452         4.66022 
       0.601441         4.35893         4.23945         4.45926 
        0.61382         4.17241         4.05553         4.26679 
       0.626067         3.98369          3.8839         4.09256 
       0.638306         3.83673         3.72228         3.92661 
       0.650632          3.7113         3.56915         3.77698 
       0.662899         3.55216         3.42565          3.6254 
       0.675076         3.37774         3.29117         3.49109 
       0.687267         3.24564         3.16374          3.3524 
       0.699615         3.16194         3.04147           3.228 
       0.711937         3.01809         2.92588         3.11821 
       0.724148          2.9365         2.81728         3.00444 
       0.736433         2.80108         2.71365         2.89242 
       0.748747         2.70588         2.61508         2.80201 
       0.761037         2.60931         2.52164         2.70139 
       0.773197         2.50786         2.43374         2.61638 
       0.785376         2.41768         2.34993         2.52711 
       0.797761         2.33717         2.26877         2.43885 
       0.810096         2.28041         2.19176         2.36832 
       0.822371         2.21424          2.1187          2.2864 
       0.834626         2.13909         2.04911         2.21295 
       0.846916         2.06409         1.98248         2.15266 
       0.859215         1.97891         1.91878         2.08841 
       0.871383         1.91987         1.85854         2.02215 
        0.88363         1.86492         1.80053         1.96337 
       0.895928         1.81869          1.7448         1.90373 
       0.908253         1.76233         1.69133          1.8495 
       0.920535          1.7108         1.64029         1.79378 
       0.932774          1.6544         1.59155         1.74034 
        0.94508         1.61101         1.54455         1.69276 
       0.957324         1.56824         1.49969         1.65038 
        0.96953         1.51421         1.45675         1.60419 
       0.981769         1.46604          1.4154         1.55683 
       0.994071          1.4319         1.37546         1.52157 
         1.0064          1.3907           1.337         1.47839 
        1.01868         1.34921         1.30013          1.4408 
        1.03092         1.32693         1.26482         1.40057 
         1.0432         1.28504         1.23071         1.36589 
        1.05553         1.24931         1.19772         1.33363 
        1.06777         1.21365         1.16619         1.30035 
           1.08         1.18903         1.13583          1.2673 
        1.09227         1.14828         1.10645         1.23545 
         1.1046         1.12221         1.07801         1.20739 
         1.1169         1.09304         1.05063         1.17832 
        1.12915         1.06625         1.02433         1.15012 
        1.14142         1.04511        0.998885         1.12341 
        1.15365         1.01987        0.974382         1.09774 
        1.16585        0.993771        0.950768         1.07152 
        1.17807        0.977717        0.927912         1.04912 
        1.19037        0.939681        0.905659         1.02382 
        1.20276        0.923015        0.883988        0.999101 
        1.21504        0.903908          0.8632        0.981513 
        1.22728        0.887665        0.843168        0.956352 
        1.23954        0.864638        0.823727        0.938652 
        1.25184        0.849136        0.804864        0.916427 
        1.26414        0.828581        0.786585        0.896914 
        1.27632        0.803903        0.769039        0.877916 
         1.2886         0.78636        0.751907        0.858356 
        1.30093        0.766308        0.735238        0.843659 
        1.31316         0.74498        0.719197        0.825111 
        1.32541        0.733156        0.703632        0.809473 
        1.33772        0.720585        0.688444        0.793041 
        1.35005        0.708121        0.673695        0.777533 
        1.36225        0.691119        0.659529        0.761203 
        1.37447        0.676519        0.645744        0.747716 
        1.38676        0.663826        0.632292        0.731876 
        1.39907        0.649784        0.619201        0.718434 
        1.41133        0.633519        0.606539        0.704832 
        1.42358        0.625518        0.594243        0.689994 
        1.43591        0.611623        0.582204        0.679143 
        1.44818        0.599603        0.570566        0.666914 
        1.46037        0.586339        0.559316         0.65296 
        1.47263         0.57547        0.548308        0.641909 
        1.48494        0.565004        0.537554        0.630971 
        1.49724        0.554203        0.527098        0.619722 
        1.50952        0.542125        0.516942        0.606331 
        1.52178        0.532134        0.507068         0.59627 
        1.53409        0.523297        0.497414        0.586306 
        1.54637        0.510427        0.488031        0.575431 
        1.55858         0.50333        0.478944        0.565562 
        1.57081        0.496485        0.470076        0.555489 
        1.58313        0.485558        0.461378        0.546785 
        1.59544        0.477916        0.452905        0.536984 
        1.60767        0.469397        0.444699        0.528103 
        1.61994          0.4591        0.436669        0.520059 
        1.63225        0.450497         0.42882        0.511455 
        1.64452        0.444643        0.421186        0.502393 
        1.65676         0.43779        0.413763        0.494512 
          1.669         0.43019        0.406513        0.486113 
        1.68133        0.421365        0.399391        0.478658 
        1.69363        0.414017         0.39246        0.471229 
        1.70585         0.40768        0.385739        0.463387 
        1.71809        0.400027        0.379162        0.456037 
        1.73038        0.393834        0.372717        0.449224 
        1.74268        0.385691        0.366418         0.44154 
        1.75493        0.382632        0.360294        0.435731 
        1.76714        0.374345        0.354326        0.428853 
        1.77942        0.369002        0.348463         0.42243 
        1.79173         0.36315        0.342718        0.415161 
        1.80402        0.356724        0.337114         0.40956 
         1.8163        0.352004        0.331639         0.40238 
         1.8286        0.344427        0.326276         0.39804 
         1.8409        0.340588        0.321036        0.391277 
        1.85315        0.335617        0.315929        0.385569 
        1.86537        0.328161        0.310943         0.37997 
        1.87765        0.323985        0.306047        0.374684 
        1.88995        0.320489        0.301244        0.369493 
        1.90221         0.31575        0.296561        0.363949 
        1.91445         0.31021        0.291986        0.359026 
        1.92674        0.305239        0.287491        0.353854 
        1.93902        0.299865        0.283091        0.348602 
        1.95124        0.295561        0.278806        0.343802 
         1.9635        0.292253          0.2746        0.338926 
        1.97583        0.288108        0.270453        0.334187 
        1.98812        0.283724        0.266408        0.330146 
        2.00039        0.280943        0.262454        0.325219 
        2.01264         0.27643        0.258583        0.321092 
        2.02492        0.272756        0.254786        0.316646 
        2.03717        0.267335         0.25107        0.312462 
        2.04942        0.265005        0.247434        0.308178 
        2.06171        0.260815        0.243858        0.304065 
        2.07397         0.25664         0.24036        0.300222 
        2.08629        0.254144        0.236916        0.296159 
        2.09857        0.250105        0.233548        0.292392 
        2.11081        0.246371        0.230259        0.288146 
        2.12309        0.243436        0.227026        0.285125 
        2.13538        0.239936         0.22385        0.281228 
        2.14763          0.2376        0.220746        0.277814 
        2.15986         0.23358        0.217707        0.274369 
        2.17214        0.230849        0.214714        0.270841 
        2.18443        0.228541        0.211774        0.267405 
        2.19671        0.225026        0.208893        0.264337 
        2.20898         0.22292        0.206068        0.260775 
        2.22126         0.21919        0.203293        0.257827 
        2.23354        0.217306         0.20057        0.254767 
         2.2458        0.214532        0.197902        0.251049 
        2.25807        0.212066         0.19528        0.248507 
        2.27035        0.208852        0.192703        0.245502 
        2.28263        0.206393        0.190174        0.242665 
         2.2949        0.204375        0.187691         0.23945 
        2.30718        0.201285        0.185252        0.236738 
        2.31946        0.200152        0.182856        0.234047 
        2.33169        0.196621        0.180512        0.231267 
        2.34393        0.194385        0.178205        0.228806 
        2.35622        0.192666        0.175932        0.225959 
        2.36847        0.191008        0.173704        0.223417 
        2.38076        0.188551        0.171508        0.220924 
        2.39305        0.186032        0.169351         0.21832 
        2.40534         0.18388        0.167231         0.21583 
        2.41762        0.182524        0.165148        0.213413 
        2.42989          0.1799        0.163103        0.210933 
        2.44216        0.178001        0.161093        0.208685 
         2.4544        0.176195        0.159122        0.206441 
        2.46667        0.174139        0.157179        0.203995 
        2.47897        0.172119        0.155264        0.201722 
        2.49124        0.170465        0.153386        0.199574 
        2.50349        0.168807        0.151541        0.197297 
        2.51578         0.16678        0.149722        0.195128 
        2.52805        0.165616        0.147936        0.193103 
        2.54029        0.164284        0.146183        0.191102 
        2.55257        0.162325        0.144453          0.1891 
        2.56487        0.160715        0.142749        0.187068 
        2.57716        0.159358        0.141074        0.185017 
        2.58942        0.157554        0.139429        0.182988 
        2.60167        0.156241        0.137813        0.181145 
        2.61395        0.154927        0.136219        0.179244 
        2.62624        0.153348        0.134649        0.177412 
        2.63849        0.152062        0.133108        0.175583 
        2.65073         0.15032        0.131594        0.173763 
        2.66302        0.149373        0.130097          0.1719 
         2.6753        0.147897        0.128624        0.170183 
        2.68756        0.147034        0.127178        0.168489 
        2.69983        0.145408        0.125752        0.166565 
        2.71213        0.143984        0.124346        0.165046 
        2.72441         0.14279        0.122963        0.163472 
        2.73665        0.141793        0.121605        0.161811 
         2.7489        0.141489        0.120268        0.160211 
        2.76118        0.140213        0.118947        0.158592 
        2.77349        0.138547        0.117643        0.157112 
        2.78576        0.137921        0.116364        0.155675 
        2.79802        0.136596        0.115104        0.153841 
        2.81031        0.135847         0.11386        0.152476 
        2.82259        0.134728        0.112634        0.151007 
        2.83483        0.133604        0.111432        0.149446 
         2.8471        0.132901        0.110245        0.148201 
         2.8594        0.132444        0.109071        0.146812 
         2.8717        0.131262        0.107915        0.145293 
        2.88396         0.13084         0.10678        0.143992 
        2.89619        0.129993        0.105663         0.14268 
        2.90847        0.129259        0.104558        0.141289 
        2.92072        0.128084        0.103471        0.139896 
        2.93299        0.127667        0.102399        0.138612 
        2.94526        0.126942         0.10134        0.137382 
        2.95753        0.125935        0.100298        0.136084 
        2.96982        0.125646       0.0992677        0.134749 
        2.98209        0.124745       0.0982543        0.133528 
        2.99436        0.124715       0.0972542        0.132326 
        3.00666        0.124159       0.0962663         0.13105 
        3.01894        0.123712       0.0952941        0.129932 
        3.03119        0.123102       0.0943367        0.128796 
        3.04345        0.122651       0.0933924        0.127632 
        3.05573        0.122674        0.092459        0.126487 
          3.068        0.122178       0.0915395        0.125324 
        3.08026        0.121553       0.0906334        0.124277 
        3.09254        0.121722       0.0897379        0.123174 
        3.10483        0.121366       0.0888544          0.1221 
         3.1171         0.12101       0.0879839        0.120984 
        3.12933        0.120827       0.0871275        0.119794 
        3.14159        0.120465       0.0862806        0.118876 
