# k  (h/Mpc)    Pcb(k)  (Mpc/h)^3    Pcb_linear(k) (Mpc/h)^3    Pcb_NL(k) (Mpc/h)^3   ShotnoiseSubtracted = false
      0.0156606         3525.33         3528.54         3510.75 
      0.0273761         3060.04         3053.01         3043.61 
      0.0384619         2325.33         2300.85         2296.97 
      0.0498308         1820.74         1810.09          1807.6 
      0.0625568         1536.19         1538.53            1535 
      0.0751274         1332.99         1307.23         1301.07 
      0.0867833          1055.1         1052.51          1051.6 
      0.0984825         857.746         832.952         836.735 
       0.111151         719.266         695.515         699.232 
       0.123864         646.163          626.81         629.734 
       0.135742         581.009         563.664         566.607 
        0.14762         494.066         481.965         488.888 
       0.160083         410.169         401.748         409.611 
       0.172465         362.137         350.652          360.14 
       0.184281          335.71         323.261         333.346 
       0.196406         306.143         298.531         306.354 
       0.209011         276.602         265.617         274.439 
       0.221538         246.286         232.125         244.459 
       0.233611         222.615         207.692         221.414 
       0.245665         209.165         191.692          203.91 
       0.258103         188.878         178.449          190.62 
       0.270422         177.162         163.975         175.836 
       0.282519         160.837         148.816          161.43 
       0.294636         154.369         135.588         148.895 
       0.306978         136.343         125.442         139.213 
       0.319417         130.251         117.281         130.582 
        0.33169         121.165         109.469         122.324 
       0.343948         115.276          101.43         114.581 
       0.356249          106.04         93.8902          108.15 
       0.368458         101.434         87.5751         100.844 
        0.38068         95.3403         82.2938          95.438 
       0.392856         88.9984         77.4729         90.7191 
       0.405069         84.3238         72.7589         85.7171 
       0.417459          79.327         68.1945         81.1276 
       0.429752         76.0615         64.0972         77.0759 
       0.441978         72.5328          60.501          73.913 
       0.454294          67.468         57.2354         69.9717 
        0.46658         67.1485         54.1713         66.8951 
       0.478753         62.4518         51.2807         64.0407 
       0.490964         60.4199         48.5655         61.4381 
       0.503334         57.9138         46.0593         58.6656 
       0.515665         55.2464          43.774         56.7857 
       0.527909         52.9269         41.6643         53.8172 
       0.540159         50.8738         39.6684          51.866 
        0.55248         47.7137         37.7745         49.7503 
       0.564743         46.9953         36.0208         48.1366 
        0.57686         45.4895         34.4091         46.3674 
       0.589077         42.9461         32.8877         44.9146 
       0.601441         41.5682          31.441         43.3454 
        0.61382         40.1988         30.0769         41.6832 
       0.626067         38.5657         28.8041         40.4621 
       0.638306         37.3579         27.6055         39.0288 
       0.650632           36.26         26.4698         37.7641 
       0.662899         34.9613         25.4056         36.5174 
       0.675076         33.4125         24.4083         35.4025 
       0.687267         32.9939         23.4632         34.3052 
       0.699615         31.8225         22.5564         33.4183 
       0.711937         30.3187         21.6991         32.2977 
       0.724148         30.1799         20.8937         31.5612 
       0.736433         28.4403         20.1252          30.585 
       0.748747         28.0206         19.3942         29.7539 
       0.761037         27.2758         18.7012          29.018 
       0.773197          26.469         18.0493         28.3063 
       0.785376         25.4503         17.4277         27.5646 
       0.797761         24.9958         16.8258         26.8875 
       0.810096         24.4318         16.2547         26.2261 
       0.822371         23.7759         15.7129         25.4992 
       0.834626         23.0512         15.1968         24.9982 
       0.846916          22.401         14.7026         24.3626 
       0.859215         21.6243         14.2302         23.8068 
       0.871383         21.2792         13.7834         23.3278 
        0.88363           20.73         13.3533         22.8115 
       0.895928         20.3048         12.9399         22.2375 
       0.908253         19.8403         12.5434         21.8287 
       0.920535         19.3134         12.1649         21.3315 
       0.932774         19.0091         11.8034         20.8367 
        0.94508         18.4561         11.4548         20.4338 
       0.957324         18.1155         11.1221         20.0476 
        0.96953         17.5428         10.8037         19.6161 
       0.981769         17.3843          10.497         19.2623 
       0.994071          16.895         10.2008         18.8598 
         1.0064         16.4419         9.91557         18.5208 
        1.01868         16.1227         9.64214         18.1882 
        1.03092         15.9386         9.38029         17.8249 
         1.0432         15.3887         9.12726         17.4743 
        1.05553         15.1461         8.88263         17.2419 
        1.06777         14.7085         8.64877         16.8605 
           1.08         14.4444         8.42361         16.5881 
        1.09227         14.1785         8.20576         16.3229 
         1.1046         13.9566         7.99484         16.0031 
         1.1169         13.5939         7.79174         15.7298 
        1.12915         13.5292         7.59673         15.5186 
        1.14142         13.0219         7.40801         15.2318 
        1.15365         12.9257         7.22628         14.9829 
        1.16585         12.7665         7.05116         14.7786 
        1.17807         12.3865         6.88165         14.4921 
        1.19037         12.2267         6.71662         14.3064 
        1.20276         11.9708          6.5559         14.0656 
        1.21504         11.8021         6.40173         13.8751 
        1.22728         11.5064         6.25317         13.6449 
        1.23954         11.3477         6.10898         13.4584 
        1.25184         11.1316         5.96909         13.2622 
        1.26414         10.9813         5.83353         13.0448 
        1.27632         10.7256         5.70341         12.8627 
         1.2886         10.6141         5.57635         12.6921 
        1.30093         10.3896         5.45273         12.5573 
        1.31316         10.2206         5.33376         12.3446 
        1.32541          10.067         5.21833         12.2148 
        1.33772         9.87455         5.10569         12.0204 
        1.35005         9.76211          4.9963         11.8767 
        1.36225         9.57927         4.89125         11.6988 
        1.37447         9.41989         4.78902         11.5607 
        1.38676         9.27111         4.68925         11.4224 
        1.39907         9.10888         4.59217         11.2688 
        1.41133         8.98308         4.49826         11.1306 
        1.42358         8.81295         4.40707         10.9794 
        1.43591         8.71895         4.31779         10.8707 
        1.44818         8.53789         4.23148         10.7337 
        1.46037         8.44172         4.14804         10.5902 
        1.47263         8.30163          4.0664         10.4851 
        1.48494         8.22698         3.98665         10.3348 
        1.49724         8.06552          3.9091         10.2343 
        1.50952          8.0257         3.83378         10.1196 
        1.52178          7.8575         3.76056         9.99438 
        1.53409         7.71606         3.68896         9.87642 
        1.54637         7.65339         3.61937         9.75368 
        1.55858         7.56761         3.55198         9.65442 
        1.57081         7.38931         3.48621         9.56471 
        1.58313         7.34144          3.4217         9.45498 
        1.59544         7.19032         3.35887         9.36183 
        1.60767         7.11811         3.29801         9.24967 
        1.61994         7.01548         3.23845         9.16627 
        1.63225         6.92315         3.18025         9.06829 
        1.64452         6.81452         3.12363         8.97407 
        1.65676         6.72443         3.06858         8.88146 
          1.669         6.67561         3.01481         8.78754 
        1.68133         6.52742         2.96199         8.69621 
        1.69363         6.46687         2.91059          8.6207 
        1.70585         6.38033         2.86075         8.52982 
        1.71809         6.30779         2.81197         8.45119 
        1.73038         6.24712         2.76417         8.37155 
        1.74268         6.15759         2.71746         8.29174 
        1.75493         6.06419         2.67204         8.19781 
        1.76714         6.04148         2.62778         8.13328 
        1.77942         5.94417          2.5843         8.04697 
        1.79173         5.85891         2.54169           7.972 
        1.80402         5.81164         2.50013         7.90126 
         1.8163         5.74616         2.45952         7.83822 
         1.8286         5.65309         2.41975          7.7669 
         1.8409         5.58387         2.38089          7.7028 
        1.85315         5.52044         2.34302         7.62087 
        1.86537         5.48152         2.30604         7.55954 
        1.87765         5.40398         2.26973         7.48894 
        1.88995         5.31522         2.23411         7.43065 
        1.90221         5.27898         2.19938         7.35808 
        1.91445         5.20977         2.16545         7.31213 
        1.92674          5.1695         2.13211         7.23442 
        1.93902         5.10924         2.09948         7.17782 
        1.95124         5.04526          2.0677         7.10911 
         1.9635         5.00256         2.03651         7.06261 
        1.97583         4.94909         2.00575         7.00097 
        1.98812         4.88508         1.97575         6.93342 
        2.00039         4.83127         1.94643         6.89012 
        2.01264         4.78814         1.91772         6.83614 
        2.02492         4.74164         1.88956         6.77727 
        2.03717         4.68465         1.86201          6.7228 
        2.04942         4.61681         1.83504         6.67623 
        2.06171         4.58501         1.80852         6.62106 
        2.07397         4.54307         1.78257          6.5684 
        2.08629         4.49493         1.75703         6.52155 
        2.09857         4.44242         1.73205         6.46945 
        2.11081         4.40224         1.70766         6.42597 
        2.12309         4.35411         1.68369         6.36781 
        2.13538         4.31227         1.66013         6.32978 
        2.14763         4.27221         1.63711         6.27988 
        2.15986         4.23981         1.61458         6.23459 
        2.17214         4.19095         1.59238         6.18127 
        2.18443         4.15727         1.57057         6.13957 
        2.19671         4.10533          1.5492         6.09602 
        2.20898          4.0692         1.52826         6.05518 
        2.22126         4.03781         1.50768         6.00875 
        2.23354         3.99448         1.48748         5.96259 
         2.2458          3.9647         1.46769         5.91814 
        2.25807         3.92736         1.44825          5.8825 
        2.27035         3.88943         1.42914         5.84447 
        2.28263         3.85677         1.41038         5.80145 
         2.2949         3.82327         1.39197         5.76606 
        2.30718         3.78924         1.37388         5.73356 
        2.31946         3.76371         1.35611         5.69299 
        2.33169          3.7227         1.33872          5.6492 
        2.34393         3.70613         1.32162         5.61207 
        2.35622         3.67644         1.30476         5.57246 
        2.36847         3.63654         1.28824         5.53636 
        2.38076         3.61628         1.27195         5.49844 
        2.39305         3.57236         1.25596         5.45955 
        2.40534         3.54918         1.24023         5.42589 
        2.41762         3.50632         1.22478         5.39717 
        2.42989         3.49539         1.20962         5.35966 
        2.44216         3.47557         1.19471         5.32778 
         2.4544         3.43469         1.18009         5.29172 
        2.46667         3.41792         1.16568         5.25931 
        2.47897         3.38334         1.15148         5.22537 
        2.49124         3.35402         1.13755         5.19236 
        2.50349          3.3411         1.12387         5.16412 
        2.51578         3.30131         1.11038         5.12912 
        2.52805         3.28668         1.09713         5.09767 
        2.54029         3.26481         1.08413         5.06736 
        2.55257         3.24819         1.07131         5.03877 
        2.56487         3.21857         1.05866         5.00335 
        2.57716         3.20993         1.04624         4.97416 
        2.58942         3.17252         1.03404         4.94589 
        2.60167         3.15636         1.02206          4.9144 
        2.61395         3.12525         1.01024         4.88774 
        2.62624         3.12631        0.998594         4.86102 
        2.63849         3.09427        0.987168         4.82845 
        2.65073         3.07402        0.975934         4.79971 
        2.66302         3.05975        0.964834          4.7731 
         2.6753         3.04526        0.953914         4.74568 
        2.68756          3.0162        0.943185         4.72026 
        2.69983         3.00378        0.932614         4.68996 
        2.71213         2.99495        0.922182         4.66322 
        2.72441         2.97661        0.911929         4.63781 
        2.73665         2.95945        0.901856         4.61107 
         2.7489         2.93655        0.891941         4.58847 
        2.76118         2.92171        0.882145         4.56732 
        2.77349         2.91944        0.872473         4.53726 
        2.78576         2.90235        0.862984          4.5116 
        2.79802         2.89461        0.853641         4.48891 
        2.81031         2.87389        0.844414         4.46312 
        2.82259          2.8604        0.835328         4.43839 
        2.83483         2.85854        0.826409         4.41537 
         2.8471         2.84151        0.817604         4.39152 
         2.8594         2.83443          0.8089         4.36989 
         2.8717         2.82035        0.800326         4.34421 
        2.88396          2.8141        0.791908         4.31965 
        2.89619          2.7897        0.783626         4.29877 
        2.90847         2.78901        0.775432         4.27264 
        2.92072          2.7885        0.767368         4.25219 
        2.93299         2.77977        0.759415         4.23017 
        2.94526         2.78002        0.751568         4.20863 
        2.95753         2.76044        0.743834         4.18691 
        2.96982         2.74991        0.736196         4.16496 
        2.98209          2.7545         0.72868          4.1445 
        2.99436         2.74423        0.721263         4.12282 
        3.00666         2.75115        0.713937         4.10257 
        3.01894         2.74187        0.706727         4.07816 
        3.03119         2.74429        0.699627         4.05842 
        3.04345         2.73649        0.692623         4.04049 
        3.05573         2.73833        0.685701         4.01995 
          3.068          2.7362        0.678882         4.00042 
        3.08026         2.74369        0.672162         3.97977 
        3.09254         2.74018        0.665521         3.95882 
        3.10483         2.74408        0.658968         3.94029 
         3.1171         2.74526        0.652512         3.92226 
        3.12933         2.75307        0.646161         3.90158 
        3.14159         2.74799         0.63988         3.88022 
