# k  (h/Mpc)    Pcb(k)  (Mpc/h)^3    Pcb_linear(k) (Mpc/h)^3    Pcb_NL(k) (Mpc/h)^3   ShotnoiseSubtracted = false
      0.0156606         1614.57         1615.38          1607.7 
      0.0273761         1404.99         1398.08         1394.79 
      0.0384619          1067.5         1053.76         1053.14 
      0.0498308         838.253         829.054         829.074 
      0.0625568         707.334         704.701         703.999 
      0.0751274         609.267         598.774         597.227 
      0.0867833         485.174         482.106         481.952 
      0.0984825         391.231         381.539         382.623 
       0.111151          327.23         318.588          319.61 
       0.123864          293.87         287.118         287.781 
       0.135742          263.79         258.194         258.806 
        0.14762          224.09         220.772         222.354 
       0.160083         186.248         184.028         185.884 
       0.172465         163.591         160.622         162.823 
       0.184281         151.565         148.075         150.388 
       0.196406         138.398         136.748         138.485 
       0.209011         124.251         121.671         123.678 
       0.221538         109.877          106.33         109.164 
       0.233611         98.6631         95.1376         98.2795 
       0.245665          92.407         87.8086         90.5901 
       0.258103         83.3948         81.7425         84.5048 
       0.270422         78.1641          75.112         77.7739 
       0.282519         70.8909         68.1684         71.0422 
       0.294636         66.7313         62.1091         65.1388 
       0.306978         59.4029         57.4614         60.5829 
       0.319417         56.4942         53.7232         56.7482 
        0.33169         52.5016         50.1449         53.0644 
       0.343948         49.5517         46.4622         49.3959 
       0.356249         45.3541         43.0085         46.2916 
       0.368458         43.0368         40.1157         43.0839 
        0.38068         40.1945         37.6965         40.6461 
       0.392856          37.694         35.4881         38.4659 
       0.405069         35.6092         33.3288         36.1792 
       0.417459         33.0467          31.238         34.1684 
       0.429752         31.5435         29.3611         32.2716 
       0.441978         29.9778         27.7138           30.76 
       0.454294         27.9477         26.2179         29.1013 
        0.46658         27.3997         24.8144         27.6597 
       0.478753         25.5439         23.4903         26.3349 
       0.490964         24.5822         22.2465         25.1896 
       0.503334         23.4815         21.0985         23.9106 
       0.515665         22.1624         20.0517         22.9898 
       0.527909         21.2164         19.0853         21.8005 
       0.540159         20.2018          18.171         20.8677 
        0.55248          18.906         17.3035         19.9249 
       0.564743         18.5991         16.5002         19.2217 
        0.57686         17.8757         15.7619          18.419 
       0.589077         16.7952         15.0649         17.7688 
       0.601441         16.1326         14.4022         17.0636 
        0.61382         15.5158         13.7774         16.3508 
       0.626067         14.8713         13.1944         15.7671 
       0.638306         14.3345         12.6453         15.1586 
       0.650632         13.9451         12.1251         14.6536 
       0.662899         13.2694         11.6376            14.1 
       0.675076         12.6312         11.1808         13.6127 
       0.687267         12.3266         10.7479         13.1131 
       0.699615         11.9411         10.3325         12.6858 
       0.711937         11.3172         9.93979         12.2851 
       0.724148         11.1923         9.57084         11.8996 
       0.736433          10.565         9.21879         11.4846 
       0.748747         10.2891         8.88394         11.1618 
       0.761037         10.0281         8.56652         10.8153 
       0.773197         9.58914          8.2679         10.5148 
       0.785376         9.26132         7.98317         10.1917 
       0.797761         8.99148         7.70745         9.87149 
       0.810096         8.74649         7.44584         9.63324 
       0.822371         8.52088         7.19764         9.32038 
       0.834626         8.23055         6.96122         9.07083 
       0.846916         7.94189         6.73486         8.83065 
       0.859215         7.64152         6.51849         8.60325 
       0.871383         7.44596         6.31382         8.38451 
        0.88363         7.25615         6.11677         8.15632 
       0.895928         7.09686         5.92742         7.93294 
       0.908253         6.88212         5.74578         7.73759 
       0.920535         6.64762         5.57239         7.53158 
       0.932774         6.50975          5.4068         7.31684 
        0.94508         6.29825         5.24713         7.16619 
       0.957324         6.14743         5.09473         7.01306 
        0.96953         5.93256         4.94887         6.83921 
       0.981769         5.80768         4.80838         6.65994 
       0.994071         5.68811          4.6727         6.52089 
         1.0064         5.48958         4.54205         6.37212 
        1.01868         5.34875          4.4168          6.2241 
        1.03092         5.24986         4.29686         6.07544 
         1.0432         5.05437         4.18095          5.9462 
        1.05553         4.95953         4.06889         5.82941 
        1.06777         4.80668         3.96177         5.70772 
           1.08         4.72548         3.85863           5.579 
        1.09227         4.59362         3.75884         5.45726 
         1.1046         4.48675         3.66222         5.34335 
         1.1169         4.34272         3.56919         5.23661 
        1.12915         4.30605         3.47986         5.14454 
        1.14142         4.15777         3.39341         5.02536 
        1.15365         4.07325         3.31017         4.93354 
        1.16585         4.00607         3.22995         4.84423 
        1.17807         3.91522          3.1523         4.73922 
        1.19037         3.78887          3.0767         4.64841 
        1.20276           3.711         3.00308         4.55344 
        1.21504         3.63159         2.93246         4.48301 
        1.22728         3.54781         2.86441          4.3871 
        1.23954         3.48599         2.79836         4.32611 
        1.25184         3.40319         2.73428         4.23448 
        1.26414         3.34921         2.67218         4.15165 
        1.27632         3.24268         2.61258         4.09318 
         1.2886         3.20443         2.55437         4.01495 
        1.30093         3.11792         2.49775         3.95458 
        1.31316         3.03226         2.44325         3.88007 
        1.32541         2.99393         2.39038         3.82237 
        1.33772         2.94087         2.33878         3.75259 
        1.35005         2.88134         2.28867         3.69318 
        1.36225          2.8221         2.24055         3.62642 
        1.37447         2.76204         2.19372         3.57732 
        1.38676         2.70255         2.14802         3.51174 
        1.39907         2.64132         2.10355         3.46408 
        1.41133         2.59641         2.06053         3.40822 
        1.42358         2.55934         2.01876         3.34752 
        1.43591         2.51383         1.97786         3.31088 
        1.44818         2.45028         1.93833         3.25663 
        1.46037         2.39758         1.90011         3.20262 
        1.47263         2.35422         1.86271         3.15844 
        1.48494         2.31982         1.82618         3.11125 
        1.49724         2.26967         1.79065         3.06305 
        1.50952         2.25501         1.75615         3.01883 
        1.52178         2.19401         1.72261         2.98047 
        1.53409         2.15017         1.68981          2.9294 
        1.54637         2.11166         1.65794         2.88872 
        1.55858         2.07833         1.62707         2.84356 
        1.57081         2.04242         1.59694         2.81052 
        1.58313         2.00029         1.56739         2.77244 
        1.59544         1.97035         1.53861         2.73575 
        1.60767         1.94164         1.51073         2.69709 
        1.61994         1.89828         1.48345         2.66289 
        1.63225          1.8737         1.45679         2.62792 
        1.64452         1.84119         1.43085         2.59039 
        1.65676          1.8016         1.40563         2.55815 
          1.669         1.77892           1.381         2.52312 
        1.68133           1.737         1.35681          2.4953 
        1.69363         1.72871         1.33326          2.4619 
        1.70585         1.69788         1.31043         2.43037 
        1.71809          1.6726         1.28809         2.39965 
        1.73038         1.63841         1.26619         2.36919 
        1.74268         1.60882          1.2448         2.34041 
        1.75493         1.59173         1.22399         2.31407 
        1.76714         1.56608         1.20372         2.28066 
        1.77942         1.53793          1.1838         2.25608 
        1.79173         1.51589         1.16428         2.22745 
        1.80402         1.49273         1.14524         2.20171 
         1.8163          1.4725         1.12664         2.17561 
         1.8286         1.44229         1.10842         2.15514 
         1.8409         1.43061         1.09062         2.12922 
        1.85315         1.40896         1.07327         2.09986 
        1.86537         1.38377         1.05634         2.08006 
        1.87765         1.36711          1.0397         2.05684 
        1.88995         1.34467         1.02339          2.0329 
        1.90221         1.32599         1.00748         2.00947 
        1.91445         1.30496        0.991933         1.99046 
        1.92674         1.28857        0.976664         1.96521 
        1.93902         1.26505        0.961716         1.94216 
        1.95124         1.24772         0.94716         1.92373 
         1.9635         1.23151        0.932868         1.90142 
        1.97583         1.21025        0.918782         1.88047 
        1.98812         1.19589         0.90504         1.86302 
        2.00039         1.17729        0.891606         1.84167 
        2.01264         1.15869        0.878458         1.82523 
        2.02492         1.14868        0.865556         1.80725 
        2.03717         1.13838        0.852935         1.78737 
        2.04942         1.11484        0.840582         1.76696 
        2.06171         1.10017        0.828432         1.74888 
        2.07397         1.08573        0.816549         1.73326 
        2.08629         1.07418         0.80485         1.71711 
        2.09857         1.05726        0.793408         1.69974 
        2.11081         1.04353        0.782235         1.68178 
        2.12309         1.03212        0.771251         1.66758 
        2.13538         1.01902        0.760462         1.64922 
        2.14763          1.0097        0.749916         1.63376 
        2.15986        0.995842        0.739594         1.62017 
        2.17214        0.975518        0.729425         1.60074 
        2.18443        0.967153        0.719437         1.58865 
        2.19671        0.957406        0.709649         1.57383 
        2.20898        0.943333        0.700054         1.55896 
        2.22126        0.930964        0.690627         1.54464 
        2.23354        0.918829        0.681376          1.5301 
         2.2458        0.910524        0.672311         1.51522 
        2.25807        0.896558        0.663403         1.50103 
        2.27035        0.889195        0.654649         1.48864 
        2.28263        0.873206        0.646057         1.47614 
         2.2949        0.865399        0.637623         1.46241 
        2.30718         0.85707        0.629338         1.45013 
        2.31946        0.844027        0.621196         1.43722 
        2.33169        0.834317        0.613233         1.42492 
        2.34393        0.830552        0.605398         1.41263 
        2.35622        0.815375        0.597674         1.40037 
        2.36847        0.809241        0.590107         1.38829 
        2.38076        0.795264        0.582648         1.37624 
        2.39305        0.791534         0.57532         1.36434 
        2.40534        0.780145        0.568118         1.35333 
        2.41762        0.772315         0.56104          1.3411 
        2.42989        0.762416        0.554093         1.33175 
        2.44216        0.756985        0.547265         1.32029 
         2.4544        0.749706        0.540568         1.30963 
        2.46667        0.740102        0.533967          1.2988 
        2.47897        0.732383         0.52746         1.28786 
        2.49124        0.721848        0.521081         1.27746 
        2.50349        0.716479        0.514816         1.26682 
        2.51578        0.709564        0.508635         1.25607 
        2.52805        0.700443        0.502566         1.24682 
        2.54029        0.694831        0.496612         1.23675 
        2.55257         0.68652        0.490736         1.22748 
        2.56487        0.679072        0.484945         1.21848 
        2.57716        0.674629        0.479254         1.20801 
        2.58942        0.669876        0.473668         1.19961 
        2.60167        0.663331        0.468176            1.19 
        2.61395        0.655436        0.462764         1.18088 
        2.62624        0.650215        0.457429         1.17257 
        2.63849        0.642591        0.452195         1.16327 
        2.65073        0.636876        0.447049         1.15436 
        2.66302        0.632483        0.441964         1.14532 
         2.6753         0.62851        0.436962         1.13739 
        2.68756        0.621501        0.432048         1.12982 
        2.69983        0.616136        0.427205         1.12131 
        2.71213        0.608326        0.422427         1.11326 
        2.72441        0.606077         0.41773         1.10495 
        2.73665        0.601968        0.413116         1.09795 
         2.7489        0.596321        0.408574         1.09051 
        2.76118        0.591319        0.404087         1.08134 
        2.77349        0.587784        0.399656          1.0742 
        2.78576        0.584737         0.39531         1.06647 
        2.79802        0.578889         0.39103         1.05848 
        2.81031        0.575205        0.386804         1.05228 
        2.82259         0.57135        0.382641         1.04395 
        2.83483        0.567926        0.378556         1.03702 
         2.8471        0.563318        0.374522         1.02963 
         2.8594        0.561043        0.370535         1.02296 
         2.8717        0.555986        0.366608          1.0167 
        2.88396        0.552404        0.362752         1.00956 
        2.89619        0.549953        0.358958          1.0028 
        2.90847        0.546753        0.355204         0.99634 
        2.92072        0.545785        0.351511        0.989616 
        2.93299        0.539649        0.347868        0.982504 
        2.94526        0.539306        0.344273        0.976356 
        2.95753        0.537337         0.34073        0.970315 
        2.96982        0.534879        0.337232        0.963559 
        2.98209        0.532932        0.333789        0.957216 
        2.99436         0.53009        0.330391        0.951205 
        3.00666        0.529524        0.327035        0.945301 
        3.01894        0.528519        0.323733        0.939673 
        3.03119        0.525303         0.32048        0.933211 
        3.04345        0.523328        0.317272        0.927285 
        3.05573        0.523235        0.314101        0.922292 
          3.068        0.521616        0.310978        0.916527 
        3.08026         0.52186        0.307899        0.910386 
        3.09254        0.520189        0.304857        0.904328 
        3.10483        0.518571        0.301856        0.899061 
         3.1171        0.519785        0.298898        0.894018 
        3.12933        0.519247        0.295989        0.888447 
        3.14159        0.519418        0.293112        0.882998 
