# k  (h/Mpc)    P(k)  (Mpc/h)^3    P_linear(k)  (Mpc/h)^3     P_NL(k)  ShotnoiseSubtracted = false
      0.0156606         1665.17         1637.86         1630.07 
      0.0273761         1447.09         1415.78         1412.45 
      0.0384619         1098.88         1066.54          1065.9 
      0.0498308         862.565         838.869         838.889 
      0.0625568          727.71          712.92          712.21 
      0.0751274         626.935         605.697         604.132 
      0.0867833         499.094          487.65         487.495 
      0.0984825          402.56         385.911         387.007 
       0.111151         336.723         322.228         323.262 
       0.123864         302.393         290.392         291.063 
       0.135742         271.452         261.134         261.752 
        0.14762         230.593         223.283         224.883 
       0.160083         191.639         186.119         187.996 
       0.172465         168.357         162.446         164.672 
       0.184281          155.99         149.756         152.095 
       0.196406         142.426         138.299         140.056 
       0.209011         127.896         123.051          125.08 
       0.221538          113.13         107.535         110.401 
       0.233611         101.603         96.2157         99.3931 
       0.245665         95.1812         88.8033         91.6163 
       0.258103          85.882         82.6684          85.462 
       0.270422          80.511         75.9626         78.6546 
       0.282519         73.0208         68.9402         71.8465 
       0.294636         68.7879         62.8122         65.8762 
       0.306978         61.2069         58.1119         61.2687 
       0.319417         58.2233         54.3312         57.3905 
        0.33169         54.1088         50.7124         53.6649 
       0.343948         51.0881          46.988         49.9549 
       0.356249         46.7651         43.4951         46.8154 
       0.368458         44.3917         40.5695         43.5713 
        0.38068         41.4679         38.1232         41.1062 
       0.392856         38.8816         35.8898         38.9012 
       0.405069         36.7323         33.7059         36.5885 
       0.417459         34.1066         31.5915         34.5551 
       0.429752         32.5628         29.6934         32.6369 
       0.441978         30.9494         28.0274         31.1081 
       0.454294         28.8498         26.5146         29.4306 
        0.46658         28.3055         25.0951         27.9726 
       0.478753         26.3826          23.756         26.6328 
       0.490964         25.3958         22.4981         25.4744 
       0.503334         24.2644         21.3372         24.1811 
       0.515665         22.9091         20.2785         23.2498 
       0.527909         21.9294         19.3012         22.0471 
       0.540159         20.8894         18.3764         21.1036 
        0.55248         19.5457         17.4991         20.1501 
       0.564743         19.2342         16.6868         19.4391 
        0.57686          18.494         15.9401         18.6273 
       0.589077         17.3773         15.2353         17.9697 
       0.601441          16.695         14.5651         17.2566 
        0.61382         16.0603         13.9332         16.5357 
       0.626067         15.3966         13.3436         15.9454 
       0.638306         14.8425         12.7883           15.33 
       0.650632         14.4409         12.2622         14.8193 
       0.662899         13.7424         11.7692         14.2595 
       0.675076          13.084         11.3072         13.7666 
       0.687267         12.7774         10.8694         13.2614 
       0.699615         12.3752         10.4493         12.8292 
       0.711937         11.7285         10.0522          12.424 
       0.724148         11.6057         9.67905         12.0342 
       0.736433          10.953         9.32302         11.6145 
       0.748747         10.6716         8.98438          11.288 
       0.761037         10.4041         8.66337         10.9376 
       0.773197         9.95196         8.36137         10.6337 
       0.785376         9.61059         8.07342         10.3069 
       0.797761         9.33409         7.79458         9.98309 
       0.810096         9.08129         7.53002         9.74215 
       0.822371         8.84657         7.27902         9.42575 
       0.834626         8.54657         7.03992         9.17338 
       0.846916         8.24877           6.811         8.93048 
       0.859215         7.93826         6.59218         8.70051 
       0.871383         7.73851          6.3852          8.4793 
        0.88363         7.54125         6.18592         8.24853 
       0.895928         7.37782         5.99443         8.02262 
       0.908253         7.15575         5.81073         7.82506 
       0.920535         6.91311         5.63539         7.61672 
       0.932774         6.77304         5.46792         7.39955 
        0.94508         6.55142         5.30645          7.2472 
       0.957324          6.3966         5.15232         7.09234 
        0.96953         6.17319         5.00481         6.91653 
       0.981769         6.04946         4.86274         6.73523 
       0.994071         5.92314         4.72553          6.5946 
         1.0064         5.71633          4.5934         6.44416 
        1.01868         5.57293         4.46673         6.29446 
        1.03092         5.46883         4.34543         6.14412 
         1.0432          5.2657         4.22822         6.01342 
        1.05553         5.16872         4.11489         5.89531 
        1.06777         5.01031         4.00655         5.77225 
           1.08         4.92612         3.90225         5.64207 
        1.09227         4.79114         3.80133         5.51896 
         1.1046         4.68006         3.70362         5.40375 
         1.1169         4.52932         3.60954         5.29581 
        1.12915          4.4951          3.5192          5.2027 
        1.14142          4.3378         3.43177         5.08217 
        1.15365         4.25143         3.34759         4.98932 
        1.16585         4.18326         3.26646         4.89899 
        1.17807         4.08658         3.18794          4.7928 
        1.19037         3.95829         3.11148         4.70097 
        1.20276         3.87659         3.03703         4.60492 
        1.21504         3.79435         2.96561         4.53369 
        1.22728         3.70631         2.89679         4.43669 
        1.23954         3.64244            2.83         4.37502 
        1.25184          3.5567         2.76519         4.28236 
        1.26414         3.50184         2.70239         4.19859 
        1.27632         3.39045         2.64211         4.13945 
         1.2886         3.35067         2.58325         4.06034 
        1.30093         3.26228         2.52599         3.99929 
        1.31316         3.17354         2.47087         3.92393 
        1.32541         3.13257          2.4174         3.86558 
        1.33772         3.07728         2.36522         3.79501 
        1.35005         3.01581         2.31455         3.73493 
        1.36225         2.95472         2.26588         3.66742 
        1.37447          2.8926         2.21852         3.61776 
        1.38676         2.83006          2.1723         3.55144 
        1.39907         2.76729         2.12733         3.50324 
        1.41133         2.72067         2.08382         3.44675 
        1.42358          2.6811         2.04158         3.38536 
        1.43591         2.63487         2.00022         3.34831 
        1.44818          2.5676         1.96024         3.29345 
        1.46037         2.51341         1.92159         3.23882 
        1.47263         2.46906         1.88377         3.19415 
        1.48494          2.4331         1.84682         3.14643 
        1.49724         2.38125          1.8109         3.09768 
        1.50952          2.3667         1.77601         3.05295 
        1.52178         2.30281         1.74208         3.01416 
        1.53409         2.25645         1.70892         2.96251 
        1.54637         2.21762         1.67668         2.92137 
        1.55858         2.18229         1.64546          2.8757 
        1.57081         2.14467         1.61499          2.8423 
        1.58313         2.10085         1.58511         2.80379 
        1.59544         2.06961           1.556         2.76667 
        1.60767         2.04022         1.52781         2.72758 
        1.61994         1.99475         1.50022         2.69299 
        1.63225         1.96838         1.47325         2.65763 
        1.64452         1.93492         1.44703         2.61968 
        1.65676         1.89377         1.42152         2.58707 
          1.669         1.87037         1.39662         2.55165 
        1.68133         1.82579         1.37215         2.52351 
        1.69363         1.81816         1.34834         2.48973 
        1.70585         1.78606         1.32525         2.45784 
        1.71809         1.75975         1.30265         2.42678 
        1.73038         1.72438         1.28051         2.39597 
        1.74268         1.69341         1.25887         2.36687 
        1.75493         1.67478         1.23783         2.34023 
        1.76714         1.64896         1.21732         2.30645 
        1.77942         1.61999         1.19718         2.28158 
        1.79173         1.59681         1.17744         2.25263 
        1.80402         1.57256         1.15819          2.2266 
         1.8163         1.55208         1.13938         2.20021 
         1.8286         1.52052         1.12095         2.17951 
         1.8409         1.50688         1.10295         2.15329 
        1.85315         1.48477         1.08541          2.1236 
        1.86537         1.45925         1.06828         2.10357 
        1.87765         1.44164         1.05146          2.0801 
        1.88995         1.41793         1.03496         2.05589 
        1.90221         1.39846         1.01887         2.03218 
        1.91445         1.37718         1.00315         2.01296 
        1.92674          1.3601        0.987706         1.98743 
        1.93902         1.33551        0.972588         1.96412 
        1.95124         1.31704        0.957868         1.94548 
         1.9635         1.30063        0.943415         1.92291 
        1.97583         1.27799        0.929169         1.90173 
        1.98812          1.2633        0.915272         1.88409 
        2.00039         1.24388        0.901686         1.86249 
        2.01264         1.22403         0.88839         1.84586 
        2.02492         1.21369        0.875342         1.82768 
        2.03717         1.20298        0.862578         1.80758 
        2.04942         1.17835        0.850086         1.78693 
        2.06171         1.16294        0.837799         1.76866 
        2.07397          1.1479        0.825781         1.75286 
        2.08629         1.13607        0.813949         1.73652 
        2.09857         1.11855        0.802378         1.71896 
        2.11081         1.10414        0.791079         1.70079 
        2.12309         1.09234        0.779971         1.68644 
        2.13538         1.07827         0.76906         1.66786 
        2.14763         1.06915        0.758395         1.65223 
        2.15986         1.05443        0.747956         1.63849 
        2.17214         1.03312        0.737672         1.61884 
        2.18443         1.02456        0.727571         1.60661 
        2.19671         1.01412        0.717672         1.59163 
        2.20898        0.999502        0.707969         1.57658 
        2.22126        0.986796        0.698435         1.56211 
        2.23354        0.974312         0.68908          1.5474 
         2.2458        0.965467        0.679913         1.53235 
        2.25807        0.950835        0.670904           1.518 
        2.27035         0.94286        0.662051         1.50548 
        2.28263        0.926204        0.653361         1.49283 
         2.2949        0.918234        0.644833         1.47895 
        2.30718        0.909585        0.636454         1.46652 
        2.31946        0.895648        0.628219         1.45347 
        2.33169        0.885918        0.620167         1.44103 
        2.34393        0.882014        0.612243         1.42861 
        2.35622        0.865881        0.604432          1.4162 
        2.36847        0.859663        0.596779         1.40398 
        2.38076        0.844788        0.589236          1.3918 
        2.39305         0.84096        0.581825         1.37977 
        2.40534        0.829295        0.574541         1.36863 
        2.41762        0.820628        0.567383         1.35626 
        2.42989        0.810675        0.560358         1.34681 
        2.44216        0.805006        0.553453         1.33522 
         2.4544        0.797158         0.54668         1.32443 
        2.46667         0.78695        0.540004         1.31349 
        2.47897         0.77895        0.533424         1.30242 
        2.49124        0.768157        0.526972          1.2919 
        2.50349        0.762399        0.520637         1.28114 
        2.51578        0.755227        0.514386         1.27027 
        2.52805        0.745323        0.508249         1.26091 
        2.54029         0.73964        0.502227         1.25073 
        2.55257        0.730921        0.496285         1.24136 
        2.56487        0.723035        0.490428         1.23226 
        2.57716        0.718616        0.484673         1.22167 
        2.58942        0.713612        0.479024         1.21318 
        2.60167        0.706616         0.47347         1.20346 
        2.61395        0.698403        0.467996         1.19423 
        2.62624        0.692916        0.462601         1.18583 
        2.63849        0.685138        0.457308         1.17643 
        2.65073        0.678918        0.452104         1.16742 
        2.66302        0.674452        0.446962         1.15827 
         2.6753        0.670492        0.441903         1.15025 
        2.68756        0.662864        0.436933         1.14259 
        2.69983        0.657513        0.432036         1.13399 
        2.71213        0.649276        0.427204         1.12584 
        2.72441        0.646634        0.422454         1.11745 
        2.73665        0.642745        0.417788         1.11037 
         2.7489        0.636314        0.413195         1.10284 
        2.76118        0.631195        0.408656         1.09356 
        2.77349        0.627523        0.404176         1.08634 
        2.78576        0.624289         0.39978         1.07853 
        2.79802        0.618447        0.395452         1.07045 
        2.81031        0.614475        0.391178         1.06418 
        2.82259        0.610213        0.386968         1.05576 
        2.83483        0.606812        0.382837         1.04875 
         2.8471        0.602074        0.378758         1.04128 
         2.8594        0.599552        0.374726         1.03453 
         2.8717        0.594503        0.370754          1.0282 
        2.88396        0.590576        0.366854         1.02098 
        2.89619        0.587889        0.363017         1.01414 
        2.90847        0.584622        0.359221         1.00761 
        2.92072        0.583612        0.355486         1.00081 
        2.93299        0.577178        0.351802        0.993614 
        2.94526        0.576998        0.348166        0.987398 
        2.95753        0.574734        0.344584        0.981288 
        2.96982        0.572273        0.341045        0.974456 
        2.98209        0.570247        0.337564        0.968041 
        2.99436        0.567528        0.334128        0.961962 
        3.00666        0.566882        0.330734        0.955992 
        3.01894        0.565732        0.327394        0.950299 
        3.03119        0.562348        0.324104        0.943764 
        3.04345        0.560535         0.32086        0.937771 
        3.05573        0.560124        0.317654        0.932722 
          3.068        0.558526        0.314495        0.926892 
        3.08026        0.559055        0.311382        0.920682 
        3.09254        0.557308        0.308305        0.914556 
        3.10483        0.555725        0.305269        0.909229 
         3.1171        0.556925        0.302279        0.904129 
        3.12933        0.556509        0.299336        0.898494 
        3.14159        0.556607        0.296427        0.892985 
