# k  (h/Mpc)    P(k)  (Mpc/h)^3    P_linear(k)  (Mpc/h)^3     P_NL(k)  ShotnoiseSubtracted = false
      0.0156606         7538.31         7632.65         7589.38 
      0.0273761          6509.1         6591.69         6559.81 
      0.0384619         4939.72         4963.29         4942.22 
      0.0498308         3849.78         3902.66         3883.93 
      0.0625568         3247.83         3316.02         3297.31 
      0.0751274         2845.27         2816.93         2788.49 
      0.0867833         2234.03         2267.74         2261.33 
      0.0984825          1838.1         1794.51         1807.56 
       0.111151         1549.29         1498.31         1511.81 
       0.123864         1391.64         1350.23         1361.58 
       0.135742         1255.51         1214.16         1225.84 
        0.14762         1073.86         1038.15         1066.62 
       0.160083         892.909         865.341         898.042 
       0.172465         793.259         755.267         795.642 
       0.184281         733.176         696.259         738.713 
       0.196406         670.757         642.988         677.308 
       0.209011         612.568          572.09         609.536 
       0.221538         550.148         499.949         552.261 
       0.233611         505.026         447.322         505.924 
       0.245665         471.653         412.859         465.389 
       0.258103         435.187         384.335         436.606 
       0.270422          402.61         353.158          404.95 
       0.282519         367.721         320.509         374.921 
       0.294636         361.204         292.019         349.342 
       0.306978         319.578         270.166         329.756 
       0.319417          306.46         252.589         309.812 
        0.33169         286.849         235.764         290.999 
       0.343948         273.753         218.449           276.4 
       0.356249         254.698          202.21         262.937 
       0.368458         245.827         188.609         246.876 
        0.38068          233.48         177.236         234.799 
       0.392856         217.962         166.852         224.469 
       0.405069          208.47         156.699         214.846 
       0.417459         198.531         146.869         203.295 
       0.429752         191.068         138.045         194.958 
       0.441978         183.946         130.299          188.25 
       0.454294         171.354         123.266         178.868 
        0.46658         171.561         116.667         172.806 
       0.478753          161.44         110.441         166.351 
       0.490964         156.481         104.593         160.004 
       0.503334         148.728         99.1962         154.595 
       0.515665         144.908         94.2744          150.54 
       0.527909         140.359         89.7307         143.972 
       0.540159         135.647         85.4317         139.714 
        0.55248         131.168         81.3528         134.892 
       0.564743         127.444         77.5763         131.308 
        0.57686         123.414         74.1051         126.968 
       0.589077         117.881         70.8285         123.851 
       0.601441         115.286         67.7127         120.483 
        0.61382         113.267         64.7751          116.76 
       0.626067         108.832         62.0338         113.755 
       0.638306          105.07         59.4524         110.905 
       0.650632         101.337         57.0065         107.004 
       0.662899         100.991         54.7146         104.549 
       0.675076         97.3426         52.5667         101.991 
       0.687267         95.2073         50.5314          99.515 
       0.699615         92.2673         48.5784         97.4777 
       0.711937          89.457         46.7321         94.6906 
       0.724148         88.6605         44.9975         93.3548 
       0.736433         85.0214         43.3423         90.8187 
       0.748747         83.4719          41.768         88.8022 
       0.761037         81.5884         40.2756         86.6923 
       0.773197         79.8121         38.8716         85.6116 
       0.785376         77.8729          37.533         83.4143 
       0.797761         77.1203         36.2367         82.0975 
       0.810096         74.4431         35.0067         80.2226 
       0.822371         73.0423         33.8398         78.6438 
       0.834626         71.3491         32.7283         77.3217 
       0.846916          70.259          31.664         75.9121 
       0.859215         68.6934         30.6467         74.3516 
       0.871383         67.7763         29.6845         73.0991 
        0.88363          65.912          28.758         72.0625 
       0.895928         64.5435         27.8678         70.7693 
       0.908253         62.9925         27.0138         69.5599 
       0.920535         62.6429         26.1986         68.4365 
       0.932774         61.3712         25.4201         67.2579 
        0.94508         60.5056         24.6694         66.0389 
       0.957324         58.9724         23.9529          65.169 
        0.96953         58.9011         23.2671         63.9873 
       0.981769         56.9539         22.6066         63.2242 
       0.994071         56.2886         21.9687           62.28 
         1.0064         55.0631         21.3545         61.3123 
        1.01868         54.2189         20.7656         60.4799 
        1.03092         53.3834         20.2017         59.5744 
         1.0432         52.4712         19.6567         58.6082 
        1.05553         51.1805         19.1299         58.1428 
        1.06777         50.6942         18.6262         57.2271 
           1.08         49.5065         18.1413         56.3986 
        1.09227         48.9249         17.6722         55.6156 
         1.1046         48.1983         17.2179         54.8598 
         1.1169          47.641         16.7805         54.0737 
        1.12915         46.8279         16.3605         53.4864 
        1.14142         45.9291         15.9541         52.8108 
        1.15365         45.2552         15.5627         52.1991 
        1.16585           44.57         15.1856         51.4511 
        1.17807          43.851         14.8205         50.7864 
        1.19037         43.7193         14.4651         50.3322 
        1.20276         42.9504          14.119         49.7052 
        1.21504         42.3627          13.787         49.1508 
        1.22728         41.5531          13.467         48.5661 
        1.23954         41.0891         13.1565         47.8903 
        1.25184         40.3919         12.8552         47.4545 
        1.26414         39.8258         12.5633         46.8401 
        1.27632         39.5038          12.283          46.361 
         1.2886         39.0857         12.0094         45.8593 
        1.30093         38.4069         11.7432         45.2686 
        1.31316         37.8257         11.4869         44.8975 
        1.32541          37.569         11.2383         44.3878 
        1.33772         36.8455         10.9958         43.9216 
        1.35005         36.4273         10.7602         43.4904 
        1.36225         35.8416         10.5339         43.0685 
        1.37447         35.0039         10.3138         42.5832 
        1.38676          35.123         10.0989         42.2091 
        1.39907          34.556         9.88982         41.8213 
        1.41133         33.8493         9.68757         41.3806 
        1.42358          33.509         9.49118         40.9487 
        1.43591         33.1099          9.2989         40.5979 
        1.44818         32.7766         9.11302         40.1298 
        1.46037         32.3545         8.93334         39.7652 
        1.47263         32.1204         8.75751         39.4489 
        1.48494          31.497         8.58575         39.0317 
        1.49724         31.4128         8.41875         38.6697 
        1.50952         30.9225         8.25654         38.3583 
        1.52178         30.4667         8.09884          37.988 
        1.53409          30.218         7.94464         37.6538 
        1.54637          29.823         7.79478         37.2732 
        1.55858         29.1411         7.64964         36.9549 
        1.57081         29.2302           7.508         36.6683 
        1.58313         28.8657         7.36907         36.3186 
        1.59544         28.3264         7.23374          36.017 
        1.60767         28.0089         7.10268         35.6602 
        1.61994         27.6711         6.97442         35.3833 
        1.63225         27.5383         6.84906         35.1196 
        1.64452         27.1177         6.72714         34.8243 
        1.65676         26.8371         6.60857         34.5083 
          1.669         26.5768         6.49277         34.2604 
        1.68133         26.2351         6.37902         33.9479 
        1.69363         25.8683         6.26833         33.6172 
        1.70585         25.6635         6.16098         33.4404 
        1.71809         25.2478         6.05593         33.0913 
        1.73038         25.1184         5.95299         32.8843 
        1.74268         24.8052         5.85239         32.5537 
        1.75493         24.4902         5.75458         32.3272 
        1.76714         24.3589         5.65926          32.091 
        1.77942         24.0862         5.56561         31.8215 
        1.79173         23.6466         5.47385         31.5719 
        1.80402         23.4134         5.38434         31.4062 
         1.8163         23.3157         5.29689         31.0345 
         1.8286         22.9052         5.21124          30.856 
         1.8409         22.7082         5.12755         30.6247 
        1.85315         22.4848         5.04598         30.4094 
        1.86537         22.1814         4.96635         30.1786 
        1.87765         22.0547         4.88814         29.9433 
        1.88995          21.753         4.81144         29.6798 
        1.90221         21.5394         4.73664         29.4685 
        1.91445          21.272         4.66356         29.2544 
        1.92674         21.0844         4.59178          29.037 
        1.93902         20.8351          4.5215         28.8522 
        1.95124         20.5273         4.45306         28.6898 
         1.9635         20.4079         4.38587         28.4314 
        1.97583         20.1964         4.31964         28.2313 
        1.98812         20.0276         4.25503         28.0474 
        2.00039         19.8115         4.19188         27.8378 
        2.01264         19.5829         4.13006         27.6575 
        2.02492         19.4268          4.0694         27.4253 
        2.03717         19.1324         4.01007          27.248 
        2.04942         18.9818         3.95199         27.0424 
        2.06171          18.845         3.89487         26.8655 
        2.07397         18.6549           3.839         26.6557 
        2.08629          18.477         3.78399         26.4661 
        2.09857         18.2969          3.7302         26.3016 
        2.11081         18.0625         3.67767         26.1181 
        2.12309         17.9374         3.62603         25.9357 
        2.13538         17.7129          3.5753         25.7629 
        2.14763         17.5418         3.52572          25.591 
        2.15986         17.4295         3.47719         25.4258 
        2.17214         17.2257         3.42938         25.2584 
        2.18443         17.0576         3.38243         25.0701 
        2.19671          16.883         3.33641         24.8929 
        2.20898         16.7214          3.2913         24.7293 
        2.22126         16.5943         3.24697         24.5779 
        2.23354         16.5074         3.20348         24.4119 
         2.2458         16.2987         3.16086         24.2765 
        2.25807         16.0938         3.11898         24.0706 
        2.27035         15.9697         3.07782         23.9307 
        2.28263         15.8066         3.03743         23.7752 
         2.2949         15.7208         2.99778         23.6325 
        2.30718         15.5771         2.95883         23.4834 
        2.31946         15.4535         2.92055         23.3177 
        2.33169         15.2883         2.88311         23.1674 
        2.34393         15.1488         2.84627         23.0385 
        2.35622         14.9492         2.80996         22.8837 
        2.36847         14.8452         2.77438         22.7267 
        2.38076         14.6867         2.73931         22.5989 
        2.39305         14.5885         2.70486         22.4515 
        2.40534         14.4388           2.671         22.2823 
        2.41762         14.3012         2.63772         22.1787 
        2.42989         14.1872         2.60506         22.0159 
        2.44216         14.0546         2.57296         21.8825 
         2.4544         14.0358         2.54147         21.7326 
        2.46667         13.8503         2.51044         21.6113 
        2.47897           13.68         2.47985         21.4661 
        2.49124         13.6265         2.44985         21.3347 
        2.50349         13.4667          2.4204         21.1921 
        2.51578         13.3712         2.39134         21.0901 
        2.52805         13.2677         2.36281         20.9513 
        2.54029         13.1821         2.33482          20.822 
        2.55257         13.0893         2.30719         20.6913 
        2.56487         12.9096         2.27996         20.5683 
        2.57716         12.8373         2.25321         20.4252 
        2.58942         12.7633         2.22695         20.3251 
        2.60167         12.6066         2.20113         20.2006 
        2.61395         12.5984         2.17568         20.0758 
        2.62624         12.4904          2.1506         19.9522 
        2.63849         12.3595         2.12599         19.8505 
        2.65073         12.2658          2.1018          19.718 
        2.66302         12.1944         2.07789         19.6107 
         2.6753         12.1365         2.05437         19.4847 
        2.68756         12.0361         2.03127         19.3783 
        2.69983         11.9384          2.0085         19.2567 
        2.71213         11.8412         1.98604         19.1296 
        2.72441         11.8004         1.96395         19.0283 
        2.73665          11.724         1.94226         18.9164 
         2.7489         11.6659         1.92091         18.7985 
        2.76118         11.5414         1.89981         18.6953 
        2.77349         11.4815         1.87898         18.5856 
        2.78576         11.3877         1.85854         18.4849 
        2.79802         11.3536         1.83842         18.3698 
        2.81031         11.2807         1.81855         18.2598 
        2.82259         11.2327         1.79898         18.1615 
        2.83483         11.1686         1.77978         18.0595 
         2.8471         11.1053         1.76081         17.9492 
         2.8594         11.0683         1.74207         17.8402 
         2.8717         11.0076          1.7236         17.7441 
        2.88396         10.9357         1.70547         17.6422 
        2.89619         10.9017         1.68764          17.539 
        2.90847         10.8557         1.66999         17.4478 
        2.92072         10.8189         1.65262         17.3326 
        2.93299         10.7331          1.6355         17.2442 
        2.94526         10.7203          1.6186         17.1534 
        2.95753         10.6726         1.60194         17.0499 
        2.96982         10.6282         1.58549         16.9527 
        2.98209         10.6229         1.56931         16.8581 
        2.99436         10.5979         1.55333         16.7578 
        3.00666         10.5673         1.53755         16.6653 
        3.01894         10.5432         1.52203          16.586 
        3.03119         10.5054         1.50673         16.4879 
        3.04345          10.442         1.49165         16.3834 
        3.05573         10.4655         1.47674         16.2967 
          3.068         10.4449         1.46206         16.2147 
        3.08026          10.422         1.44759         16.1115 
        3.09254         10.4253         1.43328         16.0303 
        3.10483         10.4161         1.41917         15.9519 
         3.1171         10.4383         1.40527         15.8584 
        3.12933         10.4108         1.39159         15.7694 
        3.14159         10.3769         1.37806         15.6794 
