# k  (h/Mpc)    P(k)  (Mpc/h)^3    P_linear(k)  (Mpc/h)^3     P_NL(k)  ShotnoiseSubtracted = false
      0.0156606           21500         21568.4         21398.7 
      0.0273761         18398.4         18616.4         18414.8 
      0.0384619         13899.2         14012.4           13834 
      0.0498308         10727.5         11015.3           10836 
      0.0625568         9059.04         9357.74          9198.2 
      0.0751274         8065.29         7948.27         7724.17 
      0.0867833         6246.32         6398.12         6328.84 
      0.0984825         5277.44         5062.64         5124.54 
       0.111151         4513.77         4226.78         4303.77 
       0.123864         4043.05         3808.88         3871.18 
       0.135742         3686.07         3424.94         3487.41 
        0.14762         3208.67         2928.36         3094.02 
       0.160083         2725.69         2440.86         2645.14 
       0.172465         2430.91         2130.34         2390.43 
       0.184281         2203.08         1963.87         2224.73 
       0.196406         2078.13         1813.59         2049.21 
       0.209011         1944.13          1613.6         1857.62 
       0.221538         1750.35         1410.11         1734.74 
       0.233611         1677.97         1261.67         1625.96 
       0.245665         1520.86         1164.46         1501.73 
       0.258103         1505.59            1084         1418.08 
       0.270422         1342.83         996.064         1332.43 
       0.282519         1268.37         903.976          1261.7 
       0.294636         1245.51         823.617         1195.33 
       0.306978         1137.83          761.98         1145.67 
       0.319417         1115.29         712.403         1080.27 
        0.33169          1048.3         664.949         1023.22 
       0.343948         1006.22         616.111         991.853 
       0.356249          953.73          570.31         955.241 
       0.368458         916.204         531.948         912.983 
        0.38068         901.363          499.87         878.381 
       0.392856         855.834         470.584         847.881 
       0.405069          811.96         441.948         820.604 
       0.417459         780.901         414.222         791.715 
       0.429752         776.772         389.334         764.153 
       0.441978          749.47         367.489         744.885 
       0.454294         716.354         347.653         714.666 
        0.46658         696.158          329.04         700.088 
       0.478753          682.78         311.481         678.973 
       0.490964         656.235         294.988          658.33 
       0.503334         628.031         279.766         643.768 
       0.515665         625.799         265.884         629.366 
       0.527909         599.888          253.07         616.126 
       0.540159         585.101         240.946         600.576 
        0.55248         573.395         229.442         585.059 
       0.564743         568.671         218.791         575.177 
        0.57686         549.476         209.001          560.05 
       0.589077         539.072         199.759          547.75 
       0.601441         527.074         190.972          537.11 
        0.61382         512.541         182.686         527.775 
       0.626067          506.89         174.955         517.932 
       0.638306         488.275         167.674         507.502 
       0.650632         483.651         160.776         495.385 
       0.662899         479.554         154.312         489.456 
       0.675076          463.64         148.255         482.696 
       0.687267         450.522         142.514         471.276 
       0.699615         448.519         137.006         463.865 
       0.711937         439.629         131.799           455.2 
       0.724148         425.179         126.907         449.085 
       0.736433         415.171         122.239         441.105 
       0.748747         409.885         117.799         433.325 
       0.761037          402.46          113.59          428.05 
       0.773197         396.583          109.63         421.106 
       0.785376         391.205         105.855         415.024 
       0.797761         379.602         102.199         408.773 
       0.810096         375.854         98.7296         403.638 
       0.822371         365.306         95.4386          397.08 
       0.834626         361.989         92.3037         392.399 
       0.846916         355.937         89.3022         386.273 
       0.859215         352.426         86.4331          380.67 
       0.871383         344.229         83.7193         375.646 
        0.88363          340.72         81.1064         371.843 
       0.895928         335.414         78.5957          366.04 
       0.908253         327.025         76.1871         360.082 
       0.920535         321.288         73.8881         356.093 
       0.932774         315.953         71.6923         350.761 
        0.94508         311.183         69.5752         347.214 
       0.957324         308.471         67.5543         342.575 
        0.96953         304.356         65.6203         338.421 
       0.981769          296.75         63.7574         334.698 
       0.994071         295.614         61.9584         330.609 
         1.0064         289.801          60.226         325.803 
        1.01868         286.537         58.5652         321.647 
        1.03092         277.908         56.9748         318.823 
         1.0432         275.128         55.4379         314.968 
        1.05553         272.026          53.952         310.655 
        1.06777         268.819         52.5316         307.207 
           1.08          262.57          51.164         303.793 
        1.09227         261.502         49.8408          300.14 
         1.1046         256.535         48.5597          297.27 
         1.1169         250.764         47.3261         293.307 
        1.12915         247.439         46.1416         290.423 
        1.14142         242.537         44.9953         286.941 
        1.15365         239.743         43.8915         283.923 
        1.16585         235.451         42.8278         280.697 
        1.17807         233.117         41.7983         277.796 
        1.19037         229.421         40.7959          275.42 
        1.20276         226.331         39.8197         271.818 
        1.21504          221.52         38.8832         268.789 
        1.22728         218.219         37.9809         265.713 
        1.23954         217.002         37.1052          263.25 
        1.25184         212.099         36.2555         260.441 
        1.26414         207.809         35.4321         257.955 
        1.27632         206.387         34.6417         255.653 
         1.2886         204.713           33.87         252.696 
        1.30093         199.655         33.1191         249.555 
        1.31316         195.471         32.3965         247.052 
        1.32541         194.383         31.6954         244.569 
        1.33772          191.25         31.0112         242.279 
        1.35005          188.82         30.3469         239.549 
        1.36225         185.171         29.7088         237.311 
        1.37447         182.352         29.0878         234.408 
        1.38676         180.512         28.4819         232.733 
        1.39907         177.847         27.8922          229.94 
        1.41133         174.479         27.3218         227.583 
        1.42358         172.404         26.7679          225.44 
        1.43591         170.218         26.2256         223.359 
        1.44818         166.951         25.7014         221.066 
        1.46037         165.459         25.1946         218.699 
        1.47263         162.261         24.6987         216.725 
        1.48494         160.651         24.2143         214.089 
        1.49724         158.054         23.7433         212.693 
        1.50952         155.125         23.2858          210.33 
        1.52178         153.787         22.8411         208.126 
        1.53409         150.779         22.4062         206.301 
        1.54637         148.609         21.9836         204.598 
        1.55858         146.845         21.5742         202.389 
        1.57081         144.285         21.1748         200.506 
        1.58313          142.37         20.7829         198.463 
        1.59544         139.742         20.4013         196.688 
        1.60767         138.508         20.0316         194.935 
        1.61994         136.084         19.6699         193.053 
        1.63225         134.024         19.3164         191.062 
        1.64452         131.814         18.9725         189.362 
        1.65676         130.062         18.6381         187.728 
          1.669         128.659         18.3115         185.936 
        1.68133         126.105         17.9907         184.239 
        1.69363         123.931         17.6785         182.662 
        1.70585         121.961         17.3758         181.004 
        1.71809         120.394         17.0795         179.049 
        1.73038         119.068         16.7892         177.588 
        1.74268         117.913         16.5054         175.854 
        1.75493         114.932         16.2296         174.413 
        1.76714         114.466         15.9608         172.916 
        1.77942         112.101         15.6966          171.25 
        1.79173         110.315         15.4378         169.708 
        1.80402         109.067         15.1854         168.197 
         1.8163         106.929         14.9388         166.826 
         1.8286         105.583         14.6972          165.21 
         1.8409         104.535         14.4612         163.675 
        1.85315         102.272         14.2311         162.338 
        1.86537          101.45         14.0065         160.985 
        1.87765         100.141          13.786         159.609 
        1.88995         98.2772         13.5696         158.097 
        1.90221         97.0917         13.3587         156.853 
        1.91445         95.7081         13.1526         155.337 
        1.92674         94.1976         12.9501          153.99 
        1.93902         92.9704         12.7519         152.604 
        1.95124         91.7245         12.5589         151.317 
         1.9635         90.2156         12.3694         149.995 
        1.97583         88.8254         12.1826         148.703 
        1.98812         87.5873         12.0004         147.611 
        2.00039          86.584         11.8223         146.207 
        2.01264         85.4822          11.648         145.006 
        2.02492         84.4506         11.4769         143.685 
        2.03717         83.0405         11.3095          142.55 
        2.04942         82.1117         11.1458         141.356 
        2.06171         80.5164         10.9846         140.115 
        2.07397         79.6509         10.8271          139.03 
        2.08629         78.5043          10.672         137.818 
        2.09857         77.4905         10.5202         136.709 
        2.11081         76.1839         10.3721         135.448 
        2.12309          75.188         10.2264         134.438 
        2.13538         74.0446         10.0834         133.254 
        2.14763         73.0797         9.94356         132.183 
        2.15986          72.151         9.80669         131.008 
        2.17214         71.2109         9.67185          129.98 
        2.18443         70.2585         9.53942         129.076 
        2.19671         69.3175         9.40963         127.957 
        2.20898         68.5149         9.28241         126.812 
        2.22126         67.4653          9.1574          125.87 
        2.23354          66.677         9.03475         124.861 
         2.2458         65.3818         8.91455         123.832 
        2.25807         64.7004         8.79643         122.829 
        2.27035         63.7621         8.68035         121.827 
        2.28263         62.9554         8.56643         120.896 
         2.2949         61.8216          8.4546         119.942 
        2.30718         60.9872         8.34474         118.975 
        2.31946         60.4766         8.23678         117.955 
        2.33169          59.461          8.1312         117.067 
        2.34393         59.0128          8.0273         116.236 
        2.35622         57.8852         7.92489          115.26 
        2.36847         57.4082         7.82455         114.472 
        2.38076         56.3906         7.72565         113.443 
        2.39305         55.8123         7.62849         112.673 
        2.40534         55.0107         7.53299         111.736 
        2.41762         54.3739         7.43914         110.835 
        2.42989         53.5301         7.34703         110.041 
        2.44216          53.024         7.25649         109.119 
         2.4544          52.164         7.16768         108.325 
        2.46667         51.5051         7.08016         107.497 
        2.47897         50.9654         6.99389         106.618 
        2.49124         50.4487         6.90929         105.835 
        2.50349         49.7134         6.82622          105.04 
        2.51578         49.1833         6.74427         104.336 
        2.52805         48.5151          6.6638         103.457 
        2.54029         48.0266         6.58485         102.659 
        2.55257         47.3792         6.50694         101.955 
        2.56487         47.1226         6.43015         101.205 
        2.57716         46.4735          6.3547         100.444 
        2.58942         45.7733         6.28063         99.7017 
        2.60167         45.2267         6.20781         98.9748 
        2.61395         44.8788         6.13604         98.2331 
        2.62624          44.123          6.0653         97.4531 
        2.63849         43.6692         5.99591         96.7645 
        2.65073         43.1471         5.92767         96.0632 
        2.66302         42.7318         5.86025         95.3387 
         2.6753         42.2544         5.79392         94.6778 
        2.68756         41.8771         5.72876         93.9564 
        2.69983         41.3343         5.66455         93.2989 
        2.71213         40.9068         5.60119         92.6316 
        2.72441         40.4994         5.53891         91.9511 
        2.73665         40.0428         5.47773         91.3205 
         2.7489         39.6003         5.41751         90.6776 
        2.76118         39.2349         5.35801         90.0065 
        2.77349         38.7815         5.29926         89.3777 
        2.78576         38.4274         5.24163         88.7154 
        2.79802         38.0983         5.18488         88.1588 
        2.81031         37.5533         5.12884         87.5122 
        2.82259         37.2809         5.07365         86.8631 
        2.83483         36.8251         5.01948         86.3029 
         2.8471         36.5352           4.966         85.6746 
         2.8594         36.1539         4.91313         85.0617 
         2.8717         35.9239         4.86105         84.5136 
        2.88396         35.6065         4.80992           83.92 
        2.89619         35.3222         4.75962         83.2906 
        2.90847         34.9815         4.70985         82.6875 
        2.92072         34.7529         4.66087         82.1753 
        2.93299         34.6174         4.61257         81.6329 
        2.94526          34.232         4.56491         81.0585 
        2.95753          34.009         4.51793         80.4873 
        2.96982         33.6681         4.47154         79.9521 
        2.98209         33.5433         4.42589         79.4221 
        2.99436         33.2429         4.38084         78.8494 
        3.00666         33.1634         4.33634         78.3214 
        3.01894         32.8774         4.29255         77.8002 
        3.03119         32.7373         4.24942         77.2989 
        3.04345         32.5754         4.20688          76.792 
        3.05573          32.359         4.16484         76.2693 
          3.068         32.2274         4.12342         75.7642 
        3.08026          32.043         4.08261         75.2557 
        3.09254         31.9614         4.04227          74.765 
        3.10483         31.9781         4.00247         74.2756 
         3.1171         31.7986         3.96326         73.7792 
        3.12933         31.6247         3.92468         73.2894 
        3.14159         31.5725         3.88653         72.7952 
