# k  (h/Mpc)    P(k)  (Mpc/h)^3    P_linear(k)  (Mpc/h)^3     P_NL(k)  ShotnoiseSubtracted = false
      0.0156606         21395.5         21568.4         21398.7 
      0.0273761         18311.2         18616.4         18414.8 
      0.0384619         13835.3         14012.4           13834 
      0.0498308         10680.8         11015.3           10836 
      0.0625568         9021.08         9357.74          9198.2 
      0.0751274         8032.16         7948.27         7724.17 
      0.0867833         6221.78         6398.12         6328.84 
      0.0984825         5257.53         5062.64         5124.54 
       0.111151         4497.32         4226.78         4303.77 
       0.123864         4029.38         3808.88         3871.18 
       0.135742         3673.75         3424.94         3487.41 
        0.14762         3198.34         2928.36         3094.02 
       0.160083         2717.55         2440.86         2645.14 
       0.172465         2423.94         2130.34         2390.43 
       0.184281         2197.56         1963.87         2224.73 
       0.196406          2073.1         1813.59         2049.21 
       0.209011         1939.99          1613.6         1857.62 
       0.221538         1747.15         1410.11         1734.74 
       0.233611         1675.03         1261.67         1625.96 
       0.245665         1518.57         1164.46         1501.73 
       0.258103         1503.46            1084         1418.08 
       0.270422         1341.63         996.064         1332.43 
       0.282519          1267.3         903.976          1261.7 
       0.294636         1244.99         823.617         1195.33 
       0.306978         1137.48          761.98         1145.67 
       0.319417         1115.27         712.403         1080.27 
        0.33169         1048.69         664.949         1023.22 
       0.343948         1006.72         616.111         991.853 
       0.356249         954.549          570.31         955.241 
       0.368458          917.42         531.948         912.983 
        0.38068         902.704          499.87         878.381 
       0.392856         857.297         470.584         847.881 
       0.405069         813.776         441.948         820.604 
       0.417459         783.001         414.222         791.715 
       0.429752         779.016         389.334         764.153 
       0.441978         751.845         367.489         744.885 
       0.454294         718.958         347.653         714.666 
        0.46658         698.874          329.04         700.088 
       0.478753         685.692         311.481         678.973 
       0.490964         659.408         294.988          658.33 
       0.503334         631.204         279.766         643.768 
       0.515665         629.167         265.884         629.366 
       0.527909         603.406          253.07         616.126 
       0.540159         588.809         240.946         600.576 
        0.55248         577.283         229.442         585.059 
       0.564743          572.84         218.791         575.177 
        0.57686         553.589         209.001          560.05 
       0.589077         543.219         199.759          547.75 
       0.601441         531.539         190.972          537.11 
        0.61382         517.079         182.686         527.775 
       0.626067         511.717         174.955         517.932 
       0.638306         493.051         167.674         507.502 
       0.650632         488.578         160.776         495.385 
       0.662899         484.666         154.312         489.456 
       0.675076         468.746         148.255         482.696 
       0.687267         455.745         142.514         471.276 
       0.699615           453.9         137.006         463.865 
       0.711937         445.218         131.799           455.2 
       0.724148          430.73         126.907         449.085 
       0.736433         420.743         122.239         441.105 
       0.748747         415.583         117.799         433.325 
       0.761037         408.248          113.59          428.05 
       0.773197         402.558          109.63         421.106 
       0.785376         397.266         105.855         415.024 
       0.797761         385.657         102.199         408.773 
       0.810096         382.084         98.7296         403.638 
       0.822371           371.5         95.4386          397.08 
       0.834626         368.352         92.3037         392.399 
       0.846916         362.269         89.3022         386.273 
       0.859215         358.953         86.4331          380.67 
       0.871383         350.737         83.7193         375.646 
        0.88363         347.439         81.1064         371.843 
       0.895928         342.109         78.5957          366.04 
       0.908253         333.648         76.1871         360.082 
       0.920535          328.11         73.8881         356.093 
       0.932774         322.765         71.6923         350.761 
        0.94508         318.077         69.5752         347.214 
       0.957324         315.517         67.5543         342.575 
        0.96953         311.436         65.6203         338.421 
       0.981769         303.813         63.7574         334.698 
       0.994071         302.797         61.9584         330.609 
         1.0064         297.003          60.226         325.803 
        1.01868         293.794         58.5652         321.647 
        1.03092         285.139         56.9748         318.823 
         1.0432          282.46         55.4379         314.968 
        1.05553         279.374          53.952         310.655 
        1.06777         276.261         52.5316         307.207 
           1.08         269.998          51.164         303.793 
        1.09227         269.014         49.8408          300.14 
         1.1046         264.067         48.5597          297.27 
         1.1169         258.256         47.3261         293.307 
        1.12915         254.935         46.1416         290.423 
        1.14142         249.988         44.9953         286.941 
        1.15365         247.309         43.8915         283.923 
        1.16585         242.996         42.8278         280.697 
        1.17807         240.693         41.7983         277.796 
        1.19037         237.059         40.7959          275.42 
        1.20276         233.978         39.8197         271.818 
        1.21504           229.1         38.8832         268.789 
        1.22728         225.807         37.9809         265.713 
        1.23954         224.669         37.1052          263.25 
        1.25184         219.681         36.2555         260.441 
        1.26414         215.364         35.4321         257.955 
        1.27632         214.019         34.6417         255.653 
         1.2886         212.395           33.87         252.696 
        1.30093         207.235         33.1191         249.555 
        1.31316         203.012         32.3965         247.052 
        1.32541         201.988         31.6954         244.569 
        1.33772         198.799         31.0112         242.279 
        1.35005          196.41         30.3469         239.549 
        1.36225         192.741         29.7088         237.311 
        1.37447         189.901         29.0878         234.408 
        1.38676         188.074         28.4819         232.733 
        1.39907         185.358         27.8922          229.94 
        1.41133         181.972         27.3218         227.583 
        1.42358         179.867         26.7679          225.44 
        1.43591         177.708         26.2256         223.359 
        1.44818         174.364         25.7014         221.066 
        1.46037         172.904         25.1946         218.699 
        1.47263          169.64         24.6987         216.725 
        1.48494         168.054         24.2143         214.089 
        1.49724          165.42         23.7433         212.693 
        1.50952          162.39         23.2858          210.33 
        1.52178         161.098         22.8411         208.126 
        1.53409         158.015         22.4062         206.301 
        1.54637         155.831         21.9836         204.598 
        1.55858         154.032         21.5742         202.389 
        1.57081         151.473         21.1748         200.506 
        1.58313         149.512         20.7829         198.463 
        1.59544         146.808         20.4013         196.688 
        1.60767         145.585         20.0316         194.935 
        1.61994         143.123         19.6699         193.053 
        1.63225         141.023         19.3164         191.062 
        1.64452         138.759         18.9725         189.362 
        1.65676          136.95         18.6381         187.728 
          1.669          135.54         18.3115         185.936 
        1.68133          132.93         17.9907         184.239 
        1.69363         130.679         17.6785         182.662 
        1.70585         128.668         17.3758         181.004 
        1.71809           127.1         17.0795         179.049 
        1.73038         125.773         16.7892         177.588 
        1.74268          124.61         16.5054         175.854 
        1.75493         121.464         16.2296         174.413 
        1.76714         121.049         15.9608         172.916 
        1.77942         118.625         15.6966          171.25 
        1.79173         116.778         15.4378         169.708 
        1.80402          115.51         15.1854         168.197 
         1.8163         113.273         14.9388         166.826 
         1.8286         111.903         14.6972          165.21 
         1.8409         110.839         14.4612         163.675 
        1.85315         108.516         14.2311         162.338 
        1.86537         107.657         14.0065         160.985 
        1.87765         106.321          13.786         159.609 
        1.88995          104.37         13.5696         158.097 
        1.90221          103.17         13.3587         156.853 
        1.91445         101.727         13.1526         155.337 
        1.92674         100.183         12.9501          153.99 
        1.93902         98.9069         12.7519         152.604 
        1.95124         97.6411         12.5589         151.317 
         1.9635          96.045         12.3694         149.995 
        1.97583         94.6118         12.1826         148.703 
        1.98812         93.3389         12.0004         147.611 
        2.00039         92.3003         11.8223         146.207 
        2.01264         91.1611          11.648         145.006 
        2.02492         90.1026         11.4769         143.685 
        2.03717         88.6299         11.3095          142.55 
        2.04942         87.6882         11.1458         141.356 
        2.06171         86.0027         10.9846         140.115 
        2.07397         85.1084         10.8271          139.03 
        2.08629         83.9232          10.672         137.818 
        2.09857         82.8554         10.5202         136.709 
        2.11081         81.4953         10.3721         135.448 
        2.12309         80.4566         10.2264         134.438 
        2.13538         79.2835         10.0834         133.254 
        2.14763         78.2573         9.94356         132.183 
        2.15986         77.2868         9.80669         131.008 
        2.17214         76.3082         9.67185          129.98 
        2.18443         75.3214         9.53942         129.076 
        2.19671         74.3351         9.40963         127.957 
        2.20898         73.4899         9.28241         126.812 
        2.22126         72.3883          9.1574          125.87 
        2.23354         71.5776         9.03475         124.861 
         2.2458         70.1971         8.91455         123.832 
        2.25807         69.4999         8.79643         122.829 
        2.27035          68.498         8.68035         121.827 
        2.28263         67.6594         8.56643         120.896 
         2.2949         66.4593          8.4546         119.942 
        2.30718         65.5845         8.34474         118.975 
        2.31946         65.0665         8.23678         117.955 
        2.33169         63.9823          8.1312         117.067 
        2.34393         63.5322          8.0273         116.236 
        2.35622         62.3254         7.92489          115.26 
        2.36847         61.8343         7.82455         114.472 
        2.38076         60.7454         7.72565         113.443 
        2.39305         60.1545         7.62849         112.673 
        2.40534          59.304         7.53299         111.736 
        2.41762         58.6083         7.43914         110.835 
        2.42989         57.7337         7.34703         110.041 
        2.44216         57.1809         7.25649         109.119 
         2.4544         56.2863         7.16768         108.325 
        2.46667         55.6032         7.08016         107.497 
        2.47897          55.019         6.99389         106.618 
        2.49124         54.4719         6.90929         105.835 
        2.50349         53.7131         6.82622          105.04 
        2.51578         53.1318         6.74427         104.336 
        2.52805         52.4432          6.6638         103.457 
        2.54029         51.9243         6.58485         102.659 
        2.55257          51.221         6.50694         101.955 
        2.56487           50.96         6.43015         101.205 
        2.57716         50.2673          6.3547         100.444 
        2.58942         49.5168         6.28063         99.7017 
        2.60167         48.9389         6.20781         98.9748 
        2.61395          48.582         6.13604         98.2331 
        2.62624         47.7679          6.0653         97.4531 
        2.63849         47.2836         5.99591         96.7645 
        2.65073         46.7359         5.92767         96.0632 
        2.66302          46.283         5.86025         95.3387 
         2.6753          45.788         5.79392         94.6778 
        2.68756         45.3802         5.72876         93.9564 
        2.69983         44.7969         5.66455         93.2989 
        2.71213         44.3437         5.60119         92.6316 
        2.72441           43.91         5.53891         91.9511 
        2.73665         43.4184         5.47773         91.3205 
         2.7489         42.9415         5.41751         90.6776 
        2.76118          42.548         5.35801         90.0065 
        2.77349         42.0754         5.29926         89.3777 
        2.78576         41.6913         5.24163         88.7154 
        2.79802         41.3405         5.18488         88.1588 
        2.81031         40.7511         5.12884         87.5122 
        2.82259           40.47         5.07365         86.8631 
        2.83483         39.9742         5.01948         86.3029 
         2.8471         39.6804           4.966         85.6746 
         2.8594          39.261         4.91313         85.0617 
         2.8717         39.0182         4.86105         84.5136 
        2.88396         38.6676         4.80992           83.92 
        2.89619         38.3733         4.75962         83.2906 
        2.90847         38.0043         4.70985         82.6875 
        2.92072         37.7563         4.66087         82.1753 
        2.93299         37.6188         4.61257         81.6329 
        2.94526         37.1976         4.56491         81.0585 
        2.95753         36.9645         4.51793         80.4873 
        2.96982         36.6019         4.47154         79.9521 
        2.98209         36.4543         4.42589         79.4221 
        2.99436         36.1353         4.38084         78.8494 
        3.00666         36.0576         4.33634         78.3214 
        3.01894         35.7407         4.29255         77.8002 
        3.03119          35.608         4.24942         77.2989 
        3.04345         35.4261         4.20688          76.792 
        3.05573         35.1895         4.16484         76.2693 
          3.068         35.0479         4.12342         75.7642 
        3.08026         34.8529         4.08261         75.2557 
        3.09254         34.7643         4.04227          74.765 
        3.10483         34.7789         4.00247         74.2756 
         3.1171         34.5836         3.96326         73.7792 
        3.12933           34.41         3.92468         73.2894 
        3.14159         34.3523         3.88653         72.7952 
