# k  (h/Mpc)    Pcb(k)  (Mpc/h)^3    Pcb_linear(k) (Mpc/h)^3    Pcb_NL(k) (Mpc/h)^3   ShotnoiseSubtracted = false
      0.0156606         21469.4         21586.5         21416.7 
      0.0273761         18403.7         18662.8         18460.8 
      0.0384619         13918.1         14059.9         13880.9 
      0.0498308         10750.9         11058.8         10878.8 
      0.0625568          9084.3         9398.43         9238.19 
      0.0751274         8090.85         7984.88         7759.75 
      0.0867833         6268.37         6428.66         6359.06 
      0.0984825         5297.79         5087.43         5149.63 
       0.111151         4532.32         4247.89         4325.27 
       0.123864         4061.18         3828.19         3890.81 
       0.135742         3702.97         3442.49         3505.28 
        0.14762         3223.98         2943.49            3110 
       0.160083         2739.54         2453.56          2658.9 
       0.172465         2443.65         2141.49         2402.94 
       0.184281         2215.59          1974.2         2236.42 
       0.196406         2090.16         1823.16         2060.02 
       0.209011         1956.08         1622.15         1867.46 
       0.221538         1761.74          1417.6         1743.95 
       0.233611         1689.05         1268.39         1634.62 
       0.245665         1531.34         1170.67         1509.74 
       0.258103         1516.13         1089.79         1425.66 
       0.270422         1353.04         1001.39         1339.56 
       0.282519          1278.1          908.82         1268.46 
       0.294636         1255.68         828.035         1201.75 
       0.306978         1147.26         766.071         1151.83 
       0.319417          1124.9         716.232         1086.08 
        0.33169          1057.8         668.526         1028.73 
       0.343948         1015.49         619.428         997.193 
       0.356249         962.911         573.383         960.387 
       0.368458         925.518         534.816         917.906 
        0.38068          910.69         502.563         883.114 
       0.392856         864.908         473.122         852.453 
       0.405069         821.059         444.334         825.034 
       0.417459         790.058         416.459          795.99 
       0.429752         786.056         391.437          768.28 
       0.441978         758.667         369.475          748.91 
       0.454294         725.526         349.532         718.528 
        0.46658         705.284          330.82         703.875 
       0.478753         692.014         313.167         682.648 
       0.490964         665.539         296.586         661.896 
       0.503334         637.089          281.28         647.253 
       0.515665         635.061         267.324         632.773 
       0.527909         609.098          254.44         619.462 
       0.540159           594.4         242.251          603.83 
        0.55248         582.799         230.685          588.23 
       0.564743         578.355         219.976         578.293 
        0.57686         558.929         210.133         563.086 
       0.589077         548.472         200.842         550.719 
       0.601441         536.734         192.007         540.021 
        0.61382         522.161         183.677         530.636 
       0.626067          516.79         175.904          520.74 
       0.638306         497.955         168.584         510.254 
       0.650632         493.463         161.648         498.072 
       0.662899         489.542         155.149         492.111 
       0.675076         473.483         149.059         485.314 
       0.687267         460.386         143.288         473.833 
       0.699615         458.545          137.75         466.381 
       0.711937         449.817         132.514          457.67 
       0.724148         435.198         127.596         451.523 
       0.736433         425.127         122.902         443.499 
       0.748747          419.94         118.438         435.677 
       0.761037         412.554         114.206         430.374 
       0.773197         406.841         110.225         423.392 
       0.785376         401.513         106.429         417.277 
       0.797761         389.803         102.753         410.992 
       0.810096         386.223         99.2657          405.83 
       0.822371         375.542         95.9568         399.236 
       0.834626          372.39         92.8049          394.53 
       0.846916         366.249         89.7871         388.371 
       0.859215         362.932         86.9025         382.738 
       0.871383         354.642         84.1739         377.686 
        0.88363         351.345         81.5469         373.862 
       0.895928         345.966         79.0226         368.028 
       0.908253         337.421          76.601         362.037 
       0.920535         331.864         74.2894         358.028 
       0.932774          326.47         72.0818         352.666 
        0.94508         321.754         69.9532           349.1 
       0.957324         319.193         67.9213         344.436 
        0.96953          315.08         65.9768          340.26 
       0.981769         307.389         64.1038         336.516 
       0.994071          306.38          62.295         332.405 
         1.0064         300.539         60.5532         327.573 
        1.01868          297.31         58.8834         323.395 
        1.03092         288.577         57.2843         320.556 
         1.0432         285.889         55.7391         316.679 
        1.05553         282.779         54.2452         312.343 
        1.06777         279.653         52.8171         308.876 
           1.08         273.334          51.442         305.444 
        1.09227         272.352         50.1117         301.771 
         1.1046         267.366         48.8236         298.886 
         1.1169         261.498         47.5833         294.901 
        1.12915          258.15         46.3923         292.001 
        1.14142         253.155         45.2398         288.501 
        1.15365         250.468         44.1301         285.466 
        1.16585         246.116         43.0606         282.222 
        1.17807         243.797         42.0254         279.306 
        1.19037         240.141         41.0176         276.917 
        1.20276         237.035         40.0361         273.295 
        1.21504         232.106         39.0946          270.25 
        1.22728         228.785         38.1874         267.157 
        1.23954         227.649         37.3069         264.681 
        1.25184         222.607         36.4525         261.857 
        1.26414          218.25         35.6247         259.358 
        1.27632         216.904           34.83         257.043 
         1.2886         215.274         34.0541         254.069 
        1.30093         210.053         33.2992         250.912 
        1.31316          205.79         32.5726         248.395 
        1.32541         204.766         31.8677         245.898 
        1.33772         201.543         31.1798         243.596 
        1.35005         199.138         30.5118         240.851 
        1.36225         195.437         29.8703         238.601 
        1.37447         192.569          29.246         235.683 
        1.38676         190.728         28.6367         233.998 
        1.39907         187.982         28.0438          231.19 
        1.41133         184.565         27.4703         228.821 
        1.42358         182.439         26.9134         226.666 
        1.43591         180.265         26.3682         224.574 
        1.44818         176.882         25.8411         222.268 
        1.46037         175.414         25.3316         219.888 
        1.47263         172.114          24.833         217.903 
        1.48494         170.517          24.346         215.253 
        1.49724         167.856         23.8724         213.849 
        1.50952         164.786         23.4125         211.473 
        1.52178          163.49         22.9653         209.257 
        1.53409          160.37          22.528         207.422 
        1.54637         158.167         22.1031          205.71 
        1.55858         156.347         21.6915         203.489 
        1.57081         153.767         21.2899         201.596 
        1.58313         151.783         20.8959         199.542 
        1.59544         149.046         20.5122         197.758 
        1.60767         147.815         20.1406         195.995 
        1.61994         145.326         19.7769         194.102 
        1.63225         143.203         19.4214           192.1 
        1.64452         140.913         19.0757         190.391 
        1.65676          139.08         18.7394         188.749 
          1.669         137.658         18.4111         186.947 
        1.68133         135.018         18.0885         185.241 
        1.69363         132.738         17.7747         183.656 
        1.70585         130.703         17.4702         181.988 
        1.71809         129.123         17.1723         180.023 
        1.73038         127.785         16.8805         178.554 
        1.74268         126.611         16.5952          176.81 
        1.75493         123.415         16.3178         175.361 
        1.76714         123.004         16.0475         173.856 
        1.77942         120.551          15.782         172.181 
        1.79173          118.68         15.5218         170.631 
        1.80402           117.4          15.268         169.112 
         1.8163          115.13           15.02         167.733 
         1.8286         113.745         14.7771         166.109 
         1.8409         112.669         14.5398         164.565 
        1.85315          110.32         14.3085         163.221 
        1.86537         109.448         14.0827          161.86 
        1.87765         108.097          13.861         160.477 
        1.88995         106.117         13.6434         158.956 
        1.90221         104.906         13.4314         157.706 
        1.91445         103.443         13.2241         156.182 
        1.92674         101.881         13.0206         154.828 
        1.93902         100.587         12.8213         153.434 
        1.95124         99.3084         12.6272          152.14 
         1.9635         97.6862         12.4367         150.811 
        1.97583         96.2353         12.2489         149.512 
        1.98812         94.9474         12.0657         148.414 
        2.00039          93.895         11.8866         147.002 
        2.01264         92.7409         11.7113         145.795 
        2.02492         91.6698         11.5393         144.466 
        2.03717         90.1763         11.3711         143.325 
        2.04942         89.2253         11.2064         142.124 
        2.06171          87.513         11.0444         140.877 
        2.07397          86.607          10.886         139.786 
        2.08629          85.407           10.73         138.567 
        2.09857         84.3222         10.5775         137.452 
        2.11081         82.9434         10.4285         136.185 
        2.12309         81.8899         10.2821         135.169 
        2.13538         80.7035         10.1382         133.979 
        2.14763         79.6594         9.99763         132.902 
        2.15986         78.6752         9.86003          131.72 
        2.17214         77.6832         9.72446         130.687 
        2.18443         76.6836          9.5913         129.778 
        2.19671         75.6824          9.4608         128.653 
        2.20898         74.8245         9.33289         127.502 
        2.22126          73.706         9.20721         126.554 
        2.23354         72.8854         9.08388          125.54 
         2.2458         71.4817         8.96303         124.506 
        2.25807         70.7761         8.84427         123.497 
        2.27035         69.7572         8.72756          122.49 
        2.28263         68.9068         8.61302         121.553 
         2.2949         67.6877         8.50059         120.594 
        2.30718         66.7997         8.39013         119.622 
        2.31946         66.2771         8.28158         118.596 
        2.33169         65.1741         8.17542         117.704 
        2.34393           64.72         8.07096         116.868 
        2.35622         63.4917         7.96799         115.887 
        2.36847         62.9944         7.86711         115.095 
        2.38076         61.8865         7.76767          114.06 
        2.39305         61.2891         7.66998         113.286 
        2.40534         60.4248         7.57396         112.344 
        2.41762         59.7147          7.4796         111.438 
        2.42989         58.8289         7.38699          110.64 
        2.44216         58.2647         7.29595         109.713 
         2.4544         57.3575         7.20667         108.914 
        2.46667         56.6657         7.11867         108.081 
        2.47897         56.0702         7.03193         107.198 
        2.49124         55.5141         6.94687         106.411 
        2.50349          54.746         6.86335         105.611 
        2.51578         54.1527         6.78095         104.904 
        2.52805         53.4554         6.70005          104.02 
        2.54029         52.9278         6.62067         103.217 
        2.55257         52.2107         6.54233          102.51 
        2.56487         51.9471         6.46512         101.755 
        2.57716         51.2424         6.38926          100.99 
        2.58942         50.4782         6.31479         100.244 
        2.60167         49.8912         6.24157         99.5131 
        2.61395         49.5301         6.16941         98.7674 
        2.62624         48.7012         6.09829         97.9831 
        2.63849         48.2082         6.02852         97.2908 
        2.65073         47.6528         5.95991         96.5857 
        2.66302         47.1906         5.89212         95.8572 
         2.6753          46.689         5.82544         95.1927 
        2.68756         46.2738         5.75991         94.4675 
        2.69983         45.6795         5.69536         93.8064 
        2.71213         45.2192         5.63165         93.1354 
        2.72441         44.7782         5.56904         92.4513 
        2.73665         44.2775         5.50753         91.8172 
         2.7489         43.7917         5.44698         91.1708 
        2.76118         43.3907         5.38715         90.4961 
        2.77349         42.9119         5.32809         89.8638 
        2.78576         42.5201         5.27014          89.198 
        2.79802         42.1634         5.21308         88.6383 
        2.81031         41.5626         5.15674         87.9882 
        2.82259         41.2783         5.10125         87.3356 
        2.83483         40.7727         5.04678         86.7723 
         2.8471         40.4756         4.99301         86.1406 
         2.8594         40.0477         4.93986         85.5244 
         2.8717         39.8011         4.88749         84.9733 
        2.88396         39.4427         4.83609         84.3764 
        2.89619         39.1446         4.78551         83.7436 
        2.90847         38.7685         4.73547         83.1373 
        2.92072         38.5157         4.68622         82.6223 
        2.93299         38.3771         4.63766          82.077 
        2.94526         37.9472         4.58974         81.4994 
        2.95753         37.7109          4.5425         80.9251 
        2.96982         37.3418         4.49586         80.3869 
        2.98209         37.1901         4.44996         79.8541 
        2.99436         36.8656         4.40467         79.2783 
        3.00666         36.7879         4.35993         78.7474 
        3.01894         36.4639          4.3159         78.2233 
        3.03119         36.3315         4.27253         77.7194 
        3.04345         36.1452         4.22977         77.2097 
        3.05573         35.9035          4.1875         76.6841 
          3.068         35.7596         4.14585         76.1763 
        3.08026         35.5618         4.10481          75.665 
        3.09254         35.4713         4.06426         75.1717 
        3.10483         35.4856         4.02424         74.6796 
         3.1171         35.2865         3.98481         74.1805 
        3.12933         35.1116         3.94603          73.688 
        3.14159         35.0528         3.90767         73.1911 
