# k  (h/Mpc)    Pcb(k)  (Mpc/h)^3    Pcb_linear(k) (Mpc/h)^3    Pcb_NL(k) (Mpc/h)^3   ShotnoiseSubtracted = false
      0.0156606         6603.91         6615.27          6578.7 
      0.0273761          5715.5         5722.38            5697 
      0.0384619         4341.72         4312.13          4296.3 
      0.0498308         3388.24          3392.2         3378.55 
      0.0625568         2859.14         2883.18         2869.12 
      0.0751274         2500.44         2449.69         2427.96 
      0.0867833          1966.6         1972.33         1967.73 
      0.0984825         1614.11         1560.87         1571.44 
       0.111151         1358.95         1303.32         1314.14 
       0.123864         1220.84         1174.57         1183.63 
       0.135742         1100.61         1056.24         1065.55 
        0.14762         939.962         903.143          925.58 
       0.160083         781.035         752.825          778.47 
       0.172465         693.142         657.075         688.609 
       0.184281         641.294         605.747         639.018 
       0.196406         585.977         559.407         586.069 
       0.209011         533.914         497.731         527.009 
       0.221538          478.78         434.971         475.898 
       0.233611         437.869         389.186         434.982 
       0.245665         409.862         359.205         400.184 
       0.258103         375.874         334.389         375.185 
       0.270422         349.139         307.265         347.576 
       0.282519         318.294          278.86          321.26 
       0.294636         311.432         254.073         298.773 
       0.306978         275.162          235.06         281.514 
       0.319417         263.645         219.768         264.413 
        0.33169         246.383          205.13         248.233 
       0.343948         235.158         190.065         235.114 
       0.356249         218.298         175.937         223.374 
       0.368458         210.326         164.103         209.425 
        0.38068         199.354         154.206         198.984 
       0.392856         185.968         145.173         190.057 
       0.405069         177.496         136.339         181.421 
       0.417459         168.782         127.786         171.663 
       0.429752          162.32         120.109         164.375 
       0.441978         155.943          113.37         158.544 
       0.454294         145.155         107.251         150.495 
        0.46658         145.362         101.509          145.12 
       0.478753         136.261         96.0924         139.604 
       0.490964         132.117         91.0046         134.194 
       0.503334         125.918         86.3083         129.406 
       0.515665         122.113          82.026         125.895 
       0.527909         118.041         78.0727         120.095 
       0.540159         113.991         74.3327         116.473 
        0.55248         109.485         70.7838         112.317 
       0.564743         106.619         67.4977         109.177 
        0.57686         103.293         64.4775         105.533 
       0.589077         98.4685         61.6266         102.806 
       0.601441         96.1556         58.9157         99.8838 
        0.61382         94.0889         56.3597         96.6469 
       0.626067         90.2508         53.9745         94.1268 
       0.638306         87.3762         51.7285         91.5806 
       0.650632         84.2618         49.6005         88.3466 
       0.662899         83.5539         47.6063          86.173 
       0.675076          80.435         45.7374         84.0038 
       0.687267         78.8749         43.9666         81.8638 
       0.699615         76.2521         42.2673          80.178 
       0.711937         73.7283         40.6609         77.7057 
       0.724148         73.1968         39.1517         76.5694 
       0.736433         69.8009         37.7116         74.4166 
       0.748747         68.7069         36.3418            72.7 
       0.761037         66.9788         35.0433         70.9704 
       0.773197          65.522         33.8217         69.9666 
       0.785376          63.666         32.6569         68.1488 
       0.797761         63.0914          31.529         66.9856 
       0.810096         61.0408         30.4589         65.4167 
       0.822371         59.8682         29.4436         64.0342 
       0.834626         58.3899         28.4764         62.9718 
       0.846916         57.2978         27.5504         61.7357 
       0.859215         55.8731         26.6653         60.4258 
       0.871383         55.1365         25.8281         59.3938 
        0.88363         53.6537          25.022         58.4986 
       0.895928         52.4564         24.2475         57.3397 
       0.908253           51.29         23.5044         56.3975 
       0.920535         50.8616         22.7951         55.3971 
       0.932774         49.8889         22.1177         54.4505 
        0.94508         49.0975         21.4646         53.3933 
       0.957324         47.8606         20.8411         52.6502 
        0.96953         47.5528         20.2444         51.6713 
       0.981769          46.108         19.6697         51.0101 
       0.994071         45.4698         19.1147         50.2188 
         1.0064         44.4884         18.5803         49.4073 
        1.01868         43.6827         18.0679         48.7127 
        1.03092         43.1514         17.5772         47.9414 
         1.0432         42.3528         17.1031         47.1073 
        1.05553          41.382         16.6447         46.7395 
        1.06777         40.7375         16.2065         45.9242 
           1.08         39.7774         15.7846         45.2324 
        1.09227         39.3652         15.3764         44.6541 
         1.1046         38.7881         14.9811         43.9756 
         1.1169         38.2984         14.6006         43.3587 
        1.12915         37.6445         14.2351         42.8372 
        1.14142         36.8482         13.8815         42.2688 
        1.15365         36.3817          13.541         41.7603 
        1.16585          35.834         13.2128         41.1632 
        1.17807         35.2203         12.8952          40.566 
        1.19037         35.0554         12.5859          40.229 
        1.20276         34.5007         12.2848         39.6862 
        1.21504         33.8682         11.9959         39.2635 
        1.22728         33.2863         11.7175         38.7503 
        1.23954          32.912         11.4473          38.192 
        1.25184         32.3105         11.1852         37.8205 
        1.26414         31.9106         10.9312         37.3201 
        1.27632         31.6168         10.6873         36.9092 
         1.2886         31.2718         10.4492         36.5159 
        1.30093         30.6292         10.2176          36.067 
        1.31316         30.2192         9.99466         35.7089 
        1.32541         29.9648         9.77836         35.3191 
        1.33772         29.4056         9.56729          34.939 
        1.35005         29.0358         9.36232         34.5869 
        1.36225         28.6183         9.16546         34.2433 
        1.37447         27.9797          8.9739         33.8294 
        1.38676         27.9671         8.78695         33.5399 
        1.39907         27.5092         8.60503         33.2079 
        1.41133         26.9997         8.42905         32.8234 
        1.42358         26.7389         8.25818         32.4914 
        1.43591         26.3482         8.09088         32.2038 
        1.44818         26.1018         7.92915         31.8523 
        1.46037         25.8256         7.77281         31.5173 
        1.47263         25.5498         7.61982         31.2712 
        1.48494          25.166         7.47038         30.9334 
        1.49724         25.0788         7.32507         30.6475 
        1.50952         24.5871         7.18393          30.406 
        1.52178         24.2848         7.04672         30.0785 
        1.53409         24.0151         6.91255         29.8147 
        1.54637         23.7838         6.78216         29.5006 
        1.55858         23.2587         6.65588         29.2587 
        1.57081         23.2585         6.53264         29.0132 
        1.58313         22.9833         6.41176         28.7244 
        1.59544         22.5563         6.29401         28.4992 
        1.60767         22.3328         6.17997         28.2027 
        1.61994         22.0211         6.06837         27.9896 
        1.63225         21.9471          5.9593         27.7927 
        1.64452         21.5731         5.85322         27.5498 
        1.65676         21.3758         5.75005         27.2869 
          1.669         21.1797          5.6493         27.0799 
        1.68133         20.8319         5.55033         26.8399 
        1.69363         20.6081         5.45401         26.5471 
        1.70585         20.4022         5.36061         26.4201 
        1.71809         20.1168          5.2692         26.1613 
        1.73038         19.9659         5.17964         25.9819 
        1.74268         19.7818         5.09211         25.7208 
        1.75493         19.4672           5.007         25.5407 
        1.76714         19.4178         4.92406          25.341 
        1.77942          19.202         4.84258          25.121 
        1.79173         18.7958         4.76274         24.9356 
        1.80402         18.6249         4.68486          24.793 
         1.8163         18.5455         4.60877         24.5215 
         1.8286         18.2592         4.53425         24.3719 
         1.8409         18.0702         4.46143         24.1901 
        1.85315         17.9241         4.39046         24.0058 
        1.86537         17.6793         4.32117          23.825 
        1.87765         17.5617         4.25313         23.6388 
        1.88995         17.3169         4.18638         23.4457 
        1.90221         17.1779         4.12131         23.2714 
        1.91445         16.9903         4.05772         23.0946 
        1.92674         16.8187         3.99526         22.9279 
        1.93902         16.6205         3.93411         22.7891 
        1.95124         16.3922         3.87457         22.6641 
         1.9635          16.267          3.8161         22.4485 
        1.97583         16.1098         3.75848         22.2723 
        1.98812         15.9576         3.70226         22.1447 
        2.00039         15.8324         3.64731         21.9779 
        2.01264         15.6618         3.59353         21.8389 
        2.02492         15.5015         3.54075         21.6506 
        2.03717         15.3144         3.48912         21.5107 
        2.04942         15.1704         3.43859         21.3508 
        2.06171         15.0589         3.38889         21.2042 
        2.07397         14.9207         3.34027          21.056 
        2.08629         14.7855         3.29242         20.9136 
        2.09857         14.6543         3.24561         20.7748 
        2.11081         14.4704         3.19991         20.6396 
        2.12309         14.3209         3.15497         20.4889 
        2.13538         14.1641         3.11084         20.3438 
        2.14763         14.0385          3.0677         20.2184 
        2.15986         14.0063         3.02547         20.1004 
        2.17214         13.8223         2.98387          19.954 
        2.18443         13.6523         2.94302         19.8189 
        2.19671         13.5646         2.90298         19.6753 
        2.20898         13.4236         2.86373         19.5578 
        2.22126         13.2927         2.82516          19.433 
        2.23354         13.2434         2.78732         19.2926 
         2.2458         13.0671         2.75024         19.2005 
        2.25807         12.9335          2.7138         19.0345 
        2.27035         12.8457         2.67799         18.9239 
        2.28263         12.7185         2.64284         18.7991 
         2.2949         12.6333         2.60834         18.6936 
        2.30718         12.5354         2.57445         18.5866 
        2.31946         12.3996         2.54114          18.454 
        2.33169         12.2851         2.50857         18.3378 
        2.34393         12.1848         2.47651          18.232 
        2.35622         12.0377         2.44492          18.115 
        2.36847         11.9691         2.41396          17.997 
        2.38076         11.8417         2.38345         17.8887 
        2.39305         11.7216         2.35347         17.7708 
        2.40534         11.6515         2.32401         17.6449 
        2.41762         11.5545         2.29506         17.5631 
        2.42989         11.4732         2.26664         17.4458 
        2.44216         11.3646         2.23871         17.3294 
         2.4544         11.2985         2.21131         17.2209 
        2.46667          11.198         2.18431         17.1286 
        2.47897         11.0832         2.15769         17.0116 
        2.49124         10.9998         2.13159         16.9121 
        2.50349         10.9079         2.10597         16.8055 
        2.51578         10.8242         2.08068         16.7233 
        2.52805         10.7462         2.05586         16.6191 
        2.54029         10.6783          2.0315          16.521 
        2.55257         10.6201         2.00746         16.4178 
        2.56487         10.4521         1.98377         16.3169 
        2.57716           10.41          1.9605         16.2118 
        2.58942         10.3522         1.93764         16.1351 
        2.60167          10.274         1.91518         16.0417 
        2.61395         10.2269         1.89304         15.9417 
        2.62624         10.1236         1.87121         15.8519 
        2.63849         10.0473          1.8498         15.7694 
        2.65073         9.98672         1.82875         15.6662 
        2.66302         9.91699         1.80795          15.579 
         2.6753         9.86889         1.78749         15.4842 
        2.68756         9.81182         1.76739         15.4077 
        2.69983         9.72329         1.74758         15.3081 
        2.71213         9.67065         1.72803         15.2123 
        2.72441         9.60456         1.70882         15.1338 
        2.73665         9.59003         1.68994         15.0423 
         2.7489         9.51291         1.67136         14.9509 
        2.76118         9.41634         1.65301         14.8765 
        2.77349         9.38434         1.63488         14.7917 
        2.78576         9.33586          1.6171         14.7117 
        2.79802         9.28428         1.59959         14.6243 
        2.81031         9.24164          1.5823         14.5431 
        2.82259          9.2038         1.56528         14.4617 
        2.83483         9.13423         1.54857         14.3817 
         2.8471         9.09356         1.53207         14.3035 
         2.8594         9.07537         1.51576         14.2221 
         2.8717          9.0278         1.49969         14.1412 
        2.88396         8.97945         1.48392         14.0643 
        2.89619         8.92706          1.4684         13.9889 
        2.90847          8.8916         1.45304         13.9109 
        2.92072         8.89418         1.43793         13.8273 
        2.93299          8.8307         1.42303         13.7586 
        2.94526         8.82313         1.40833         13.6865 
        2.95753          8.7896         1.39383         13.6082 
        2.96982         8.74636         1.37952         13.5325 
        2.98209         8.73712         1.36544         13.4568 
        2.99436          8.7222         1.35154         13.3821 
        3.00666         8.69277         1.33781         13.3127 
        3.01894         8.67263          1.3243         13.2495 
        3.03119         8.66378         1.31099          13.173 
        3.04345         8.61681         1.29787          13.094 
        3.05573         8.64614          1.2849         13.0273 
          3.068         8.61957         1.27212         12.9625 
        3.08026         8.63157         1.25953         12.8842 
        3.09254         8.62416         1.24709         12.8204 
        3.10483         8.61933         1.23481         12.7606 
         3.1171         8.62474         1.22271         12.6899 
        3.12933         8.63953         1.21081           12.62 
        3.14159          8.6005         1.19904         12.5539 
