# k  (h/Mpc)    Pcb(k)  (Mpc/h)^3    Pcb_linear(k) (Mpc/h)^3    Pcb_NL(k) (Mpc/h)^3   ShotnoiseSubtracted = false
      0.0156606         779.456         780.002         776.404 
      0.0273761         679.358         675.223         673.851 
      0.0384619         516.013         508.973         508.935 
      0.0498308         405.939         400.455         400.711 
      0.0625568         342.617         340.397         340.239 
      0.0751274         293.696         289.234         288.754 
      0.0867833         234.836          232.88         232.841 
      0.0984825         188.422         184.303         184.649 
       0.111151         157.442         153.895         154.204 
       0.123864          141.34         138.694         138.827 
       0.135742         126.808         124.722         124.811 
        0.14762         107.832         106.645         106.999 
       0.160083         89.7536         88.8958         89.3518 
       0.172465         78.6012         77.5897         78.1203 
       0.184281         72.7247          71.529         72.0647 
       0.196406         66.5496         66.0572         66.4378 
       0.209011         59.5568         58.7743         59.2292 
       0.221538         52.4587         51.3634         52.0293 
       0.233611         46.9899         45.9571          46.696 
       0.245665         43.8218         42.4168         43.0633 
       0.258103         39.7885         39.4865         40.1221 
       0.270422         37.1203         36.2835         36.8915 
       0.282519         33.6739         32.9294         33.5972 
       0.294636         31.3275         30.0024         30.7084 
       0.306978         28.1458         27.7573         28.4825 
       0.319417         26.6506         25.9515         26.6537 
        0.33169         24.7969          24.223         24.8983 
       0.343948         23.2481          22.444         23.1161 
       0.356249         21.2891         20.7757         21.5466 
       0.368458         20.0822         19.3783         20.0607 
        0.38068         18.7357         18.2097         18.8887 
       0.392856         17.6182         17.1429         17.8283 
       0.405069         16.6315         16.0998         16.7475 
       0.417459         15.3573         15.0898         15.7705 
       0.429752         14.6037         14.1832         14.8532 
       0.441978         13.8629         13.3875         14.0964 
       0.454294         12.9709         12.6648         13.3342 
        0.46658         12.5496         11.9868         12.6413 
       0.478753         11.7586         11.3472         11.9979 
       0.490964         11.2667         10.7464         11.4342 
       0.503334         10.7318         10.1919         10.8366 
       0.515665         10.0964         9.68617         10.3648 
       0.527909         9.68186         9.21935          9.8447 
       0.540159         9.17327         8.77769         9.39328 
        0.55248         8.63905         8.35862           8.949 
       0.564743         8.43326         7.97057         8.60117 
        0.57686         8.06111         7.61394         8.22097 
       0.589077         7.58438         7.27728         7.90367 
       0.601441         7.27869         6.95716         7.56981 
        0.61382         6.97831         6.65533          7.2453 
       0.626067         6.66797         6.37367         6.95863 
       0.638306         6.42309         6.10845          6.6808 
       0.650632         6.22833         5.85716         6.43745 
       0.662899         5.94258         5.62167         6.18246 
       0.675076         5.64857         5.40099         5.95869 
       0.687267         5.45241         5.19187         5.72425 
       0.699615         5.30173         4.99121          5.5185 
       0.711937          5.0419         4.80152          5.3386 
       0.724148         4.93298          4.6233         5.14975 
       0.736433         4.68617         4.45324         4.95974 
       0.748747         4.53298         4.29148          4.8127 
       0.761037          4.3919         4.13815         4.64477 
       0.773197          4.2048         3.99389         4.50567 
       0.785376         4.05759         3.85635         4.35467 
       0.797761         3.92492         3.72316         4.20533 
       0.810096          3.8253         3.59679         4.09303 
       0.822371         3.72124          3.4769         3.95251 
       0.834626         3.59095         3.36269         3.83001 
       0.846916         3.45978         3.25334          3.7288 
       0.859215         3.32197         3.14882          3.6229 
       0.871383         3.22302         3.04996         3.51393 
        0.88363         3.13464         2.95477         3.41365 
       0.895928         3.05833         2.86331         3.31258 
       0.908253         2.96205         2.77556         3.22178 
       0.920535         2.87062          2.6918         3.12723 
       0.932774         2.78625         2.61181         3.03462 
        0.94508         2.70687         2.53468         2.95814 
       0.957324         2.63603         2.46106         2.88825 
        0.96953         2.54645          2.3906         2.81023 
       0.981769         2.46599         2.32274         2.72841 
       0.994071         2.41461          2.2572         2.66972 
         1.0064         2.33902         2.19409         2.59813 
        1.01868         2.26193         2.13358         2.53267 
        1.03092         2.23085         2.07564         2.46457 
         1.0432         2.15495         2.01965         2.40687 
        1.05553         2.10047         1.96552         2.35301 
        1.06777         2.03705         1.91377         2.29829 
           1.08         1.99737         1.86395         2.24031 
        1.09227         1.93076         1.81575         2.18598 
         1.1046         1.88676         1.76908         2.13911 
         1.1169         1.83541         1.72413         2.08911 
        1.12915         1.79423         1.68098          2.0426 
        1.14142         1.75116         1.63922         1.99523 
        1.15365          1.7107         1.59901          1.9538 
        1.16585         1.66998         1.56026         1.90924 
        1.17807         1.64274         1.52275          1.8696 
        1.19037         1.57814         1.48623         1.82655 
        1.20276         1.54602         1.45067         1.78434 
        1.21504         1.51546         1.41656         1.75496 
        1.22728          1.4842         1.38368         1.71137 
        1.23954         1.44965         1.35178         1.68359 
        1.25184          1.4208         1.32082          1.6434 
        1.26414         1.38709         1.29083         1.60891 
        1.27632         1.34577         1.26203         1.57979 
         1.2886         1.32257         1.23392         1.54474 
        1.30093         1.28381         1.20656          1.5197 
        1.31316         1.24792         1.18024         1.48777 
        1.32541         1.23113          1.1547         1.46119 
        1.33772         1.21002         1.12977         1.43298 
        1.35005         1.18674         1.10557          1.4067 
        1.36225         1.15853         1.08232         1.37797 
        1.37447         1.13498          1.0597         1.35555 
        1.38676         1.11008         1.03762         1.32725 
        1.39907         1.08598         1.01614         1.30568 
        1.41133         1.05903        0.995361         1.28167 
        1.42358         1.04921        0.975183         1.25519 
        1.43591         1.02447        0.955427         1.23932 
        1.44818         1.00384        0.936329         1.21674 
        1.46037         0.97958        0.917867         1.19238 
        1.47263        0.959401        0.899801         1.17394 
        1.48494        0.944206        0.882154         1.15419 
        1.49724        0.924836        0.864995         1.13461 
        1.50952        0.907733        0.848328         1.11219 
        1.52178        0.886594        0.832125         1.09554 
        1.53409        0.873565        0.816282          1.0768 
        1.54637        0.850712        0.800885          1.0579 
        1.55858        0.839814        0.785972         1.04129 
        1.57081        0.828116        0.771419          1.0233 
        1.58313         0.80957        0.757145         1.00968 
        1.59544        0.795576         0.74324        0.991847 
        1.60767        0.781986        0.729774        0.976414 
        1.61994        0.764612        0.716596        0.962324 
        1.63225        0.751865        0.703716        0.947789 
        1.64452        0.740498        0.691189        0.931655 
        1.65676        0.726087        0.679006        0.918033 
          1.669         0.71429        0.667108        0.902845 
        1.68133        0.700167        0.655421        0.890909 
        1.69363        0.692128        0.644048        0.876903 
        1.70585        0.677301        0.633018        0.864347 
        1.71809        0.666654        0.622224        0.851051 
        1.73038         0.65311        0.611648        0.838864 
        1.74268        0.640452        0.601312        0.825767 
        1.75493        0.635595        0.591262        0.815606 
        1.76714        0.621868        0.581468         0.80291 
        1.77942        0.609284        0.571846        0.791623 
        1.79173         0.60216        0.562417        0.779626 
        1.80402        0.592424        0.553221        0.769075 
         1.8163        0.582575        0.544236        0.756941 
         1.8286        0.568915        0.535435        0.749601 
         1.8409         0.56435        0.526837        0.737816 
        1.85315        0.556247        0.518456        0.727286 
        1.86537        0.543373        0.510274        0.718047 
        1.87765        0.536148        0.502239        0.707724 
        1.88995        0.528755        0.494357        0.699255 
        1.90221        0.519562        0.486673        0.689286 
        1.91445          0.5129        0.479164        0.680618 
        1.92674        0.503413        0.471788        0.671828 
        1.93902         0.49455        0.464567        0.662228 
        1.95124        0.487826        0.457536        0.653658 
         1.9635        0.482223        0.450632        0.645049 
        1.97583        0.473307        0.443827         0.63632 
        1.98812        0.466616        0.437189        0.629919 
        2.00039        0.459929          0.4307        0.620864 
        2.01264        0.453921        0.424349        0.613437 
        2.02492        0.447208        0.418116        0.606091 
        2.03717        0.440039         0.41202        0.598521 
        2.04942        0.433928        0.406052        0.590616 
        2.06171        0.428053        0.400183        0.583423 
        2.07397        0.420498        0.394443         0.57682 
        2.08629        0.416835        0.388791        0.569505 
        2.09857        0.409354        0.383264        0.562887 
        2.11081        0.402753        0.377867        0.555462 
        2.12309        0.397839        0.372561        0.549817 
        2.13538        0.391761        0.367349        0.542784 
        2.14763        0.387666        0.362255        0.536798 
        2.15986         0.38217        0.357269        0.530971 
        2.17214        0.376106        0.352357        0.524209 
        2.18443        0.372124        0.347532        0.517982 
        2.19671        0.366995        0.342804        0.512576 
        2.20898          0.3619        0.338169        0.506325 
        2.22126        0.356367        0.333615        0.500912 
        2.23354        0.352691        0.329146        0.495674 
         2.2458        0.349119        0.324767        0.488957 
        2.25807        0.343979        0.320464        0.484433 
        2.27035          0.3392        0.316235        0.478767 
        2.28263        0.334589        0.312085        0.473824 
         2.2949        0.330931        0.308011        0.468297 
        2.30718        0.326688        0.304009        0.463469 
        2.31946        0.323582        0.300075        0.458627 
        2.33169        0.317878        0.296229        0.453358 
        2.34393         0.31455        0.292444         0.44893 
        2.35622        0.310786        0.288713        0.443582 
        2.36847        0.307845        0.285057        0.439089 
        2.38076        0.303599        0.281454        0.434543 
        2.39305         0.29955        0.277914        0.430134 
        2.40534        0.296223        0.274435        0.425778 
        2.41762        0.293544        0.271016        0.421095 
        2.42989        0.289071        0.267661        0.416593 
        2.44216          0.2866        0.264362        0.412669 
         2.4544        0.283636        0.261127        0.408573 
        2.46667        0.280545        0.257938        0.404052 
        2.47897        0.276901        0.254795        0.400171 
        2.49124        0.273823        0.251714        0.396081 
        2.50349        0.270057        0.248687        0.392011 
        2.51578        0.267668        0.245701        0.388134 
        2.52805        0.265888         0.24277        0.384436 
        2.54029        0.262847        0.239894        0.380735 
        2.55257        0.259165        0.237055        0.377223 
        2.56487        0.257192        0.234258        0.373386 
        2.57716        0.254514        0.231509        0.369742 
        2.58942         0.25237         0.22881        0.366151 
        2.60167        0.249149        0.226158        0.362474 
        2.61395         0.24665        0.223543        0.359297 
        2.62624        0.244056        0.220966        0.356036 
        2.63849        0.242696        0.218438        0.352568 
        2.65073        0.239529        0.215952        0.349147 
        2.66302        0.237857        0.213496        0.345862 
         2.6753        0.235344        0.211079        0.342663 
        2.68756        0.233822        0.208705        0.339585 
        2.69983        0.230965        0.206366        0.336154 
        2.71213         0.22851        0.204058        0.333258 
        2.72441        0.227227        0.201789        0.330441 
        2.73665        0.225353         0.19956         0.32741 
         2.7489        0.223906        0.197366        0.324387 
        2.76118        0.222375        0.195199        0.321505 
        2.77349        0.219532        0.193058        0.318749 
        2.78576        0.218535        0.190959        0.315874 
        2.79802        0.216766        0.188891        0.312734 
        2.81031        0.215153         0.18685        0.310333 
        2.82259        0.213637        0.184839        0.307322 
        2.83483        0.211693        0.182866        0.304587 
         2.8471        0.210404        0.180917        0.302326 
         2.8594        0.209084        0.178991        0.299766 
         2.8717        0.208158        0.177094        0.297035 
        2.88396        0.207011        0.175231        0.294564 
        2.89619        0.205316        0.173399         0.29217 
        2.90847        0.204347        0.171585        0.289725 
        2.92072        0.202472        0.169801        0.287055 
        2.93299        0.201653        0.168041        0.284566 
        2.94526         0.20061        0.166305        0.282312 
        2.95753        0.199963        0.164593        0.280054 
        2.96982        0.198654        0.162903        0.277594 
        2.98209        0.198014         0.16124        0.275154 
        2.99436        0.196588        0.159599        0.272952 
        3.00666        0.196455        0.157978        0.270781 
        3.01894        0.195603        0.156383        0.268665 
        3.03119         0.19496        0.154811        0.266408 
        3.04345        0.193951        0.153262        0.264312 
        3.05573        0.193792         0.15173        0.262331 
          3.068        0.192999        0.150221        0.260053 
        3.08026        0.192342        0.148734         0.25791 
        3.09254        0.192771        0.147265        0.255942 
        3.10483        0.192119        0.145815        0.253998 
         3.1171        0.191583        0.144386         0.25192 
        3.12933        0.191563        0.142981        0.249832 
        3.14159        0.190951        0.141591        0.248036 
