# k  (h/Mpc)    Pcb(k)  (Mpc/h)^3    Pcb_linear(k) (Mpc/h)^3    Pcb_NL(k) (Mpc/h)^3   ShotnoiseSubtracted = false
      0.0156606         249.863         250.695         249.545 
      0.0273761         218.116         217.085         216.656 
      0.0384619         165.604         163.651         163.656 
      0.0498308         130.514         128.764         128.862 
      0.0625568           110.2         109.456         109.415 
      0.0751274         94.0206         93.0051         92.8673 
      0.0867833         75.4987         74.8848         74.8732 
      0.0984825         60.2934         59.2646         59.3629 
       0.111151          50.356         49.4867         49.5729 
       0.123864         45.1994         44.5986         44.6279 
       0.135742         40.5485          40.106         40.1197 
        0.14762         34.5706         34.2932         34.3781 
       0.160083         28.8244         28.5857         28.7016 
       0.172465         25.1935         24.9501         25.0838 
       0.184281         23.2615         23.0012          23.133 
       0.196406          21.344         21.2416         21.3323 
       0.209011         19.0569         18.8997         19.0102 
       0.221538         16.7426         16.5167          16.682 
       0.233611         14.9765         14.7782          14.962 
       0.245665         13.9101         13.6397         13.7995 
       0.258103         12.7407         12.6975         12.8536 
       0.270422          11.814         11.6675         11.8165 
       0.282519         10.7268          10.589         10.7539 
       0.294636         9.88102         9.64773         9.82251 
       0.306978         8.97933         8.92578         9.10514 
       0.319417         8.46608          8.3451         8.51853 
        0.33169         7.88592         7.78927         7.95572 
       0.343948         7.35554         7.21722         7.38258 
       0.356249         6.75769         6.68073         6.87193 
       0.368458         6.34247         6.23138         6.39963 
        0.38068         5.92723          5.8556           6.023 
       0.392856         5.58646         5.51257         5.68151 
       0.405069         5.27169         5.17715         5.33627 
       0.417459         4.87228         4.85237         5.02063 
       0.429752         4.61363         4.56082         4.72608 
       0.441978         4.37422         4.30494         4.48039 
       0.454294          4.1139         4.07258         4.23805 
        0.46658         3.93261         3.85455         4.01593 
       0.478753         3.70848         3.64887         3.80902 
       0.490964          3.5371         3.45568         3.62603 
       0.503334         3.36622         3.27735         3.43621 
       0.515665         3.17167         3.11474         3.28229 
       0.527909         3.04148         2.96462         3.11891 
       0.540159         2.87862          2.8226         2.97414 
        0.55248         2.72878         2.68784         2.83252 
       0.564743         2.63886         2.56306         2.71897 
        0.57686         2.51682         2.44838         2.59782 
       0.589077         2.37995         2.34012           2.495 
       0.601441         2.28969         2.23718         2.38833 
        0.61382         2.19156         2.14012         2.28553 
       0.626067         2.09089         2.04955         2.19342 
       0.638306          2.0131         1.96427          2.1051 
       0.650632         1.94419         1.88346         2.02649 
       0.662899         1.86666         1.80774         1.94558 
       0.675076         1.77437         1.73677         1.87429 
       0.687267         1.70329         1.66953         1.80002 
       0.699615         1.65849           1.605         1.73412 
       0.711937         1.58847           1.544         1.67637 
       0.724148         1.54022         1.48669         1.61595 
       0.736433         1.47353         1.43201          1.5559 
       0.748747         1.42229         1.37999         1.50853 
       0.761037         1.36756         1.33069         1.45494 
       0.773197         1.31866          1.2843         1.41021 
       0.785376         1.27253         1.24007         1.36241 
       0.797761         1.23014         1.19724         1.31513 
       0.810096         1.20105          1.1566          1.2785 
       0.822371         1.16214         1.11805         1.23435 
       0.834626         1.12577         1.08133         1.19524 
       0.846916         1.08862         1.04616         1.16326 
       0.859215         1.04509         1.01255         1.12931 
       0.871383         1.01405        0.980762         1.09422 
        0.88363        0.984041        0.950153          1.0627 
       0.895928        0.957919        0.920741         1.03076 
       0.908253         0.93027        0.892524         1.00189 
       0.920535        0.902701        0.865592        0.972006 
       0.932774        0.873809        0.839869        0.943117 
        0.94508        0.850868        0.815067        0.918201 
       0.957324        0.828612        0.791393         0.89584 
        0.96953        0.800341        0.768736        0.871136 
       0.981769        0.777424        0.746913        0.845519 
       0.994071        0.757482        0.725838        0.826887 
         1.0064         0.73579        0.705543        0.803946 
        1.01868        0.716992        0.686087        0.783589 
        1.03092        0.701403        0.667455        0.762023 
         1.0432        0.683304        0.649451        0.743632 
        1.05553        0.661997        0.632044        0.726501 
        1.06777        0.644237        0.615404        0.708914 
           1.08        0.632142        0.599383        0.690927 
        1.09227        0.611906        0.583882        0.673827 
         1.1046        0.597327        0.568874        0.658973 
         1.1169        0.582695        0.554422        0.643253 
        1.12915        0.567229        0.540546        0.628302 
        1.14142         0.55701        0.527118        0.613758 
        1.15365         0.54346        0.514187        0.600311 
        1.16585        0.529437        0.501726        0.586208 
        1.17807        0.520149        0.489665        0.574061 
        1.19037        0.502472        0.477922         0.56045 
        1.20276        0.493722        0.466486        0.547159 
        1.21504        0.483894        0.455516        0.537863 
        1.22728        0.474599        0.444945        0.524208 
        1.23954         0.46249        0.434686        0.515087 
        1.25184        0.454489        0.424731        0.502797 
        1.26414        0.443949        0.415086        0.492158 
        1.27632        0.430934        0.405827        0.482397 
         1.2886        0.420488        0.396786        0.471626 
        1.30093        0.411802        0.387989        0.463806 
        1.31316        0.401401        0.379524        0.453812 
        1.32541        0.394071        0.371311        0.445407 
        1.33772        0.386668        0.363296        0.436581 
        1.35005        0.380882        0.355513        0.428295 
        1.36225        0.372453        0.348037        0.419381 
        1.37447        0.365416        0.340763        0.412225 
        1.38676        0.358693        0.333664         0.40354 
        1.39907        0.351106        0.326756        0.396526 
        1.41133        0.342729        0.320074        0.389065 
        1.42358        0.338031        0.313585        0.380953 
        1.43591        0.331387        0.307233        0.375524 
        1.44818        0.324667        0.301091        0.368724 
        1.46037        0.318385        0.295155        0.361126 
        1.47263        0.312124        0.289345        0.355262 
        1.48494        0.306354         0.28367        0.349249 
        1.49724         0.30067        0.278153        0.343171 
        1.50952        0.294556        0.272793        0.335975 
        1.52178        0.289887        0.267583        0.330642 
        1.53409        0.285208        0.262488        0.325091 
        1.54637        0.278825        0.257537        0.319202 
        1.55858        0.274748        0.252742        0.313948 
        1.57081        0.269928        0.248062        0.308398 
        1.58313        0.265875        0.243472        0.303928 
        1.59544        0.261489        0.239001        0.298476 
        1.60767        0.256933         0.23467        0.293674 
        1.61994        0.251129        0.230433        0.289317 
        1.63225        0.246542        0.226291         0.28473 
        1.64452         0.24395        0.222263        0.279751 
        1.65676        0.240468        0.218345          0.2755 
          1.669        0.236508        0.214519        0.270868 
        1.68133        0.231751        0.210761        0.266968 
        1.69363        0.227701        0.207104        0.262784 
        1.70585        0.224014        0.203557        0.258734 
        1.71809        0.220437        0.200086        0.254656 
        1.73038        0.217538        0.196685        0.250908 
        1.74268        0.213033        0.193361        0.246792 
        1.75493        0.211787         0.19013        0.243651 
        1.76714         0.20733         0.18698         0.23983 
        1.77942        0.204866        0.183886        0.236338 
        1.79173        0.201742        0.180854        0.232461 
        1.80402        0.198073        0.177897        0.229312 
         1.8163        0.195504        0.175008        0.225474 
         1.8286         0.19241        0.172178        0.223185 
         1.8409        0.189406        0.169413        0.219488 
        1.85315        0.187317        0.166718        0.216328 
        1.86537        0.183256        0.164087        0.213365 
        1.87765        0.180796        0.161503        0.210324 
        1.88995        0.179353        0.158968        0.207626 
        1.90221         0.17701        0.156497        0.204562 
        1.91445        0.173451        0.154083        0.201874 
        1.92674        0.171006        0.151711        0.199126 
        1.93902         0.16844        0.149389        0.196192 
        1.95124        0.166023        0.147128        0.193575 
         1.9635        0.163979        0.144908        0.190908 
        1.97583        0.162175         0.14272        0.188265 
        1.98812        0.159702        0.140585        0.186213 
        2.00039         0.15834        0.138498        0.183433 
        2.01264        0.155827        0.136456        0.181178 
        2.02492        0.154339        0.134452        0.178809 
        2.03717        0.151418        0.132491         0.17651 
        2.04942        0.149872        0.130573        0.174126 
        2.06171        0.147748        0.128685        0.171896 
        2.07397        0.145454        0.126839        0.169821 
        2.08629        0.143968        0.125022        0.167573 
        2.09857        0.142299        0.123245        0.165535 
        2.11081        0.140697        0.121509        0.163214 
        2.12309        0.138391        0.119803        0.161557 
        2.13538        0.136963        0.118127        0.159402 
        2.14763        0.135442        0.116489        0.157544 
        2.15986        0.133561        0.114885        0.155694 
        2.17214        0.131929        0.113306        0.153711 
        2.18443        0.130891        0.111754        0.151784 
        2.19671        0.128927        0.110234        0.150138 
        2.20898        0.127678        0.108743        0.148185 
        2.22126        0.125782        0.107279        0.146562 
        2.23354        0.124327        0.105842        0.144923 
         2.2458        0.123167        0.104434        0.142846 
        2.25807         0.12181         0.10305        0.141485 
        2.27035        0.120307         0.10169        0.139783 
        2.28263        0.118842        0.100356        0.138252 
         2.2949        0.117804       0.0990458        0.136525 
        2.30718        0.116182       0.0977588        0.135032 
        2.31946        0.115289        0.096494        0.133549 
        2.33169        0.113487       0.0952571        0.131976 
        2.34393        0.112925       0.0940399        0.130649 
        2.35622        0.111669       0.0928402         0.12903 
        2.36847        0.110533       0.0916647        0.127645 
        2.38076        0.109171       0.0905061        0.126267 
        2.39305        0.108264       0.0893678        0.124872 
        2.40534        0.106937        0.088249        0.123531 
        2.41762        0.105875       0.0871496        0.122164 
        2.42989        0.104835       0.0860705        0.120787 
        2.44216        0.103871       0.0850098        0.119552 
         2.4544        0.102729       0.0839695        0.118324 
        2.46667        0.101658       0.0829442        0.116951 
        2.47897        0.100294       0.0819335        0.115733 
        2.49124       0.0997506       0.0809425        0.114527 
        2.50349       0.0986377       0.0799693        0.113282 
        2.51578       0.0975438       0.0790092        0.112096 
        2.52805       0.0971485       0.0780666         0.11097 
        2.54029       0.0960518       0.0771416        0.109856 
        2.55257       0.0953219       0.0762289         0.10876 
        2.56487       0.0943905       0.0753293        0.107625 
        2.57716       0.0937009       0.0744454         0.10651 
        2.58942       0.0925879       0.0735776        0.105385 
        2.60167       0.0916804       0.0727246        0.104336 
        2.61395       0.0909499       0.0718838        0.103334 
        2.62624       0.0906112       0.0710551        0.102311 
        2.63849       0.0894502       0.0702421         0.10129 
        2.65073       0.0887051       0.0694427        0.100256 
        2.66302       0.0881628       0.0686529       0.0992515 
         2.6753        0.087407       0.0678759       0.0982962 
        2.68756       0.0869547       0.0671125       0.0973577 
        2.69983        0.085923       0.0663603       0.0962879 
        2.71213       0.0852784        0.065618       0.0954452 
        2.72441        0.084621       0.0648885       0.0945892 
        2.73665       0.0838433       0.0641717       0.0936549 
         2.7489       0.0836091       0.0634662       0.0927528 
        2.76118       0.0828708       0.0627692       0.0918778 
        2.77349       0.0821656        0.062081       0.0910458 
        2.78576       0.0818142       0.0614058       0.0902267 
        2.79802       0.0810392       0.0607409       0.0892295 
        2.81031       0.0803784       0.0600844       0.0884932 
        2.82259       0.0798906       0.0594379       0.0876249 
        2.83483       0.0794492       0.0588033       0.0867812 
         2.8471       0.0788704       0.0581768       0.0861024 
         2.8594       0.0787772       0.0575574       0.0853207 
         2.8717       0.0779514       0.0569473       0.0844888 
        2.88396       0.0776433       0.0563483       0.0837634 
        2.89619       0.0770391       0.0557591       0.0830322 
        2.90847       0.0766207        0.055176       0.0822769 
        2.92072       0.0760355       0.0546022       0.0814823 
        2.93299       0.0757601       0.0540363       0.0807531 
        2.94526       0.0754299        0.053478       0.0800809 
        2.95753       0.0748903       0.0529276       0.0793771 
        2.96982       0.0746356       0.0523841       0.0786294 
        2.98209       0.0739712       0.0518494       0.0779234 
        2.99436       0.0738789       0.0513216       0.0772451 
        3.00666       0.0735837       0.0508003       0.0765653 
        3.01894       0.0732983       0.0502873       0.0759494 
        3.03119       0.0730688        0.049782       0.0752923 
        3.04345       0.0725832       0.0492837       0.0746499 
        3.05573       0.0726751       0.0487912       0.0740328 
          3.068       0.0723107        0.048306       0.0733578 
        3.08026       0.0719946       0.0478278       0.0727593 
        3.09254       0.0719007       0.0473553       0.0721563 
        3.10483       0.0716376        0.046889       0.0715552 
         3.1171       0.0715711       0.0464296       0.0709274 
        3.12933         0.07122       0.0459777       0.0702792 
        3.14159       0.0709513       0.0455308       0.0697602 
