# k  (h/Mpc)    Pcb(k)  (Mpc/h)^3    Pcb_linear(k) (Mpc/h)^3    Pcb_NL(k) (Mpc/h)^3   ShotnoiseSubtracted = false
      0.0156606         22439.7         22567.3         22386.6 
      0.0273761         19224.6         19510.4           19292 
      0.0384619         14532.4         14698.3         14503.6 
      0.0498308         11217.8         11560.8         11364.7 
      0.0625568          9478.1         9825.04         9650.91 
      0.0751274         8446.16         8347.31         8103.07 
      0.0867833         6539.15         6720.44         6644.53 
      0.0984825         5533.09         5318.33         5384.78 
       0.111151         4736.81         4440.68         4524.33 
       0.123864          4242.5         4001.93         4069.49 
       0.135742          3870.7         3598.72         3666.35 
        0.14762         3372.06         3077.07         3256.03 
       0.160083          2869.6         2564.91         2786.28 
       0.172465         2559.25         2238.67         2520.71 
       0.184281         2316.96         2063.79         2346.11 
       0.196406         2190.25          1905.9         2162.22 
       0.209011          2051.5         1695.76         1960.94 
       0.221538         1846.25         1481.93         1833.23 
       0.233611         1773.13         1325.95         1719.87 
       0.245665         1606.08          1223.8         1589.24 
       0.258103         1593.78         1139.25         1501.25 
       0.270422         1421.26         1046.84         1411.45 
       0.282519         1344.58         950.062         1338.18 
       0.294636         1318.46         865.612         1268.58 
       0.306978         1206.84         800.836         1216.63 
       0.319417         1184.78         748.735         1147.43 
        0.33169          1113.1         698.863         1087.55 
       0.343948         1069.65         647.537         1054.64 
       0.356249         1015.11         599.403         1016.24 
       0.368458         973.685         559.086         972.347 
        0.38068         959.792          525.37         936.074 
       0.392856         912.163         494.592          904.18 
       0.405069         864.483         464.497         874.715 
       0.417459          831.51         435.358         845.171 
       0.429752         829.184           409.2         815.879 
       0.441978         800.015         386.242         795.641 
       0.454294         765.413         365.394         763.721 
        0.46658         743.799         345.832         748.414 
       0.478753         730.222         327.378         726.217 
       0.490964         702.147         310.045         704.347 
       0.503334         672.654         294.045         689.165 
       0.515665         669.959         279.455         673.608 
       0.527909         641.943         265.987         659.994 
       0.540159         626.628         253.245         643.727 
        0.55248         613.957         241.154         627.252 
       0.564743         608.743         229.958         616.695 
        0.57686         589.087         219.669         600.696 
       0.589077         579.297         209.956         587.676 
       0.601441         565.169          200.72         576.492 
        0.61382         549.222         192.012         566.426 
       0.626067         543.556         183.886         556.153 
       0.638306         523.845         176.234         544.872 
       0.650632         518.989         168.984         532.299 
       0.662899         514.765          162.19         525.813 
       0.675076         498.481         155.823          518.88 
       0.687267          484.07          149.79          506.72 
       0.699615         482.835         144.001         498.751 
       0.711937         472.454         138.528         489.353 
       0.724148         457.274         133.386          482.98 
       0.736433         446.613          128.48         474.544 
       0.748747         440.956         123.813         466.271 
       0.761037         433.187         119.389         460.749 
       0.773197         426.418         115.227         453.094 
       0.785376         421.141         111.259         446.659 
       0.797761         408.532         107.416         440.176 
       0.810096         403.844          103.77         434.576 
       0.822371         393.363         100.311         427.577 
       0.834626         389.401         97.0164         422.697 
       0.846916         383.604         93.8616         416.085 
       0.859215          378.86         90.8461         410.002 
       0.871383         370.451         87.9937         404.669 
        0.88363         366.035         85.2475         400.598 
       0.895928         360.958         82.6086         394.406 
       0.908253          352.03         80.0771          387.93 
       0.920535          344.94         77.6607         383.845 
       0.932774         339.912         75.3528         378.002 
        0.94508         334.693         73.1276         374.257 
       0.957324          331.13         71.0036         369.286 
        0.96953         326.906         68.9708         364.837 
       0.981769         319.068         67.0128         360.781 
       0.994071         317.838          65.122         356.419 
         1.0064         311.868         63.3011         351.249 
        1.01868         308.249         61.5555         346.802 
        1.03092          299.07         59.8839         343.788 
         1.0432         296.253         58.2686         339.635 
        1.05553         293.133         56.7068         334.956 
        1.06777           289.1         55.2139         331.169 
           1.08         282.499         53.7764         327.528 
        1.09227         281.824         52.3857         323.601 
         1.1046         276.183         51.0392         320.557 
         1.1169          270.29         49.7426         316.318 
        1.12915         266.518         48.4976         313.101 
        1.14142         261.115         47.2928         309.424 
        1.15365         258.196         46.1327         306.183 
        1.16585         253.731         45.0147         302.768 
        1.17807         251.266         43.9325         299.485 
        1.19037         246.826          42.879         296.956 
        1.20276         243.805         41.8529         293.081 
        1.21504         238.734         40.8687         289.795 
        1.22728          235.24         39.9203          286.65 
        1.23954         233.854         38.9998          283.78 
        1.25184         228.465         38.1067         280.791 
        1.26414         223.902         37.2413          278.14 
        1.27632         222.028         36.4106         275.587 
         1.2886         219.999         35.5995         272.464 
        1.30093         215.017         34.8103          269.01 
        1.31316         210.462         34.0508         266.443 
        1.32541         209.355         33.3139         263.612 
        1.33772         205.633         32.5948         261.226 
        1.35005         203.207         31.8965         258.275 
        1.36225         199.279         31.2258         255.862 
        1.37447         196.138         30.5731         252.764 
        1.38676         194.256         29.9362         250.985 
        1.39907          191.41         29.3164          247.92 
        1.41133         187.707         28.7169         245.331 
        1.42358         185.434         28.1348         243.026 
        1.43591          182.99         27.5648         240.851 
        1.44818         179.463         27.0138         238.313 
        1.46037         177.972         26.4811         235.755 
        1.47263         174.454         25.9599          233.53 
        1.48494         172.991         25.4508         230.731 
        1.49724         169.934         24.9557         229.285 
        1.50952         166.896         24.4749         226.628 
        1.52178         165.083         24.0074         224.369 
        1.53409         162.106         23.5503         222.326 
        1.54637         159.609         23.1061          220.49 
        1.55858         157.865         22.6759         218.143 
        1.57081         155.083          22.256         216.033 
        1.58313         153.079         21.8442         213.838 
        1.59544         150.252          21.443         211.933 
        1.60767         148.851         21.0545         210.052 
        1.61994         146.321         20.6743         207.945 
        1.63225         143.983         20.3027         205.836 
        1.64452          141.68         19.9413         204.013 
        1.65676         139.882         19.5898         202.264 
          1.669         138.261         19.2466         200.252 
        1.68133         135.543         18.9094         198.425 
        1.69363         133.197         18.5813         196.775 
        1.70585         131.121          18.263         194.944 
        1.71809         129.417         17.9516         192.856 
        1.73038         127.786         17.6465         191.249 
        1.74268         126.608         17.3483         189.377 
        1.75493         123.671         17.0583         187.848 
        1.76714         123.068         16.7758         186.207 
        1.77942         120.474         16.4982         184.469 
        1.79173          118.68         16.2262         182.736 
        1.80402         117.108         15.9608          181.11 
         1.8163         114.991         15.7016         179.668 
         1.8286         113.466         15.4477         177.903 
         1.8409          112.11         15.1996         176.255 
        1.85315         109.871         14.9578         174.809 
        1.86537         108.824         14.7218         173.335 
        1.87765         107.448           14.49         171.851 
        1.88995         105.469         14.2626         170.207 
        1.90221          104.19         14.0409         168.885 
        1.91445         102.612         13.8242          167.26 
        1.92674          100.97         13.6114         165.785 
        1.93902          99.756         13.4031         164.291 
        1.95124         98.3661         13.2002          162.91 
         1.9635         96.7364         13.0011         161.493 
        1.97583         95.2564         12.8047         160.066 
        1.98812          93.885         12.6132         158.931 
        2.00039         92.8311          12.426         157.396 
        2.01264         91.6781         12.2428         156.103 
        2.02492          90.396          12.063          154.67 
        2.03717         89.0109         11.8871          153.46 
        2.04942         87.8761         11.7149         152.145 
        2.06171         86.3218         11.5456         150.793 
        2.07397         85.3127           11.38         149.649 
        2.08629         84.0036         11.2169         148.341 
        2.09857         83.0028         11.0574         147.157 
        2.11081         81.6518         10.9017         145.799 
        2.12309         80.6295         10.7487         144.688 
        2.13538         79.3083         10.5983         143.423 
        2.14763         78.2282         10.4513         142.259 
        2.15986         77.3539         10.3075         140.989 
        2.17214         76.2476         10.1657         139.906 
        2.18443         75.3071         10.0265         138.907 
        2.19671         74.3462         9.89013         137.695 
        2.20898         73.3701         9.75641         136.458 
        2.22126         72.2898         9.62503          135.46 
        2.23354          71.404          9.4961         134.379 
         2.2458         70.0156         9.36977         133.242 
        2.25807         69.3263         9.24562         132.179 
        2.27035         68.3224         9.12361         131.106 
        2.28263         67.4869         9.00387         130.109 
         2.2949         66.1792         8.88634         129.081 
        2.30718         65.2931         8.77087          128.02 
        2.31946          64.702         8.65739         126.926 
        2.33169         63.6744         8.54642         125.976 
        2.34393         63.1479         8.43722         125.092 
        2.35622         62.0362         8.32957         124.022 
        2.36847         61.4213         8.22411         123.165 
        2.38076         60.3167         8.12016          122.08 
        2.39305         59.7458         8.01803         121.238 
        2.40534          58.846         7.91766         120.227 
        2.41762         58.2172         7.81902          119.27 
        2.42989         57.2958          7.7222         118.404 
        2.44216         56.7774         7.62704         117.415 
         2.4544         55.8754          7.5337         116.569 
        2.46667         55.0918         7.44171         115.679 
        2.47897         54.5732         7.35103         114.722 
        2.49124         53.9383         7.26212         113.868 
        2.50349         53.0335         7.17481         113.026 
        2.51578          52.654         7.08866         112.257 
        2.52805         51.8319         7.00409          111.32 
        2.54029         51.3176         6.92111         110.473 
        2.55257         50.6462         6.83922         109.708 
        2.56487          50.319          6.7585          108.89 
        2.57716         49.7403          6.6792         108.078 
        2.58942         48.9271         6.60135         107.283 
        2.60167         48.3939         6.52481         106.505 
        2.61395         48.0438         6.44938         105.697 
        2.62624         47.2337         6.37503         104.859 
        2.63849         46.7358         6.30209         104.131 
        2.65073         46.1109         6.23037         103.366 
        2.66302          45.724          6.1595         102.605 
         2.6753         45.1287         6.08979         101.886 
        2.68756         44.8037          6.0213         101.111 
        2.69983         44.2422         5.95381         100.391 
        2.71213         43.7415         5.88722         99.6761 
        2.72441         43.3466         5.82176         98.9429 
        2.73665         42.8666         5.75746         98.2663 
         2.7489         42.4029         5.69416         97.5774 
        2.76118         42.0066         5.63162         96.8487 
        2.77349         41.5508         5.56987         96.1804 
        2.78576         41.1618         5.50929         95.4747 
        2.79802         40.8052         5.44965         94.8644 
        2.81031         40.2602         5.39075         94.1717 
        2.82259         39.8785         5.33274         93.4723 
        2.83483         39.4493          5.2758         92.8645 
         2.8471         39.0784         5.21959         92.1897 
         2.8594         38.6779         5.16402         91.5366 
         2.8717         38.4115         5.10928         90.9468 
        2.88396         38.0877         5.05554         90.3115 
        2.89619         37.7767         5.00267         89.6402 
        2.90847         37.4113         4.95036         88.9877 
        2.92072         37.1241         4.89888         88.4406 
        2.93299         36.9765         4.84811         87.8535 
        2.94526         36.5999         4.79801         87.2311 
        2.95753         36.3618         4.74864         86.6231 
        2.96982         35.9831         4.69988         86.0495 
        2.98209         35.8543          4.6519         85.4715 
        2.99436         35.5617         4.60455         84.8603 
        3.00666         35.4222         4.55778          84.293 
        3.01894         35.1931         4.51175         83.7369 
        3.03119          34.957         4.46642         83.1994 
        3.04345         34.7496         4.42171         82.6518 
        3.05573         34.6528         4.37752          82.089 
          3.068         34.4357         4.33399         81.5484 
        3.08026         34.2422         4.29109         81.0034 
        3.09254         34.1717         4.24869         80.4758 
        3.10483         34.1693         4.20686         79.9493 
         3.1171         33.9859         4.16564         79.4139 
        3.12933         33.7506         4.12509         78.8865 
        3.14159         33.7579           4.085         78.3609 
