# k  (h/Mpc)    Pcb(k)  (Mpc/h)^3    Pcb_linear(k) (Mpc/h)^3    Pcb_NL(k) (Mpc/h)^3   ShotnoiseSubtracted = false
      0.0156606         12521.9         12562.7         12481.8 
      0.0273761         10790.2           10864         10787.8 
      0.0384619         8184.59         8185.56          8125.3 
      0.0498308         6356.25         6438.81         6380.77 
      0.0625568         5366.26         5472.37         5418.44 
      0.0751274         4738.06         4649.45         4571.37 
      0.0867833          3697.2         3743.37         3722.01 
      0.0984825         3076.06         2962.42         2990.33 
       0.111151         2607.83         2473.58         2504.33 
       0.123864         2340.82          2229.2         2254.81 
       0.135742          2119.8         2004.62         2030.82 
        0.14762         1826.88         1714.05         1781.67 
       0.160083         1527.95         1428.76          1508.7 
       0.172465         1361.63         1247.04         1347.38 
       0.184281         1250.42         1149.62         1253.04 
       0.196406         1154.47         1061.67         1149.22 
       0.209011         1065.14         944.618         1037.55 
       0.221538         960.562         825.508         953.874 
       0.233611         898.007         738.616         882.934 
       0.245665         827.457         681.714         812.555 
       0.258103         787.769         634.618         764.509 
       0.270422         714.618          583.14         713.076 
       0.282519         660.745         529.233         665.877 
       0.294636         654.733          482.19         625.467 
       0.306978           585.2         446.106         594.809 
       0.319417          564.71         417.084         559.568 
        0.33169         531.715         389.303         526.948 
       0.343948         506.709         360.712         506.365 
       0.356249          475.19         333.899         484.439 
       0.368458         461.023          311.44         457.834 
        0.38068         442.614         292.658         437.534 
       0.392856         415.762         275.514         419.741 
       0.405069         399.095          258.75         405.814 
       0.417459         381.887         242.517         385.493 
       0.429752         369.897         227.946         371.237 
       0.441978         357.861         215.157         360.023 
       0.454294         336.522         203.544         343.744 
        0.46658         333.184         192.647         334.518 
       0.478753         320.095         182.367         322.864 
       0.490964         309.145         172.711         311.704 
       0.503334         291.725         163.799         302.894 
       0.515665         289.292         155.671         296.041 
       0.527909         280.042         148.169         286.411 
       0.540159         272.448         141.071         278.215 
        0.55248         267.081         134.336         270.079 
       0.564743         260.967         128.099         264.427 
        0.57686         251.419         122.367         256.302 
       0.589077          241.68         116.957         250.747 
       0.601441         238.461         111.812         244.742 
        0.61382         235.658         106.961          239.12 
       0.626067         230.112         102.435         233.553 
       0.638306         219.541         98.1719          228.94 
       0.650632         214.301         94.1333          221.83 
       0.662899          213.74         90.3487         218.327 
       0.675076         205.851         86.8019         213.588 
       0.687267         200.621         83.4411         208.874 
       0.699615         196.952         80.2161         204.829 
       0.711937         192.649         77.1675          200.87 
       0.724148         188.599         74.3032         197.884 
       0.736433         184.322         71.5701         193.466 
       0.748747         180.444         68.9704         189.588 
       0.761037         177.737         66.5062         185.938 
       0.773197         174.317         64.1878         183.743 
       0.785376         172.366         61.9773         179.782 
       0.797761         168.518         59.8367         177.464 
       0.810096         165.121         57.8057         174.254 
       0.822371         159.476         55.8789         171.342 
       0.834626         158.023         54.0434         168.474 
       0.846916          155.99          52.286         165.988 
       0.859215         154.461         50.6062         163.368 
       0.871383         151.022         49.0173         160.646 
        0.88363         148.636         47.4875         158.842 
       0.895928         145.596         46.0175         156.551 
       0.908253         141.682         44.6073         153.713 
       0.920535         141.113         43.2612         151.741 
       0.932774         136.732         41.9756         149.314 
        0.94508         135.727         40.7361         147.558 
       0.957324          134.62         39.5529          145.38 
        0.96953         133.563         38.4205         143.071 
       0.981769         129.381         37.3298         141.791 
       0.994071         128.678         36.2765          139.81 
         1.0064         125.536         35.2622         137.717 
        1.01868          124.26         34.2898         136.193 
        1.03092         122.202         33.3586         134.569 
         1.0432         120.045         32.4588         132.818 
        1.05553         117.494         31.5888         131.436 
        1.06777         117.289         30.7571          129.99 
           1.08         114.886         29.9564         128.247 
        1.09227          113.47         29.1817         126.867 
         1.1046         111.504         28.4316         125.296 
         1.1169         110.207         27.7093         123.605 
        1.12915          108.52         27.0158         122.314 
        1.14142         106.845         26.3447         120.765 
        1.15365          104.96         25.6984         119.449 
        1.16585         103.674         25.0756          117.99 
        1.17807         102.043         24.4728         117.048 
        1.19037         101.818         23.8859         115.804 
        1.20276         99.5753         23.3144         114.408 
        1.21504         98.7978         22.7661         113.097 
        1.22728         96.7011         22.2378         111.897 
        1.23954         96.0065          21.725         110.723 
        1.25184         94.0111         21.2275         109.607 
        1.26414         92.9193         20.7455         108.501 
        1.27632         92.0718         20.2827         107.849 
         1.2886         90.4726         19.8309         106.255 
        1.30093         89.0254         19.3912         105.097 
        1.31316         88.3224         18.9681         104.211 
        1.32541         87.3232         18.5577         103.277 
        1.33772         86.0818         18.1571         102.201 
        1.35005         85.2459         17.7681         101.144 
        1.36225         84.0203         17.3945         100.188 
        1.37447         82.2329         17.0309         99.1119 
        1.38676          82.189         16.6761         98.0274 
        1.39907         80.4797         16.3309         97.3018 
        1.41133         79.1939         15.9969         96.5353 
        1.42358         78.3524         15.6726         95.4056 
        1.43591          77.791         15.3551         94.4831 
        1.44818         76.7376         15.0482         93.6124 
        1.46037         75.6548         14.7515         92.8184 
        1.47263         74.4479         14.4611         92.0786 
        1.48494         73.8727         14.1775         91.1473 
        1.49724         72.6089         13.9017         90.1884 
        1.50952         71.9198         13.6339         89.3648 
        1.52178         71.0335         13.3735         88.6517 
        1.53409         70.4678         13.1188         87.8792 
        1.54637         68.7369         12.8714         87.0308 
        1.55858         68.1409         12.6317         86.2139 
        1.57081         67.4861         12.3978         85.5395 
        1.58313         66.4292         12.1684         84.8125 
        1.59544         65.6602         11.9449          83.995 
        1.60767         64.9789         11.7285         83.2795 
        1.61994         64.0656         11.5167         82.7093 
        1.63225         63.1479         11.3097          81.759 
        1.64452          62.473         11.1084         81.1747 
        1.65676         61.5322         10.9126         80.4187 
          1.669          61.128         10.7214         79.7823 
        1.68133         60.4771         10.5336         79.0556 
        1.69363           59.44         10.3508          78.491 
        1.70585         59.0541         10.1735         77.7758 
        1.71809         57.7996              10         77.2176 
        1.73038         57.2895         9.83007         76.4805 
        1.74268         56.5394         9.66395         75.8755 
        1.75493          55.961         9.50243         75.2106 
        1.76714         55.2552         9.34503         74.5672 
        1.77942         54.9424         9.19039          73.977 
        1.79173         53.9677         9.03886         73.2986 
        1.80402         53.4459         8.89107         72.7954 
         1.8163         52.7779         8.74666          72.103 
         1.8286         51.9915         8.60522         71.6616 
         1.8409         51.3038         8.46703         70.9698 
        1.85315          50.719         8.33233         70.5388 
        1.86537         50.1754         8.20084          69.913 
        1.87765         49.6376          8.0717         69.2478 
        1.88995         49.0111         7.94504         68.7266 
        1.90221         48.6149         7.82153         68.1727 
        1.91445         47.8548         7.70086         67.6977 
        1.92674         47.3726         7.58232         67.1227 
        1.93902         46.8173         7.46626         66.5551 
        1.95124          46.425         7.35326         66.1369 
         1.9635         45.5863         7.24231         65.5273 
        1.97583         45.1723         7.13295         65.1002 
        1.98812         44.4681         7.02626          64.528 
        2.00039         44.2041         6.92197         64.0158 
        2.01264         43.4592         6.81989         63.5582 
        2.02492         43.0832         6.71973         63.0813 
        2.03717         42.4611         6.62175         62.5348 
        2.04942         41.9591         6.52585         62.1016 
        2.06171         41.5426         6.43152         61.5518 
        2.07397           40.94         6.33927         61.1514 
        2.08629           40.52         6.24844         60.6321 
        2.09857         40.1955         6.15961         60.2306 
        2.11081         39.5435         6.07287         59.7173 
        2.12309         39.1734          5.9876         59.2709 
        2.13538         38.7021         5.90384         58.8566 
        2.14763         38.3546         5.82196         58.4082 
        2.15986         38.1357         5.74183         57.9441 
        2.17214         37.3855         5.66288         57.5944 
        2.18443         37.1866         5.58534         57.0828 
        2.19671         36.5454         5.50935         56.6448 
        2.20898         36.1038         5.43486          56.216 
        2.22126         35.8446         5.36167         55.7937 
        2.23354         35.3819         5.28985         55.4418 
         2.2458         35.0926         5.21948         55.0106 
        2.25807         34.4945         5.15032         54.5753 
        2.27035         34.1577         5.08236         54.1906 
        2.28263         33.7418         5.01565         53.8015 
         2.2949         33.3905         4.95018          53.417 
        2.30718          33.083         4.88586         53.0232 
        2.31946         32.6792         4.82264         52.6474 
        2.33169         32.3919         4.76082         52.2405 
        2.34393         31.9142         4.69999         51.8404 
        2.35622         31.5739         4.64003         51.5082 
        2.36847         31.2111         4.58128         51.0973 
        2.38076         30.9986         4.52338         50.7761 
        2.39305         30.6194         4.46649         50.4142 
        2.40534         30.3143         4.41057         49.9811 
        2.41762         29.9207         4.35562          49.643 
        2.42989         29.6136         4.30169         49.3161 
        2.44216         29.3246         4.24868         48.9574 
         2.4544         29.0242         4.19669          48.627 
        2.46667         28.5645         4.14544         48.2522 
        2.47897         28.3796         4.09493         47.9354 
        2.49124         28.1062          4.0454         47.5799 
        2.50349         27.7497         3.99676         47.2818 
        2.51578          27.387         3.94878         46.9527 
        2.52805         27.1823         3.90167         46.5978 
        2.54029         27.0035         3.85544         46.2832 
        2.55257         26.6686         3.80982          45.965 
        2.56487         26.4529         3.76486         45.6438 
        2.57716         26.1553         3.72068         45.3305 
        2.58942         25.8543         3.67731         45.0309 
        2.60167         25.5727         3.63468         44.6861 
        2.61395         25.3507         3.59266         44.3891 
        2.62624         25.0975         3.55124         44.0993 
        2.63849         24.9146         3.51061         43.7911 
        2.65073         24.6377         3.47066         43.4706 
        2.66302          24.309         3.43118         43.2021 
         2.6753         24.1368         3.39235         42.9059 
        2.68756         23.9143         3.35419         42.6254 
        2.69983         23.7429          3.3166         42.3225 
        2.71213         23.5043          3.2795         42.0465 
        2.72441         23.3314         3.24304          41.741 
        2.73665         23.0636         3.20722         41.4649 
         2.7489         22.8747         3.17196         41.1929 
        2.76118         22.7102         3.13712         40.8887 
        2.77349          22.562         3.10273         40.6431 
        2.78576         22.3743         3.06898         40.3717 
        2.79802         22.0665         3.03575         40.0988 
        2.81031         21.9718         3.00294         39.8521 
        2.82259          21.837         2.97063         39.5746 
        2.83483         21.5928         2.93891         39.3012 
         2.8471         21.5274          2.9076         39.0404 
         2.8594         21.3008         2.87665         38.7976 
         2.8717            21.1         2.84615         38.5329 
        2.88396         20.9474         2.81622         38.2688 
        2.89619         20.8919         2.78677          38.026 
        2.90847         20.7201         2.75762         37.7721 
        2.92072         20.5441         2.72895         37.5464 
        2.93299         20.4882         2.70067         37.2984 
        2.94526         20.3618         2.67276         37.0539 
        2.95753         20.2212         2.64525         36.8193 
        2.96982          20.179         2.61809         36.5824 
        2.98209          19.997         2.59136          36.351 
        2.99436         19.9813         2.56499         36.1188 
        3.00666         19.8219         2.53893         35.8808 
        3.01894         19.7669         2.51329         35.6386 
        3.03119         19.6134         2.48804         35.4059 
        3.04345         19.5937         2.46314         35.1903 
        3.05573         19.5119         2.43852         34.9717 
          3.068          19.474         2.41427         34.7345 
        3.08026          19.459         2.39037         34.5162 
        3.09254         19.3479         2.36675         34.3088 
        3.10483         19.3119         2.34345         34.0971 
         3.1171         19.2851         2.32049         33.8813 
        3.12933         19.2411         2.29791         33.6659 
        3.14159         19.2019         2.27557         33.4496 
