# k  (h/Mpc)    P(k)  (Mpc/h)^3    P_linear(k)  (Mpc/h)^3     P_NL(k)  ShotnoiseSubtracted = false
      0.0156606         18789.2         18762.6         18623.4 
      0.0273761         16102.6         16195.7         16039.6 
      0.0384619         12176.9           12191         12056.1 
      0.0498308         9412.23         9583.81         9449.24 
      0.0625568         7946.38         8141.89         8020.97 
      0.0751274         7059.65         6915.69         6744.74 
      0.0867833         5477.26            5567         5515.35 
      0.0984825          4607.7         4405.04         4455.17 
       0.111151         3930.82         3677.79         3737.79 
       0.123864         3522.95         3314.19          3363.1 
       0.135742         3205.23         2980.13         3029.49 
        0.14762         2782.98         2548.05         2679.15 
       0.160083         2351.77         2123.87         2283.72 
       0.172465         2097.61         1853.68         2056.63 
       0.184281         1908.05         1708.84         1913.82 
       0.196406          1787.8         1578.08         1759.98 
       0.209011         1666.11         1404.06         1593.37 
       0.221538         1501.84            1227         1482.15 
       0.233611         1430.59         1097.83         1384.68 
       0.245665          1300.7         1013.25         1277.09 
       0.258103         1276.21          943.24         1204.65 
       0.270422         1140.61         866.721         1129.56 
       0.282519         1071.43         786.592         1065.18 
       0.294636         1056.64         716.668         1006.94 
       0.306978          959.09         663.035         963.132 
       0.319417         935.403         619.897         907.491 
        0.33169         880.512         578.605         857.822 
       0.343948         842.369         536.108         830.143 
       0.356249         795.593         496.256         798.107 
       0.368458         767.865         462.875         760.046 
        0.38068         750.136         434.962         729.787 
       0.392856         710.241         409.479          702.97 
       0.405069         676.356         384.561         681.098 
       0.417459         650.001         360.436         653.823 
       0.429752         640.995          338.78         630.724 
       0.441978          618.88         319.772         613.916 
       0.454294         589.361         302.511         588.222 
        0.46658         574.006         286.315         575.367 
       0.478753         560.689         271.036         557.112 
       0.490964         539.073         256.684          539.61 
       0.503334         513.348         243.439          526.65 
       0.515665         512.168         231.361         515.152 
       0.527909         491.881          220.21         502.766 
       0.540159         479.312          209.66         489.246 
        0.55248         469.839          199.65         476.296 
       0.564743         465.511         190.381         467.991 
        0.57686         448.083         181.863         455.108 
       0.589077         436.333         173.821         444.919 
       0.601441          429.49         166.175         435.622 
        0.61382         419.071         158.965         427.906 
       0.626067         413.506         152.238         419.236 
       0.638306         397.357         145.903         411.068 
       0.650632         392.656           139.9         400.212 
       0.662899         389.096         134.276         395.526 
       0.675076         374.637         129.004         389.107 
       0.687267         364.881         124.009         379.836 
       0.699615         361.078         119.217         373.738 
       0.711937         355.339         114.686         366.961 
       0.724148         343.349         110.429         361.635 
       0.736433         335.433         106.367         354.782 
       0.748747         330.928         102.503         348.296 
       0.761037         324.581         98.8407         343.533 
       0.773197         320.542         95.3951         338.432 
       0.785376          315.55         92.1099         333.094 
       0.797761         307.033         88.9285         327.826 
       0.810096         304.381         85.9101          323.64 
       0.822371         293.964         83.0464         318.298 
       0.834626         292.397         80.3185         314.079 
       0.846916         286.196         77.7067         309.327 
       0.859215         285.545         75.2102         304.909 
       0.871383         278.036         72.8487         300.598 
        0.88363          276.22         70.5752         297.504 
       0.895928         270.482         68.3905         292.772 
       0.908253         263.516         66.2946         288.084 
       0.920535         261.015         64.2941          284.42 
       0.932774         254.458         62.3834         280.416 
        0.94508         251.328         60.5412         277.496 
       0.957324         250.124         58.7828         273.602 
        0.96953          246.42         57.0998         270.047 
       0.981769         239.343         55.4789         267.296 
       0.994071         238.379         53.9134         263.912 
         1.0064          233.18          52.406          260.02 
        1.01868           230.3         50.9608          256.79 
        1.03092           224.3         49.5769         254.358 
         1.0432         220.921         48.2396         251.259 
        1.05553         218.121         46.9466         247.951 
        1.06777         217.142         45.7106         245.366 
           1.08         211.723         44.5206         242.447 
        1.09227         209.505         43.3692         239.641 
         1.1046         206.228         42.2545         237.243 
         1.1169         201.701          41.181         233.998 
        1.12915          198.97         40.1503         231.877 
        1.14142         195.663         39.1529         228.921 
        1.15365         192.906         38.1924         226.509 
        1.16585         189.816         37.2669         223.699 
        1.17807          187.51          36.371         221.791 
        1.19037         185.387         35.4987         219.711 
        1.20276         182.689         34.6493           216.9 
        1.21504         178.779         33.8345         214.548 
        1.22728         175.619         33.0493         211.821 
        1.23954         174.973         32.2872         210.253 
        1.25184         171.477         31.5479         207.889 
        1.26414         168.391         30.8314         205.784 
        1.27632         167.672         30.1437         204.253 
         1.2886         165.911         29.4721         201.654 
        1.30093          161.11         28.8188         199.358 
        1.31316         158.587           28.19         197.125 
        1.32541         157.257         27.5799         195.503 
        1.33772         155.611         26.9846         193.467 
        1.35005         153.075         26.4065         191.297 
        1.36225         150.591         25.8512         189.547 
        1.37447         148.484         25.3109         187.258 
        1.38676         146.639         24.7836         185.704 
        1.39907         144.216         24.2705         183.694 
        1.41133         141.864         23.7742         182.009 
        1.42358         140.062         23.2922         180.298 
        1.43591         138.363         22.8204         178.401 
        1.44818         136.371         22.3642         176.766 
        1.46037         134.423         21.9232         174.913 
        1.47263         132.692         21.4917         173.527 
        1.48494         130.645         21.0702          171.42 
        1.49724         128.837         20.6604         170.045 
        1.50952         126.467         20.2623         168.376 
        1.52178         125.878         19.8753         166.557 
        1.53409         123.103         19.4969         165.189 
        1.54637         121.653         19.1291           163.8 
        1.55858         119.496         18.7729         162.038 
        1.57081         117.819         18.4253         160.661 
        1.58313         116.292         18.0844         159.032 
        1.59544         114.523         17.7523         157.648 
        1.60767         113.457         17.4306         156.164 
        1.61994         111.368         17.1159         154.919 
        1.63225         109.986         16.8082         153.161 
        1.64452         107.923          16.509          151.79 
        1.65676         106.339          16.218         150.532 
          1.669         105.645         15.9339         149.257 
        1.68133         103.313         15.6547         147.881 
        1.69363         102.067         15.3831         146.562 
        1.70585         100.192         15.1196          145.26 
        1.71809         99.0139         14.8618         143.757 
        1.73038         98.2836         14.6092           142.6 
        1.74268         97.0755         14.3623         141.257 
        1.75493         94.8855         14.1223          140.03 
        1.76714         93.9259         13.8883         138.898 
        1.77942         92.5051         13.6585         137.493 
        1.79173         91.1595         13.4333         136.408 
        1.80402          90.395         13.2137          135.22 
         1.8163         88.4824         12.9991         133.966 
         1.8286          87.275         12.7889         132.786 
         1.8409         86.6467         12.5835         131.587 
        1.85315         85.0891         12.3833         130.539 
        1.86537         84.0928         12.1879          129.45 
        1.87765         83.2934          11.996          128.32 
        1.88995         81.8494         11.8077         127.221 
        1.90221         80.7074         11.6242         126.144 
        1.91445         79.6657         11.4448         124.973 
        1.92674         78.2884         11.2686         123.944 
        1.93902         77.3037         11.0962         122.835 
        1.95124           76.47         10.9282         121.837 
         1.9635         75.2492         10.7633         120.714 
        1.97583         74.1001         10.6008         119.801 
        1.98812         73.1403         10.4422         118.804 
        2.00039         72.2326         10.2872         117.762 
        2.01264         71.4235         10.1355         116.783 
        2.02492          70.518         9.98669         115.779 
        2.03717         69.3183         9.84107          114.79 
        2.04942         68.9598         9.69854         113.945 
        2.06171         67.3656         9.55836         112.951 
        2.07397         66.6086         9.42125         112.054 
        2.08629          65.829         9.28626         111.078 
        2.09857         64.8064         9.15425         110.193 
        2.11081         63.7866         9.02534         109.177 
        2.12309         63.0067         8.89861          108.43 
        2.13538         62.2183         8.77412         107.486 
        2.14763         61.3675         8.65244         106.625 
        2.15986         60.2996         8.53335         105.713 
        2.17214         59.7923         8.41602          104.84 
        2.18443         59.0506         8.30078         104.145 
        2.19671         57.9207         8.18784         103.252 
        2.20898         57.5888         8.07714         102.378 
        2.22126         56.6997         7.96837         101.551 
        2.23354         56.0248         7.86164         100.777 
         2.2458         55.1469         7.75705         99.9954 
        2.25807          54.402         7.65427         99.1535 
        2.27035         53.7733         7.55326         98.3488 
        2.28263          53.026         7.45413         97.5752 
         2.2949         52.4289         7.35682         96.8143 
        2.30718         51.4634         7.26123          96.085 
        2.31946          51.139         7.16728         95.2942 
        2.33169         50.2189         7.07541         94.5634 
        2.34393         49.6929           6.985         93.8592 
        2.35622         48.9967         6.89589         93.1178 
        2.36847         48.5593         6.80858         92.4824 
        2.38076         47.6929         6.72252         91.6492 
        2.39305         47.1523         6.63797         91.0203 
        2.40534         46.6391         6.55487          90.273 
        2.41762         46.0656         6.47321          89.535 
        2.42989         45.4893         6.39306         88.9266 
        2.44216         44.9716         6.31427         88.2011 
         2.4544         44.3598           6.237         87.5335 
        2.46667         43.8454         6.16084         86.8447 
        2.47897         43.3704         6.08577         86.1837 
        2.49124         42.8009         6.01216         85.5705 
        2.50349         42.4913         5.93988         84.8943 
        2.51578         41.7867         5.86856         84.3436 
        2.52805         41.3091         5.79855         83.6487 
        2.54029         40.8952         5.72985          82.976 
        2.55257         40.2943         5.66205         82.4119 
        2.56487         39.9591         5.59523         81.8388 
        2.57716         39.3943         5.52958         81.2368 
        2.58942         38.8504         5.46512         80.6121 
        2.60167         38.5538         5.40176         80.0274 
        2.61395         37.9851         5.33931          79.448 
        2.62624         37.7381         5.27776         78.8133 
        2.63849         37.2306         5.21737         78.2618 
        2.65073         36.8908         5.15799         77.6823 
        2.66302         36.4018         5.09933         77.1054 
         2.6753         35.9801         5.04162         76.5653 
        2.68756         35.5971         4.98491         75.9885 
        2.69983          35.239         4.92904          75.482 
        2.71213         34.8791         4.87391         74.9503 
        2.72441         34.5183         4.81972         74.3961 
        2.73665         34.0234         4.76648         73.8618 
         2.7489         33.8885         4.71408          73.341 
        2.76118         33.4157         4.66231         72.8307 
        2.77349         33.1303         4.61119         72.3064 
        2.78576         32.8729         4.56103         71.7653 
        2.79802         32.4973         4.51165         71.3286 
        2.81031         32.1216         4.46289         70.8048 
        2.82259         32.0519         4.41487         70.2811 
        2.83483         31.6003         4.36773         69.8281 
         2.8471         31.2833         4.32119         69.3363 
         2.8594          31.043         4.27519         68.8308 
         2.8717         30.8748         4.22988         68.3707 
        2.88396         30.5132         4.18538         67.8882 
        2.89619         30.3791         4.14161         67.3855 
        2.90847         30.0492          4.0983         66.9219 
        2.92072         29.8682         4.05569         66.4902 
        2.93299          29.686         4.01366         66.0364 
        2.94526         29.3768         3.97218         65.5909 
        2.95753         29.1931         3.93131         65.1396 
        2.96982          29.049         3.89094         64.6952 
        2.98209         28.7844         3.85121         64.2662 
        2.99436         28.5934         3.81201          63.802 
        3.00666         28.5334         3.77329         63.3857 
        3.01894         28.2721         3.73519         62.9472 
        3.03119         28.1566         3.69766         62.5385 
        3.04345          28.042         3.66065         62.1444 
        3.05573         27.7794         3.62406         61.7279 
          3.068         27.7864         3.58802         61.3124 
        3.08026         27.6209         3.55251         60.8999 
        3.09254         27.5093         3.51741         60.5003 
        3.10483         27.5024         3.48277         60.1091 
         3.1171         27.2937         3.44865         59.7129 
        3.12933         27.2787         3.41508         59.3089 
        3.14159         27.1513         3.38189         58.9067 
