# k  (h/Mpc)    Pcb(k)  (Mpc/h)^3    Pcb_linear(k) (Mpc/h)^3    Pcb_NL(k) (Mpc/h)^3   ShotnoiseSubtracted = false
      0.0156606         10741.2         10771.4         10705.4 
      0.0273761         9266.86         9315.52         9258.49 
      0.0384619         7032.44         7019.04         6976.32 
      0.0498308         5468.46         5521.31         5481.09 
      0.0625568         4615.84         4692.63          4654.5 
      0.0751274         4065.49            3987         3930.99 
      0.0867833         3178.66         3210.02          3195.6 
      0.0984825          2634.7         2540.35         2562.28 
       0.111151         2229.04         2121.16         2144.69 
       0.123864         2001.35         1911.61         1931.33 
       0.135742         1809.93         1719.02         1739.28 
        0.14762          1555.7         1469.85         1521.07 
       0.160083         1297.84         1225.21         1285.05 
       0.172465         1155.65         1069.37         1144.06 
       0.184281         1063.91         985.837         1063.44 
       0.196406         978.552         910.418         974.913 
       0.209011         899.688         810.041         879.189 
       0.221538         810.563           707.9         803.993 
       0.233611         752.983         633.387         741.303 
       0.245665         697.201         584.593         681.956 
       0.258103          656.53         544.206         640.951 
       0.270422         599.404         500.062         596.545 
       0.282519          551.57         453.835         555.145 
       0.294636         545.779         413.494         519.944 
       0.306978         485.801         382.551         493.148 
       0.319417         467.546         357.663         463.692 
        0.33169         439.513         333.841         436.193 
       0.343948         418.952         309.323         417.475 
       0.356249         391.922         286.329         398.546 
       0.368458         379.846          267.07         375.722 
        0.38068         363.115         250.965         358.391 
       0.392856         340.226         236.262         343.379 
       0.405069          326.61         221.887         330.948 
       0.417459         312.002         207.967         313.629 
       0.429752          301.25         195.472         301.693 
       0.441978         291.246         184.505         292.142 
       0.454294         272.711         174.546         278.428 
        0.46658         271.485         165.201         270.283 
       0.478753          258.94         156.386         260.597 
       0.490964         250.449         148.106         251.217 
       0.503334         236.498         140.463         243.696 
       0.515665         233.341         133.494         237.888 
       0.527909         226.251          127.06         229.219 
       0.540159         219.542         120.973         222.607 
        0.55248         214.839         115.197         215.672 
       0.564743         208.996         109.849         210.746 
        0.57686         201.741         104.934         204.028 
       0.589077         193.516         100.294         199.533 
       0.601441         190.262         95.8826         194.573 
        0.61382         188.215         91.7228         189.493 
       0.626067         182.696         87.8411         184.876 
       0.638306         174.651         84.1858         180.981 
       0.650632         169.615         80.7225         175.041 
       0.662899          169.64         77.4771         171.786 
       0.675076         163.521         74.4356         167.843 
       0.687267         159.331         71.5536         164.143 
       0.699615         155.851         68.7881         160.799 
       0.711937         151.897         66.1738         157.276 
       0.724148         149.458         63.7176         155.005 
       0.736433         145.477         61.3738         151.286 
       0.748747         142.229         59.1445         148.144 
       0.761037         139.964         57.0313         144.954 
       0.773197         136.974         55.0432         143.334 
       0.785376          135.09         53.1477         139.953 
       0.797761         132.588         51.3121         138.129 
       0.810096         128.951         49.5704         135.299 
       0.822371         125.315         47.9181         132.984 
       0.834626           123.4         46.3441         130.691 
       0.846916         122.144         44.8371          128.66 
       0.859215         120.255         43.3966         126.403 
       0.871383         118.088          42.034          124.28 
        0.88363         115.546         40.7222         122.747 
       0.895928         113.349         39.4616         120.969 
       0.908253         110.351         38.2523         118.733 
       0.920535         109.813          37.098           117.2 
       0.932774          106.86         35.9956         115.143 
        0.94508         105.902         34.9326         113.548 
       0.957324         104.257          33.918         112.007 
        0.96953         104.002         32.9469         110.135 
       0.981769          100.61         32.0116          109.08 
       0.994071         99.7924         31.1084         107.488 
         1.0064         97.4595         30.2385         105.927 
        1.01868         96.6091         29.4047          104.66 
        1.03092         94.7666         28.6062         103.306 
         1.0432         93.1774         27.8345         101.901 
        1.05553         90.8312         27.0885         100.947 
        1.06777         90.7054         26.3753         99.7012 
           1.08         88.9252         25.6887         98.3725 
        1.09227         87.5644         25.0243         97.0739 
         1.1046         86.0661         24.3811         95.9029 
         1.1169         85.0708         23.7617           94.56 
        1.12915         83.9551          23.167         93.5921 
        1.14142         82.4332         22.5915         92.4393 
        1.15365         80.8181         22.0373         91.3865 
        1.16585         79.8656         21.5032         90.2718 
        1.17807          78.639         20.9863         89.3906 
        1.19037         78.5229          20.483         88.4759 
        1.20276         76.8167         19.9929         87.4401 
        1.21504         76.3013         19.5227         86.3831 
        1.22728         74.6128         19.0697         85.5315 
        1.23954         73.9765           18.63         84.4937 
        1.25184         72.6099         18.2034         83.7411 
        1.26414         71.5346         17.7899         82.8351 
        1.27632         70.8555         17.3931         82.1685 
         1.2886         69.8288         17.0056         81.0605 
        1.30093          68.905         16.6286           80.11 
        1.31316          68.052         16.2658          79.564 
        1.32541         67.5028         15.9138         78.7153 
        1.33772          66.387         15.5703         77.8983 
        1.35005         65.7779         15.2367         77.1544 
        1.36225         64.6989         14.9164         76.3672 
        1.37447         63.2466         14.6046         75.5646 
        1.38676         63.3461         14.3004         74.7727 
        1.39907         62.2136         14.0043         74.2249 
        1.41133         61.0705         13.7179         73.6398 
        1.42358         60.3614         13.4398         72.7138 
        1.43591         59.9434         13.1675         72.1174 
        1.44818         59.0673         12.9043         71.3198 
        1.46037         58.4021         12.6499          70.811 
        1.47263         57.6064         12.4009          70.234 
        1.48494         56.8013         12.1577         69.5016 
        1.49724         56.0388         11.9212         68.8322 
        1.50952         55.6913         11.6915         68.1728 
        1.52178         54.9131         11.4682         67.6567 
        1.53409         54.3979         11.2499         67.0695 
        1.54637         53.1877         11.0377         66.4178 
        1.55858         52.5378         10.8321         65.7704 
        1.57081         52.2342         10.6316          65.329 
        1.58313         51.4504         10.4348         64.7941 
        1.59544         50.7208         10.2432         64.1423 
        1.60767         50.1649         10.0576         63.6124 
        1.61994         49.3864           9.876         63.1215 
        1.63225         48.9173         9.69849         62.4783 
        1.64452         48.3891         9.52584         62.0336 
        1.65676          47.672         9.35794         61.4436 
          1.669         47.3234         9.19397         61.0127 
        1.68133          46.866          9.0329         60.4315 
        1.69363         46.0655         8.87615         59.9993 
        1.70585         45.8003         8.72414         59.5349 
        1.71809         44.8901         8.57538         58.9961 
        1.73038         44.6261         8.42962         58.5635 
        1.74268         43.9148         8.28717         58.0212 
        1.75493         43.4835         8.14867         57.5671 
        1.76714         42.9251         8.01369         57.1029 
        1.77942         42.6701         7.88108          56.668 
        1.79173         41.9815         7.75114          56.156 
        1.80402         41.5679          7.6244         55.8077 
         1.8163         41.0608         7.50057         55.2554 
         1.8286         40.5219         7.37928         54.9368 
         1.8409         40.0432         7.26077         54.3966 
        1.85315         39.6388         7.14527         54.0928 
        1.86537         39.1459         7.03251         53.6595 
        1.87765         38.8259         6.92177         53.1851 
        1.88995         38.2344         6.81315         52.7214 
        1.90221         37.9478         6.70724         52.3267 
        1.91445         37.3103         6.60375         51.9927 
        1.92674         36.9972          6.5021         51.5405 
        1.93902         36.6122         6.40258         51.1526 
        1.95124         36.1447         6.30568         50.8238 
         1.9635         35.6678         6.21053         50.3983 
        1.97583         35.3502         6.11675         50.0807 
        1.98812         34.8068         6.02526         49.6572 
        2.00039         34.4946         5.93583         49.2737 
        2.01264         34.0106          5.8483           48.96 
        2.02492         33.7336          5.7624         48.5871 
        2.03717         33.2734         5.67838          48.192 
        2.04942         32.9123         5.59614         47.8337 
        2.06171          32.577         5.51525         47.4695 
        2.07397         32.2083         5.43614         47.1429 
        2.08629         31.8293         5.35825         46.7864 
        2.09857         31.5244         5.28208         46.4716 
        2.11081         31.0989          5.2077         46.1082 
        2.12309         30.8646         5.13457           45.76 
        2.13538         30.3292         5.06274          45.488 
        2.14763         30.1192         4.99253         45.1311 
        2.15986         29.8566         4.92382         44.7792 
        2.17214         29.4317         4.85612          44.515 
        2.18443         29.1249         4.78962         44.1259 
        2.19671         28.7349         4.72446         43.8303 
        2.20898         28.3839         4.66058         43.5005 
        2.22126         28.2912         4.59782         43.1826 
        2.23354         27.9017         4.53623         42.9356 
         2.2458         27.5681         4.47588         42.6052 
        2.25807         27.1696         4.41658         42.2857 
        2.27035         26.8897          4.3583         42.0132 
        2.28263         26.6305          4.3011         41.7289 
         2.2949         26.3798         4.24495         41.4354 
        2.30718         26.1234         4.18979         41.1176 
        2.31946         25.8764         4.13558         40.8383 
        2.33169         25.5661         4.08257          40.554 
        2.34393         25.2535         4.03041         40.2519 
        2.35622         24.9845         3.97899          40.027 
        2.36847         24.7069         3.92861         39.7023 
        2.38076         24.4986         3.87895         39.4745 
        2.39305         24.1738         3.83017         39.2106 
        2.40534         23.9826         3.78222         38.8863 
        2.41762         23.6653          3.7351         38.6629 
        2.42989         23.5577         3.68885         38.3696 
        2.44216         23.2264         3.64339         38.1322 
         2.4544          23.033         3.59881         37.8762 
        2.46667         22.7686         3.55486         37.6146 
        2.47897         22.5174         3.51154          37.361 
        2.49124         22.3548         3.46907          37.111 
        2.50349         22.0763         3.42736         36.8746 
        2.51578         21.8149         3.38621         36.6326 
        2.52805         21.6482         3.34581         36.3748 
        2.54029         21.4666         3.30617         36.1295 
        2.55257         21.2836         3.26706         35.8831 
        2.56487         21.0191          3.2285         35.6537 
        2.57716         20.8691         3.19061         35.3972 
        2.58942         20.6477         3.15343         35.1968 
        2.60167         20.4532         3.11686         34.9517 
        2.61395         20.2626         3.08083         34.7178 
        2.62624         20.1453         3.04531         34.4943 
        2.63849         19.9434         3.01047         34.2749 
        2.65073         19.6868         2.97621         34.0366 
        2.66302         19.4783         2.94236         33.8315 
         2.6753         19.4076         2.90906         33.6152 
        2.68756         19.2823         2.87634         33.4198 
        2.69983         19.0766          2.8441         33.1649 
        2.71213         18.8661         2.81229         32.9573 
        2.72441         18.7496         2.78102         32.7322 
        2.73665         18.5958          2.7503         32.5196 
         2.7489         18.3892         2.72007         32.3196 
        2.76118         18.2945         2.69019         32.0969 
        2.77349         18.1823          2.6607         31.9074 
        2.78576         17.9617         2.63176          31.719 
        2.79802         17.8426         2.60326         31.5053 
        2.81031         17.7321         2.57513         31.3132 
        2.82259         17.6403         2.54742         31.1209 
        2.83483         17.4488         2.52022          30.911 
         2.8471         17.4039         2.49337         30.7004 
         2.8594         17.2552         2.46682         30.5106 
         2.8717         17.1424         2.44068          30.316 
        2.88396         16.9818           2.415          30.119 
        2.89619         16.9458         2.38975         29.9388 
        2.90847         16.8424         2.36476         29.7559 
        2.92072         16.7085         2.34017         29.5659 
        2.93299         16.6393         2.31591         29.3981 
        2.94526         16.5846         2.29198         29.2145 
        2.95753         16.5126          2.2684         29.0227 
        2.96982          16.406          2.2451         28.8479 
        2.98209         16.3028         2.22218         28.6749 
        2.99436         16.2638         2.19957         28.4957 
        3.00666         16.1629         2.17722         28.3139 
        3.01894         16.1249         2.15524         28.1392 
        3.03119         16.0096         2.13358         27.9668 
        3.04345         16.0333         2.11222         27.7983 
        3.05573         16.0065         2.09112         27.6299 
          3.068         15.8918         2.07032         27.4546 
        3.08026         15.8822         2.04983         27.2857 
        3.09254         15.8165         2.02957          27.123 
        3.10483         15.8063         2.00959         26.9624 
         3.1171         15.8454          1.9899         26.8041 
        3.12933         15.7785         1.97053         26.6436 
        3.14159         15.6952         1.95138         26.4728 
