# k  (h/Mpc)    Pcb(k)  (Mpc/h)^3    Pcb_linear(k) (Mpc/h)^3    Pcb_NL(k) (Mpc/h)^3   ShotnoiseSubtracted = false
      0.0156606         2727.24         2729.16         2715.69 
      0.0273761         2369.53         2361.61         2354.98 
      0.0384619          1800.6         1779.87         1777.59 
      0.0498308          1411.4         1400.27         1399.08 
      0.0625568         1190.84         1190.21         1188.08 
      0.0751274         1030.55         1011.29         1007.34 
      0.0867833           817.5         814.239         813.727 
      0.0984825         662.563         644.387         646.941 
       0.111151         554.999         538.065         540.546 
       0.123864         498.544         484.914          486.79 
       0.135742         447.946         436.064         437.921 
        0.14762         380.642          372.86         377.276 
       0.160083         316.081         310.803         315.842 
       0.172465         278.532         271.274         277.321 
       0.184281          258.21         250.083         256.504 
       0.196406         235.511         230.952          235.89 
       0.209011         212.245         205.489         211.096 
       0.221538         188.503         179.579         187.427 
       0.233611         169.899         160.677         169.396 
       0.245665         159.544         148.299         156.052 
       0.258103          143.82         138.054         145.774 
       0.270422         135.001         126.856         134.351 
       0.282519         122.491         115.129         123.134 
       0.294636          116.72         104.895         113.338 
       0.306978          103.29         97.0457          105.77 
       0.319417         98.5418         90.7322         99.1698 
        0.33169         91.6006         84.6889         92.8421 
       0.343948         86.9286         78.4692           86.76 
       0.356249         79.7646         72.6363         81.7147 
       0.368458         76.0913         67.7507         76.1225 
        0.38068         71.3259          63.665          71.967 
       0.392856         66.6755         59.9353         68.3091 
       0.405069         63.0835         56.2885         64.4195 
       0.417459         59.0344         52.7573         60.9473 
       0.429752         56.5258         49.5875         57.7828 
       0.441978         53.8167         46.8054         55.3071 
       0.454294         50.0763          44.279         52.3422 
        0.46658         49.6138         41.9086         49.9338 
       0.478753         46.1393         39.6723         47.7188 
       0.490964          44.559         37.5718         45.7481 
       0.503334         42.6861         35.6329          43.581 
       0.515665         40.5338         33.8649          42.103 
       0.527909          38.784         32.2328         39.8916 
       0.540159         37.1582         30.6887         38.3556 
        0.55248         34.7409         29.2235         36.7345 
       0.564743         34.2653         27.8668         35.5133 
        0.57686         33.1039         26.6199         34.1518 
       0.589077         31.1691         25.4429         33.0378 
       0.601441          30.067         24.3237         31.8288 
        0.61382         29.0136         23.2684         30.5652 
       0.626067         27.8416         22.2837         29.6127 
       0.638306         26.9128         21.3564         28.5229 
       0.650632         26.1668         20.4779         27.6083 
       0.662899         25.0407         19.6546         26.6449 
       0.675076         23.8944          18.883         25.7888 
       0.687267         23.5326         18.1519         24.9428 
       0.699615          22.726         17.4503          24.241 
       0.711937         21.5743         16.7871         23.4463 
       0.724148         21.4528          16.164         22.8421 
       0.736433         20.2068         15.5695         22.1089 
       0.748747         19.8321         15.0039          21.498 
       0.761037         19.3358         14.4678         20.9295 
       0.773197         18.6499         13.9635          20.383 
       0.785376         17.9443         13.4826         19.8283 
       0.797761         17.5428          13.017         19.2926 
       0.810096         17.1307         12.5751         18.8246 
       0.822371         16.6559          12.156         18.2708 
       0.834626          16.126         11.7567         17.8735 
       0.846916         15.6278         11.3744         17.4065 
       0.859215          15.059          11.009          16.995 
       0.871383          14.777         10.6633         16.6286 
        0.88363         14.3888         10.3305         16.2257 
       0.895928         14.1056         10.0107         15.8092 
       0.908253         13.7355         9.70394         15.4845 
       0.920535           13.32         9.41111         15.1148 
       0.932774         13.1071         9.13144          14.731 
        0.94508         12.6711         8.86179         14.4525 
       0.957324         12.4336         8.60439         14.1678 
        0.96953         11.9969         8.35805         13.8459 
       0.981769         11.8918         8.12078         13.5592 
       0.994071         11.5669         7.89164         13.2714 
         1.0064         11.2006         7.67099         13.0152 
        1.01868         10.9849         7.45946         12.7613 
        1.03092         10.8055         7.25688         12.4915 
         1.0432         10.4106         7.06113         12.2405 
        1.05553         10.2459         6.87188         12.0493 
        1.06777         9.94541         6.69096         11.7884 
           1.08         9.76887         6.51676         11.5787 
        1.09227         9.56892         6.34823         11.3679 
         1.1046         9.38905         6.18506         11.1375 
         1.1169         9.09535         6.02793         10.9376 
        1.12915          9.0722         5.87706         10.7873 
        1.14142         8.72121         5.73106         10.5682 
        1.15365          8.6203         5.59048         10.3828 
        1.16585         8.50828           5.455         10.2326 
        1.17807         8.25674         5.32386         10.0268 
        1.19037         8.11207         5.19618          9.8731 
        1.20276         7.91622         5.07184         9.69914 
        1.21504         7.80281         4.95257         9.55877 
        1.22728         7.60187         4.83764         9.38709 
        1.23954         7.48615          4.7261         9.25987 
        1.25184         7.32761         4.61787         9.10706 
        1.26414         7.23508           4.513         8.94819 
        1.27632         7.03002         4.41233         8.82105 
         1.2886         6.94837         4.31404            8.69 
        1.30093         6.80812          4.2184         8.58708 
        1.31316         6.65459         4.12636         8.43804 
        1.32541         6.55734         4.03706         8.33673 
        1.33772         6.43065         3.94992         8.19383 
        1.35005         6.34659          3.8653         8.08842 
        1.36225         6.21829         3.78402         7.95778 
        1.37447         6.10835         3.70493         7.86261 
        1.38676         5.99361         3.62775          7.7569 
        1.39907         5.88298         3.55264         7.64958 
        1.41133         5.79845         3.47999         7.54422 
        1.42358         5.68226         3.40944         7.43765 
        1.43591         5.61961         3.34037         7.35518 
        1.44818           5.482          3.2736         7.25413 
        1.46037         5.39049         3.20905         7.15549 
        1.47263          5.3137         3.14589         7.07278 
        1.48494         5.25499         3.08419         6.97332 
        1.49724         5.15201          3.0242         6.89047 
        1.50952         5.12337         2.96593         6.80843 
        1.52178         5.00274         2.90928         6.72302 
        1.53409         4.90584         2.85389         6.63167 
        1.54637         4.84924         2.80006         6.55223 
        1.55858         4.78547         2.74792         6.46928 
        1.57081         4.68312         2.69704         6.41059 
        1.58313         4.62817         2.64714         6.32771 
        1.59544         4.54303         2.59852         6.26198 
        1.60767         4.49407         2.55144         6.18129 
        1.61994         4.41891         2.50537         6.12159 
        1.63225         4.34242         2.46034         6.04865 
        1.64452         4.27054         2.41654          5.9781 
        1.65676         4.20991         2.37395         5.91475 
          1.669         4.17264         2.33235         5.85032 
        1.68133         4.06658         2.29149          5.7859 
        1.69363         4.04806         2.25173         5.73104 
        1.70585         3.98514         2.21316         5.66158 
        1.71809         3.94161         2.17543         5.60832 
        1.73038         3.88365         2.13845          5.5464 
        1.74268         3.81973         2.10231         5.49099 
        1.75493         3.77095         2.06718         5.42958 
        1.76714         3.73989         2.03293         5.37527 
        1.77942         3.67725         1.99929         5.32025 
        1.79173         3.62744         1.96633         5.26255 
        1.80402         3.58152         1.93418         5.21334 
         1.8163         3.55131         1.90276         5.16821 
         1.8286         3.49049         1.87199         5.11991 
         1.8409         3.43426         1.84193         5.07187 
        1.85315         3.39898         1.81263         5.01104 
        1.86537         3.36871         1.78403         4.97204 
        1.87765         3.30967         1.75593         4.92013 
        1.88995         3.26473         1.72838         4.87905 
        1.90221         3.22626         1.70151         4.83005 
        1.91445         3.19212         1.67526         4.79677 
        1.92674         3.16707         1.64947         4.74096 
        1.93902         3.11062         1.62422          4.6954 
        1.95124         3.07206         1.59964         4.65588 
         1.9635         3.05387          1.5755         4.61734 
        1.97583         2.99977         1.55171         4.57744 
        1.98812         2.96108          1.5285         4.53356 
        2.00039         2.93087         1.50582         4.49481 
        2.01264         2.89323         1.48361          4.4627 
        2.02492         2.86445         1.46182         4.42212 
        2.03717         2.82799         1.44051         4.38139 
        2.04942         2.79206         1.41964         4.34624 
        2.06171         2.75885         1.39912         4.30694 
        2.07397         2.73384         1.37905         4.27122 
        2.08629         2.70817          1.3593         4.24084 
        2.09857         2.67513         1.33997         4.20289 
        2.11081         2.63873          1.3211         4.16918 
        2.12309         2.61881         1.30255         4.13492 
        2.13538         2.58435         1.28433         4.10514 
        2.14763         2.56859         1.26652         4.06948 
        2.15986         2.54131         1.24909         4.04052 
        2.17214         2.49903         1.23191         4.00142 
        2.18443         2.48771         1.21504         3.97186 
        2.19671         2.45266         1.19851         3.94186 
        2.20898         2.42972         1.18231         3.91439 
        2.22126         2.41003         1.16639         3.88399 
        2.23354         2.37947         1.15076         3.85309 
         2.2458         2.36727         1.13545         3.81978 
        2.25807         2.33409         1.12041         3.79534 
        2.27035         2.30885         1.10562         3.76931 
        2.28263         2.28426         1.09111         3.74018 
         2.2949         2.27012         1.07687         3.71448 
        2.30718         2.24583         1.06288         3.69003 
        2.31946         2.22062         1.04913         3.66257 
        2.33169         2.20262         1.03568         3.63448 
        2.34393         2.19145         1.02244         3.60857 
        2.35622         2.16598          1.0094         3.58231 
        2.36847         2.14149         0.99662         3.55584 
        2.38076         2.12442        0.984023         3.53013 
        2.39305         2.10229        0.971647         3.50344 
        2.40534         2.08428        0.959483         3.48233 
        2.41762         2.06036         0.94753         3.46112 
        2.42989         2.04808        0.935798         3.43464 
        2.44216         2.03397        0.924266         3.41317 
         2.4544         2.01432        0.912955         3.39113 
        2.46667         1.99667        0.901807         3.36802 
        2.47897         1.98178        0.890818         3.34439 
        2.49124         1.96098        0.880043         3.32288 
        2.50349         1.94889        0.869462          3.3004 
        2.51578          1.9287        0.859024         3.27589 
        2.52805         1.91092        0.848775          3.2561 
        2.54029         1.90206        0.838719         3.23519 
        2.55257         1.88355        0.828795         3.21447 
        2.56487         1.86997        0.819014         3.19296 
        2.57716         1.86269        0.809404         3.17269 
        2.58942         1.84324        0.799969         3.15301 
        2.60167         1.83116        0.790694         3.13163 
        2.61395         1.80866        0.781553         3.11475 
        2.62624         1.80437        0.772543          3.0949 
        2.63849         1.79116        0.763704          3.0737 
        2.65073         1.77565        0.755013         3.05489 
        2.66302         1.76261        0.746426         3.03737 
         2.6753         1.76198        0.737977         3.01872 
        2.68756         1.73922        0.729677          3.0007 
        2.69983         1.72831        0.721499         2.98109 
        2.71213         1.72163        0.713429         2.96345 
        2.72441         1.70968        0.705497         2.94592 
        2.73665         1.69571        0.697704         2.92994 
         2.7489         1.68589        0.690034         2.91446 
        2.76118         1.67637        0.682455         2.89696 
        2.77349         1.67354        0.674972         2.87948 
        2.78576         1.66354        0.667631         2.86213 
        2.79802         1.65543        0.660403         2.84547 
        2.81031         1.63987        0.653265         2.82821 
        2.82259         1.63307        0.646236         2.81162 
        2.83483         1.62887        0.639336         2.79686 
         2.8471         1.62033        0.632524         2.78084 
         2.8594         1.61131         0.62579         2.76579 
         2.8717          1.6043        0.619157         2.75033 
        2.88396         1.60081        0.612645         2.73403 
        2.89619         1.58808        0.606238         2.71847 
        2.90847         1.58412        0.599898         2.70238 
        2.92072         1.57925         0.59366         2.68876 
        2.93299         1.57824        0.587507         2.67412 
        2.94526         1.57102        0.581437         2.66001 
        2.95753         1.56281        0.575453         2.64537 
        2.96982           1.561        0.569544         2.63058 
        2.98209            1.56         0.56373         2.61747 
        2.99436         1.55346        0.557992         2.60346 
        3.00666         1.55599        0.552324         2.58983 
        3.01894         1.54935        0.546746          2.5745 
        3.03119         1.54913        0.541253         2.56111 
        3.04345         1.54599        0.535835         2.54902 
        3.05573         1.54421         0.53048         2.53609 
          3.068         1.54455        0.525204         2.52275 
        3.08026         1.54062        0.520006          2.5084 
        3.09254         1.54559        0.514868         2.49503 
        3.10483         1.54581        0.509798         2.48314 
         3.1171         1.54561        0.504804         2.47092 
        3.12933         1.54634         0.49989         2.45751 
        3.14159         1.54642        0.495031         2.44426 
