# k  (h/Mpc)    P(k)  (Mpc/h)^3    P_linear(k)  (Mpc/h)^3     P_NL(k)  ShotnoiseSubtracted = false
      0.0156606         9405.64          9589.6         9532.38 
      0.0273761          8109.7         8280.67         8233.61 
      0.0384619         6151.55         6234.55         6200.51 
      0.0498308         4786.43         4901.99         4870.44 
      0.0625568         4038.58         4164.99         4134.68 
      0.0751274          3549.5         3538.02          3493.1 
      0.0867833         2779.48          2848.2         2837.06 
      0.0984825         2297.23         2253.82         2272.31 
       0.111151          1940.6         1881.79         1901.37 
       0.123864         1742.75         1695.79         1712.25 
       0.135742         1574.52         1524.89         1541.82 
        0.14762         1350.71         1303.83         1346.12 
       0.160083         1125.18         1086.79         1135.91 
       0.172465         1001.16         948.546         1009.64 
       0.184281         923.278         874.436         938.186 
       0.196406         847.207          807.53         860.016 
       0.209011         776.943         718.488         775.071 
       0.221538         699.307         627.885         706.699 
       0.233611         646.584          561.79         650.239 
       0.245665         600.853         518.508         598.122 
       0.258103          561.19         482.684         561.831 
       0.270422         515.087         443.529         522.311 
       0.282519         472.464         402.525         485.227 
       0.294636         466.538         366.744         453.725 
       0.306978         414.162         339.299         429.701 
       0.319417         397.994         317.224          403.93 
        0.33169         373.561         296.094         379.779 
       0.343948         356.277         274.347          362.63 
       0.356249         332.665         253.954         345.794 
       0.368458         321.991         236.871         325.569 
        0.38068         306.994         222.588         310.251 
       0.392856         287.176         209.547         297.056 
       0.405069          275.47         196.796         285.712 
       0.417459          262.87         184.451         270.549 
       0.429752         253.418         173.369         260.044 
       0.441978          244.72         163.641         251.594 
       0.454294         228.578         154.808         239.544 
        0.46658         228.272          146.52         232.201 
       0.478753         216.548         138.702         223.766 
       0.490964          209.68         131.357         215.546 
       0.503334         198.387         124.579         208.869 
       0.515665         194.852         118.398         203.735 
       0.527909         189.032         112.691          195.85 
       0.540159         183.093         107.292         190.172 
        0.55248         178.632          102.17          184.04 
       0.564743         173.456         97.4269          179.63 
        0.57686         167.702         93.0675         173.818 
       0.589077         160.635         88.9524         169.891 
       0.601441         157.579         85.0394         165.568 
        0.61382         155.677           81.35         160.975 
       0.626067         150.448         77.9073         156.967 
       0.638306         144.312         74.6653         153.504 
       0.650632         139.661         71.5936         148.319 
       0.662899          139.77         68.7152          145.35 
       0.675076          134.79         66.0177         141.942 
       0.687267         131.439         63.4615         138.751 
       0.699615         128.117         61.0088           135.9 
       0.711937         124.637         58.6901         132.657 
       0.724148         123.048         56.5117         130.774 
       0.736433         119.186          54.433         127.504 
       0.748747         116.613         52.4558         124.809 
       0.761037         114.529         50.5815         121.994 
       0.773197         112.029         48.8183         120.633 
       0.785376         110.081         47.1371         117.686 
       0.797761         108.494          45.509         116.077 
       0.810096         104.989         43.9643         113.586 
       0.822371          102.57         42.4989         111.583 
       0.834626         100.612         41.1029         109.661 
       0.846916         99.5505         39.7663         107.884 
       0.859215         97.7223         38.4887         105.876 
       0.871383          96.232         37.2803         104.101 
        0.88363         93.8164         36.1168         102.757 
       0.895928         92.0614         34.9987         101.198 
       0.908253         89.6848         33.9262         99.3518 
       0.920535         89.2628         32.9024         98.0041 
       0.932774         87.1476         31.9247         96.2603 
        0.94508          86.202         30.9819         94.7982 
       0.957324         84.4267          30.082         93.5583 
        0.96953         84.4794         29.2208         91.9531 
       0.981769         81.6694         28.3912          91.013 
       0.994071         80.8529         27.5901         89.6726 
         1.0064         79.0508         26.8187         88.3664 
        1.01868         78.2736         26.0792         87.2583 
        1.03092         76.7765         25.3709          86.075 
         1.0432         75.4835         24.6866         84.8549 
        1.05553         73.5199         24.0249         84.1027 
        1.06777         73.3529         23.3924         82.9903 
           1.08         71.8402         22.7834         81.8716 
        1.09227          70.753         22.1942         80.7059 
         1.1046         69.6181         21.6237         79.7396 
         1.1169         68.8242         21.0744          78.596 
        1.12915         67.9202         20.5469         77.8053 
        1.14142          66.606         20.0365         76.8521 
        1.15365         65.4003          19.545         75.9727 
        1.16585         64.5609         19.0713         74.9967 
        1.17807         63.5731         18.6128         74.1928 
        1.19037          63.481         18.1665         73.4566 
        1.20276         62.1794         17.7318         72.6037 
        1.21504         61.7036         17.3148          71.727 
        1.22728         60.3796          16.913         71.0038 
        1.23954         59.7525          16.523         70.0976 
        1.25184         58.7601         16.1446         69.4928 
        1.26414         57.8167          15.778         68.6837 
        1.27632         57.3192          15.426         68.0713 
         1.2886         56.6632         15.0824         67.2241 
        1.30093         55.8891          14.748         66.3938 
        1.31316         55.0617         14.4262         65.9552 
        1.32541         54.7243          14.114         65.2123 
        1.33772         53.7631         13.8094         64.5321 
        1.35005         53.2348         13.5135         63.9257 
        1.36225         52.3198         13.2294         63.2708 
        1.37447         51.1109         12.9529         62.6113 
        1.38676         51.2756          12.683         61.9864 
        1.39907         50.4485         12.4204         61.5029 
        1.41133         49.4568         12.1665         60.9907 
        1.42358          48.888         11.9198         60.2492 
        1.43591         48.5138         11.6783         59.7697 
        1.44818          47.869         11.4449         59.0683 
        1.46037         47.2976         11.2192         58.6455 
        1.47263         46.8242         10.9984         58.1698 
        1.48494         45.9771         10.7827         57.5503 
        1.49724         45.5728          10.573         57.0186 
        1.50952         45.2072         10.3692         56.4896 
        1.52178         44.5257         10.1712         56.0468 
        1.53409         44.1388         9.97753         55.5515 
        1.54637         43.3302         9.78933         55.0157 
        1.55858         42.5549         9.60705         54.4858 
        1.57081         42.4823         9.42917         54.1232 
        1.58313         41.9722         9.25469         53.6709 
        1.59544         41.2841         9.08473         53.1452 
        1.60767         40.7676         8.92013         52.6879 
        1.61994         40.2087         8.75905         52.2641 
        1.63225         39.9419         8.60162         51.7809 
        1.64452          39.499          8.4485         51.3961 
        1.65676         38.9446         8.29959         50.9208 
          1.669         38.6323         8.15416         50.5762 
        1.68133         38.2863          8.0113         50.0841 
        1.69363         37.6303         7.87229         49.7033 
        1.70585         37.4018         7.73746          49.366 
        1.71809         36.7262         7.60553          48.864 
        1.73038         36.5277         7.47626         48.5579 
        1.74268         35.9321         7.34992         48.0764 
        1.75493         35.5934         7.22708          47.724 
        1.76714         35.1914         7.10736         47.3632 
        1.77942         34.9052         6.98975         46.9929 
        1.79173         34.4397         6.87451         46.5874 
        1.80402          34.049          6.7621         46.3167 
         1.8163         33.7441         6.65227         45.8215 
         1.8286         33.2464          6.5447         45.5562 
         1.8409         32.9157          6.4396         45.1374 
        1.85315         32.5709         6.33716         44.8753 
        1.86537         32.1535         6.23715         44.5323 
        1.87765         31.9655         6.13893          44.159 
        1.88995         31.4684          6.0426         43.7551 
        1.90221         31.2194         5.94867         43.4385 
        1.91445         30.7215         5.85689         43.1598 
        1.92674         30.4671         5.76673         42.7955 
        1.93902         30.1367         5.67847         42.4944 
        1.95124         29.6487         5.59252         42.2239 
         1.9635         29.4103         5.50814         41.8754 
        1.97583         29.1113         5.42496         41.6111 
        1.98812         28.7952         5.34382         41.2779 
        2.00039         28.4458          5.2645         40.9661 
        2.01264         28.1083         5.18687         40.7054 
        2.02492         27.8795         5.11069         40.3891 
        2.03717         27.5091         5.03617         40.0827 
        2.04942         27.2495         4.96323         39.7767 
        2.06171         26.9823         4.89149         39.5085 
        2.07397         26.7153         4.82133           39.21 
        2.08629         26.4083         4.75225         38.9263 
        2.09857         26.1177         4.68469         38.6655 
        2.11081         25.8165         4.61872         38.3776 
        2.12309         25.6168         4.55387         38.0945 
        2.13538          25.177         4.49016         37.8718 
        2.14763         25.0673         4.42789         37.5794 
        2.15986         24.7582         4.36695         37.2937 
        2.17214         24.5005          4.3069         37.0691 
        2.18443         24.2357         4.24793         36.7606 
        2.19671         23.9288         4.19013         36.5199 
        2.20898         23.7034         4.13348         36.2472 
        2.22126         23.5929         4.07782         35.9959 
        2.23354         23.2987          4.0232         35.7911 
         2.2458         23.0836         3.96967         35.5297 
        2.25807         22.7434         3.91708         35.2596 
        2.27035         22.5118         3.86538         35.0433 
        2.28263         22.3451         3.81465         34.8111 
         2.2949         22.1139         3.76486         34.5711 
        2.30718         21.9171         3.71594         34.3107 
        2.31946         21.7447         3.66786         34.0832 
        2.33169         21.4729         3.62085         33.8549 
        2.34393         21.2456         3.57458         33.6242 
        2.35622         21.0547         3.52898         33.4256 
        2.36847         20.8149         3.48429         33.1646 
        2.38076         20.6656         3.44025         32.9801 
        2.39305         20.4024         3.39699         32.7676 
        2.40534         20.2387         3.35446         32.5001 
        2.41762         20.0165         3.31267         32.3337 
        2.42989         19.9177         3.27165         32.0728 
        2.44216         19.6097         3.23133          31.891 
         2.4544         19.5499         3.19179         31.6724 
        2.46667         19.3202         3.15282         31.4684 
        2.47897         19.0843          3.1144         31.2514 
        2.49124         18.9963         3.07673          31.051 
        2.50349         18.7332         3.03974         30.8477 
        2.51578          18.602         3.00324         30.6602 
        2.52805         18.4094         2.96741         30.4511 
        2.54029         18.2612         2.93225         30.2515 
        2.55257         18.1444         2.89756         30.0478 
        2.56487         17.9044         2.86336         29.8666 
        2.57716         17.8194         2.82976          29.652 
        2.58942         17.6729         2.79678         29.4893 
        2.60167         17.4519         2.76436         29.2933 
        2.61395         17.3271          2.7324         29.1021 
        2.62624         17.2489          2.7009         28.9111 
        2.63849         17.0456         2.66999         28.7464 
        2.65073         16.8672         2.63961         28.5491 
        2.66302          16.739         2.60959          28.382 
         2.6753         16.6681         2.58005         28.1993 
        2.68756         16.5325         2.55103         28.0393 
        2.69983         16.3638         2.52244         27.8316 
        2.71213         16.2045         2.49423         27.6567 
        2.72441         16.0883         2.46649         27.4805 
        2.73665         15.9838         2.43925         27.3081 
         2.7489          15.881         2.41243         27.1439 
        2.76118         15.7648         2.38594         26.9697 
        2.77349         15.6507         2.35978         26.8105 
        2.78576         15.5301         2.33411         26.6571 
        2.79802          15.433         2.30884         26.4779 
        2.81031         15.3342         2.28389         26.3133 
        2.82259         15.1982         2.25931         26.1664 
        2.83483         15.1638         2.23519         25.9987 
         2.8471         15.0731         2.21137         25.8214 
         2.8594         14.9247         2.18783           25.66 
         2.8717         14.8753         2.16464         25.5091 
        2.88396         14.7758         2.14187         25.3493 
        2.89619         14.7307         2.11947          25.197 
        2.90847         14.6108         2.09731         25.0562 
        2.92072         14.5474          2.0755          24.884 
        2.93299         14.4617         2.05399          24.754 
        2.94526         14.4086         2.03277         24.6105 
        2.95753         14.3812         2.01185         24.4484 
        2.96982         14.2765         1.99119          24.304 
        2.98209          14.202         1.97086         24.1638 
        2.99436         14.1777          1.9508         24.0124 
        3.00666         14.1399         1.93099         23.8625 
        3.01894         14.0736         1.91149         23.7301 
        3.03119         14.0473         1.89228         23.5887 
        3.04345         13.9766         1.87334         23.4429 
        3.05573         13.9826         1.85462         23.3061 
          3.068         13.9004         1.83617          23.168 
        3.08026         13.8942           1.818         23.0211 
        3.09254         13.8078         1.80004         22.8891 
        3.10483         13.8415         1.78231         22.7617 
         3.1171         13.8886         1.76485         22.6295 
        3.12933         13.8346         1.74767         22.4967 
        3.14159         13.7681         1.73069         22.3544 
