# k  (h/Mpc)    Pcb(k)  (Mpc/h)^3    Pcb_linear(k) (Mpc/h)^3    Pcb_NL(k) (Mpc/h)^3   ShotnoiseSubtracted = false
      0.0156606         5724.98         5733.49         5702.55 
      0.0273761          4958.6         4959.91         4939.79 
      0.0384619         3767.31         3737.66         3725.99 
      0.0498308         2942.53         2940.33         2930.66 
      0.0625568         2482.89         2499.13         2488.76 
      0.0751274         2167.22          2123.4         2107.03 
      0.0867833         1707.21         1709.63          1706.4 
      0.0984825         1397.77         1352.98         1361.42 
       0.111151          1175.5         1129.73         1138.29 
       0.123864         1056.08         1018.13         1025.25 
       0.135742         951.397         915.562         922.865 
        0.14762         811.434         782.856         800.255 
       0.160083         673.904         652.559         672.366 
       0.172465          597.37         569.562         593.812 
       0.184281         553.117          525.07         550.732 
       0.196406         504.947         484.902         505.293 
       0.209011         459.067          431.44         453.981 
       0.221538         410.979         377.039         408.552 
       0.233611         374.591         337.353         372.568 
       0.245665          351.24         311.364         342.829 
       0.258103         320.425         289.854          321.19 
       0.270422         298.657         266.342         297.211 
       0.282519         271.872         241.721         274.247 
       0.294636         264.857         220.234         254.542 
       0.306978         233.801         203.754         239.386 
       0.319417         223.854         190.498         224.777 
        0.33169         208.892          177.81         210.914 
       0.343948         199.334         164.751         199.194 
       0.356249         184.614         152.505         188.983 
       0.368458         177.559         142.247         176.921 
        0.38068         167.955         133.669         167.937 
       0.392856         156.613         125.838         160.239 
       0.405069         149.173         118.181         152.538 
       0.417459         141.574         110.767         144.351 
       0.429752         136.062         104.112         137.982 
       0.441978         130.443         98.2709         132.926 
       0.454294         121.368         92.9666         126.064 
        0.46658         121.473         87.9897         121.316 
       0.478753         113.519         83.2945         116.605 
       0.490964         110.061         78.8843         112.026 
       0.503334         105.146         74.8135         107.786 
       0.515665         101.518         71.1015         104.758 
       0.527909         97.8881         67.6748         99.6986 
       0.540159         94.4665         64.4328         96.5996 
        0.55248         90.0915         61.3565         93.0373 
       0.564743         88.0074         58.5081         90.3119 
        0.57686         85.2784         55.8902         87.2575 
       0.589077         81.1048         53.4189         84.8816 
       0.601441         79.0638         51.0691         82.3448 
        0.61382         77.0734         48.8535         79.5538 
       0.626067         73.8756          46.786         77.4497 
       0.638306         71.6375         44.8391         75.1829 
       0.650632         69.1476         42.9945         72.5547 
       0.662899         68.1365         41.2659         70.6311 
       0.675076         65.4772          39.646         68.7861 
       0.687267         64.3886          38.111         66.9466 
       0.699615         62.1472          36.638          65.533 
       0.711937          59.884         35.2456          63.397 
       0.724148         59.5247         33.9373         62.3982 
       0.736433          56.506          32.689         60.5975 
       0.748747         55.7318         31.5016         59.1337 
       0.761037         54.2263         30.3761         57.7391 
       0.773197         53.0248         29.3172         56.7844 
       0.785376         51.3275         28.3076         55.3062 
       0.797761         50.8114         27.3299         54.2827 
       0.810096         49.3374         26.4023         52.9796 
       0.822371         48.3011         25.5222         51.7757 
       0.834626         47.0374         24.6839         50.9163 
       0.846916         46.0143         23.8812         49.8355 
       0.859215         44.7428          23.114         48.7577 
       0.871383         44.1395         22.3882         47.9046 
        0.88363         42.9962         21.6895         47.1241 
       0.895928         42.0026         21.0181         46.1006 
       0.908253         41.1342          20.374         45.3648 
       0.920535         40.6096         19.7592          44.491 
       0.932774          39.871          19.172         43.7074 
        0.94508         39.1481         18.6059         42.8227 
       0.957324         38.2256         18.0654         42.1763 
        0.96953         37.7126         17.5482         41.3736 
       0.981769           36.75         17.0501         40.8092 
       0.994071         36.1105          16.569         40.1286 
         1.0064          35.328         16.1057         39.4638 
        1.01868         34.6326         15.6616          38.884 
        1.03092         34.3105         15.2363         38.2294 
         1.0432         33.5564         14.8253         37.5281 
        1.05553          32.858         14.4279         37.2205 
        1.06777         32.1609         14.0481         36.5036 
           1.08         31.4363         13.6823          35.942 
        1.09227         31.0914         13.3285          35.509 
         1.1046         30.6392         12.9859         34.9134 
         1.1169         30.1966          12.656         34.4247 
        1.12915         29.7506         12.3392         33.9677 
        1.14142         29.0027         12.0327         33.4847 
        1.15365          28.693         11.7375         33.0573 
        1.16585         28.2885         11.4531         32.6028 
        1.17807         27.7374         11.1778         32.0708 
        1.19037         27.5463         10.9097         31.8157 
        1.20276         27.1375         10.6486         31.3473 
        1.21504          26.581         10.3982         31.0161 
        1.22728         26.1245         10.1569         30.5793 
        1.23954         25.8171         9.92273         30.1322 
        1.25184         25.3258          9.6955          29.814 
        1.26414         25.0298         9.47531         29.4089 
        1.27632          24.737         9.26395         29.0584 
         1.2886         24.4739         9.05757         28.7425 
        1.30093         23.9051         8.85678         28.4174 
        1.31316         23.6293         8.66354         28.0757 
        1.32541         23.3859         8.47605         27.7849 
        1.33772         22.9684         8.29309         27.4684 
        1.35005         22.6628         8.11542         27.1856 
        1.36225         22.3641         7.94477         26.8882 
        1.37447         21.8929         7.77873         26.5495 
        1.38676         21.7513         7.61668         26.3119 
        1.39907         21.4163         7.45898         26.0323 
        1.41133         21.0644         7.30645         25.7222 
        1.42358         20.8469         7.15833         25.4496 
        1.43591         20.5185         7.01331         25.2258 
        1.44818         20.2977         6.87312         24.9612 
        1.46037         20.1464          6.7376         24.6642 
        1.47263         19.8321         6.60499         24.4754 
        1.48494         19.6321         6.47545         24.1895 
        1.49724         19.4626         6.34949         23.9759 
        1.50952         19.0895         6.22715         23.7757 
        1.52178         18.8781         6.10821            23.5 
        1.53409         18.5882         5.99192         23.2868 
        1.54637            18.5         5.87889         23.0284 
        1.55858         18.1288         5.76943         22.8393 
        1.57081          17.991          5.6626         22.6408 
        1.58313         17.8153         5.55782         22.4146 
        1.59544         17.5006         5.45575         22.2348 
        1.60767         17.3402         5.35691         21.9977 
        1.61994         17.0522         5.26017         21.8277 
        1.63225         16.9938         5.16562         21.6699 
        1.64452         16.7318         5.07367          21.481 
        1.65676         16.5535         4.98424         21.2606 
          1.669         16.4099         4.89691         21.0862 
        1.68133          16.103         4.81112         20.8971 
        1.69363         15.9468         4.72763         20.6606 
        1.70585          15.761         4.64666         20.5633 
        1.71809         15.5847         4.56743         20.3705 
        1.73038         15.4208          4.4898         20.2218 
        1.74268         15.3008         4.41393         20.0161 
        1.75493         15.0306         4.34016         19.8664 
        1.76714          15.028         4.26826         19.7053 
        1.77942         14.8474         4.19763         19.5244 
        1.79173         14.5383         4.12842         19.3904 
        1.80402         14.4284         4.06092         19.2594 
         1.8163         14.3095         3.99496          19.078 
         1.8286         14.1124         3.93036         18.9462 
         1.8409         13.9648         3.86724         18.7978 
        1.85315         13.8517         3.80572         18.6445 
        1.86537         13.6874         3.74567         18.5089 
        1.87765          13.583         3.68668         18.3626 
        1.88995          13.367         3.62883         18.2223 
        1.90221         13.2845         3.57242         18.0718 
        1.91445          13.136          3.5173         17.9442 
        1.92674         12.9972         3.46316         17.8076 
        1.93902         12.8544         3.41015         17.7029 
        1.95124         12.6851         3.35854          17.593 
         1.9635         12.5709         3.30786          17.428 
        1.97583         12.4538         3.25791           17.28 
        1.98812         12.3495         3.20919         17.1768 
        2.00039         12.2722         3.16155         17.0549 
        2.01264         12.1388         3.11493         16.9467 
        2.02492         12.0152         3.06918         16.8004 
        2.03717         11.8627         3.02443         16.6886 
        2.04942         11.7395         2.98063         16.5653 
        2.06171         11.6851         2.93754         16.4515 
        2.07397         11.5534         2.89541          16.346 
        2.08629         11.4556         2.85392         16.2414 
        2.09857           11.36         2.81335         16.1218 
        2.11081         11.2394         2.77373         16.0259 
        2.12309         11.0947         2.73478         15.8963 
        2.13538         10.9809         2.69653         15.7863 
        2.14763         10.9018         2.65913         15.6894 
        2.15986         10.8665         2.62253         15.6017 
        2.17214         10.7395         2.58647         15.4742 
        2.18443         10.5959         2.55106         15.3822 
        2.19671         10.5622         2.51635         15.2732 
        2.20898         10.4281         2.48233          15.184 
        2.22126         10.3076          2.4489          15.081 
        2.23354         10.2701          2.4161         14.9705 
         2.2458          10.141         2.38395         14.9004 
        2.25807         10.0586         2.35237         14.7761 
        2.27035         9.98468         2.32132         14.6894 
        2.28263          9.9019         2.29086         14.5905 
         2.2949         9.79366         2.26095         14.5081 
        2.30718         9.72624         2.23157         14.4305 
        2.31946         9.63086          2.2027         14.3307 
        2.33169         9.55002         2.17447         14.2435 
        2.34393          9.4728         2.14668         14.1513 
        2.35622         9.39919          2.1193         14.0672 
        2.36847         9.32158         2.09246         13.9771 
        2.38076         9.24822         2.06601         13.8912 
        2.39305         9.12714         2.04003         13.7969 
        2.40534         9.08515         2.01449         13.7048 
        2.41762         9.01891         1.98939         13.6438 
        2.42989         8.95692         1.96476         13.5559 
        2.44216         8.87515         1.94055         13.4628 
         2.4544         8.79959          1.9168         13.3863 
        2.46667         8.76484          1.8934         13.3115 
        2.47897         8.69216         1.87032         13.2185 
        2.49124         8.58713          1.8477         13.1436 
        2.50349           8.541         1.82549         13.0698 
        2.51578         8.47284         1.80357          13.001 
        2.52805         8.42093         1.78205         12.9248 
        2.54029         8.34283         1.76094         12.8512 
        2.55257         8.31697          1.7401         12.7706 
        2.56487         8.19842         1.71957         12.6885 
        2.57716         8.16317         1.69939         12.6192 
        2.58942         8.13305         1.67958         12.5552 
        2.60167         8.07758         1.66011         12.4825 
        2.61395         8.00707         1.64092         12.4089 
        2.62624         7.94939           1.622         12.3382 
        2.63849         7.91416         1.60344         12.2745 
        2.65073         7.86055         1.58519         12.1958 
        2.66302         7.79697         1.56716         12.1252 
         2.6753         7.76519         1.54943         12.0555 
        2.68756         7.72532           1.532         12.0004 
        2.69983          7.6595         1.51483         11.9198 
        2.71213          7.6225         1.49789         11.8509 
        2.72441         7.56216         1.48123         11.7892 
        2.73665         7.56453         1.46487         11.7169 
         2.7489         7.51014         1.44877         11.6511 
        2.76118         7.43771         1.43285         11.5975 
        2.77349         7.41361         1.41714          11.531 
        2.78576         7.39274         1.40173         11.4686 
        2.79802         7.34066         1.38655         11.4028 
        2.81031         7.31874         1.37157         11.3442 
        2.82259         7.26432         1.35681         11.2813 
        2.83483         7.22994         1.34232         11.2183 
         2.8471         7.21652         1.32802         11.1631 
         2.8594         7.20502         1.31388         11.1036 
         2.8717         7.15569         1.29996         11.0361 
        2.88396         7.11921         1.28628         10.9795 
        2.89619         7.07053         1.27283         10.9272 
        2.90847         7.06534         1.25952         10.8624 
        2.92072         7.07184         1.24642         10.8015 
        2.93299         7.02732         1.23351          10.752 
        2.94526         7.01274         1.22076         10.6937 
        2.95753         6.98632          1.2082         10.6344 
        2.96982         6.95891         1.19579         10.5791 
        2.98209         6.95061         1.18358         10.5181 
        2.99436         6.95094         1.17154         10.4641 
        3.00666         6.94176         1.15964         10.4138 
        3.01894         6.90511         1.14793         10.3602 
        3.03119         6.90642         1.13639         10.3036 
        3.04345         6.89756         1.12502          10.248 
        3.05573         6.89864         1.11377         10.1958 
          3.068         6.88946          1.1027         10.1455 
        3.08026         6.91238         1.09178         10.0916 
        3.09254         6.90212         1.08099         10.0392 
        3.10483         6.87659         1.07035         9.99214 
         3.1171         6.89261         1.05987         9.94222 
        3.12933         6.91021         1.04955          9.8876 
        3.14159         6.88204         1.03935         9.83954 
