# k  (h/Mpc)    Pcb(k)  (Mpc/h)^3    Pcb_linear(k) (Mpc/h)^3    Pcb_NL(k) (Mpc/h)^3   ShotnoiseSubtracted = false
      0.0156606         21495.1         21612.4         21442.4 
      0.0273761         18425.2         18685.3           18483 
      0.0384619         13933.9         14076.8         13897.6 
      0.0498308         10762.6         11072.1         10891.9 
      0.0625568          9093.8         9409.72         9249.29 
      0.0751274         8099.16         7994.48         7769.07 
      0.0867833         6274.54         6436.39          6366.7 
      0.0984825         5302.82         5093.54         5155.82 
       0.111151         4536.49         4252.99         4330.47 
       0.123864         4064.66         3832.79         3895.48 
       0.135742         3706.11         3446.62         3509.49 
        0.14762         3226.63         2947.03         3113.74 
       0.160083         2741.65         2456.51          2662.1 
       0.172465         2445.47         2144.06         2405.83 
       0.184281         2217.04         1976.57         2239.11 
       0.196406          2091.5         1825.35         2062.49 
       0.209011         1957.19          1624.1          1869.7 
       0.221538         1762.62         1419.31         1746.05 
       0.233611         1689.87         1269.91         1636.58 
       0.245665            1532         1172.08         1511.55 
       0.258103         1516.76          1091.1         1427.37 
       0.270422         1353.44          1002.6         1341.17 
       0.282519         1278.46         909.911         1269.98 
       0.294636          1255.9          829.03         1203.19 
       0.306978         1147.44         766.991         1153.21 
       0.319417         1125.01         717.093         1087.38 
        0.33169         1057.81         669.329         1029.96 
       0.343948         1015.47         620.172         998.391 
       0.356249         962.817         574.071          961.54 
       0.368458         925.326         535.458         919.009 
        0.38068         910.472         503.167         884.175 
       0.392856         864.659          473.69         853.477 
       0.405069         820.724         444.867         826.025 
       0.417459         789.654         416.959         796.946 
       0.429752         785.623         391.907         769.203 
       0.441978         758.203         369.919          749.81 
       0.454294         725.007         349.952         719.391 
        0.46658         704.737         331.217          704.72 
       0.478753         691.423         313.543         683.468 
       0.490964         664.885         296.942         662.691 
       0.503334         636.435         281.618          648.03 
       0.515665         634.361         267.645         633.533 
       0.527909         608.362         254.746         620.206 
       0.540159          593.62         242.542         604.556 
        0.55248         581.977         230.962         588.936 
       0.564743         577.469          220.24         578.987 
        0.57686         558.055         210.386         563.762 
       0.589077         547.592         201.083          551.38 
       0.601441          535.78         192.238          540.67 
        0.61382         521.187         183.897         531.274 
       0.626067         515.751         176.115         521.366 
       0.638306         496.927         168.786         510.867 
       0.650632         492.401         161.843          498.67 
       0.662899         488.438         155.336         492.702 
       0.675076          472.38         149.238         485.897 
       0.687267         459.254          143.46         474.402 
       0.699615         457.379         137.915         466.942 
       0.711937         448.601         132.674          458.22 
       0.724148         433.991         127.749         452.065 
       0.736433         423.914          123.05         444.031 
       0.748747         418.697          118.58           436.2 
       0.761037          411.29         114.344         430.891 
       0.773197         405.533         110.358           423.9 
       0.785376         400.186         106.557         417.779 
       0.797761         388.477         102.877         411.486 
       0.810096         384.856         99.3849         406.317 
       0.822371         374.183         96.0721         399.715 
       0.834626         370.991         92.9164         395.004 
       0.846916         364.859         89.8949         388.837 
       0.859215         361.495         87.0069         383.197 
       0.871383         353.209          84.275         378.139 
        0.88363         349.862         81.6449         374.312 
       0.895928         344.489         79.1175          368.47 
       0.908253          335.96          76.693         362.472 
       0.920535         330.354         74.3787         358.458 
       0.932774         324.964         72.1683          353.09 
        0.94508         320.227         70.0372         349.519 
       0.957324          317.63         68.0029         344.849 
        0.96953          313.51          66.056         340.669 
       0.981769         305.823         64.1808         336.921 
       0.994071         304.787         62.3699         332.804 
         1.0064          298.94          60.626         327.966 
        1.01868         295.698         58.9542         323.783 
        1.03092         286.969         57.3531         320.941 
         1.0432         284.257         55.8061         317.059 
        1.05553         281.143         54.3103         312.719 
        1.06777         277.993         52.8805         309.247 
           1.08         271.677         51.5038         305.811 
        1.09227         270.676         50.1718         302.134 
         1.1046         265.684         48.8822         299.245 
         1.1169         259.825         47.6404         295.255 
        1.12915         256.475         46.4481         292.352 
        1.14142         251.489         45.2942         288.847 
        1.15365         248.775         44.1831         285.809 
        1.16585         244.426         43.1123         282.561 
        1.17807           242.1         42.0759         279.641 
        1.19037         238.428         41.0669         277.249 
        1.20276         235.319         40.0842         273.623 
        1.21504         230.405         39.1416         270.575 
        1.22728         227.082         38.2332         267.478 
        1.23954         225.927         37.3517         264.999 
        1.25184         220.903         36.4963         262.172 
        1.26414          216.55         35.6675         259.669 
        1.27632         215.186         34.8719         257.352 
         1.2886         213.543          34.095         254.375 
        1.30093         208.347         33.3392         251.213 
        1.31316          204.09         32.6118         248.694 
        1.32541         203.051          31.906         246.194 
        1.33772         199.839         31.2173         243.889 
        1.35005         197.425         30.5485         241.141 
        1.36225         193.726         29.9061         238.888 
        1.37447         190.862         29.2811         235.966 
        1.38676         189.018         28.6711         234.279 
        1.39907         186.283         28.0775         231.468 
        1.41133         182.869         27.5033         229.096 
        1.42358         180.748         26.9458         226.938 
        1.43591         178.567         26.3999         224.844 
        1.44818         175.201         25.8722         222.535 
        1.46037         173.725          25.362         220.152 
        1.47263         170.437         24.8629         218.165 
        1.48494         168.836         24.3752         215.511 
        1.49724         166.182         23.9011         214.106 
        1.50952         163.134         23.4406         211.727 
        1.52178         161.827         22.9929         209.509 
        1.53409         158.724         22.5551         207.671 
        1.54637         156.521         22.1296         205.957 
        1.55858         154.709         21.7176         203.734 
        1.57081         152.128         21.3155         201.838 
        1.58313         150.154          20.921         199.781 
        1.59544         147.433         20.5368         197.995 
        1.60767         146.199         20.1648          196.23 
        1.61994         143.718         19.8006         194.335 
        1.63225         141.603         19.4447         192.331 
        1.64452         139.324         19.0986          190.62 
        1.65676         137.504         18.7619         188.976 
          1.669         136.082         18.4332         187.171 
        1.68133         133.454         18.1103         185.464 
        1.69363         131.191          17.796         183.876 
        1.70585         129.165         17.4912         182.207 
        1.71809         127.584          17.193         180.239 
        1.73038         126.245         16.9007         178.768 
        1.74268         125.072         16.6151         177.022 
        1.75493         121.914         16.3374         175.572 
        1.76714          121.49         16.0668         174.065 
        1.77942          119.05          15.801         172.388 
        1.79173         117.193         15.5404         170.836 
        1.80402         115.915         15.2863         169.315 
         1.8163         113.668         15.0381         167.934 
         1.8286         112.288         14.7949         166.308 
         1.8409         111.215         14.5573         164.763 
        1.85315         108.878         14.3257         163.417 
        1.86537         108.015         14.0996         162.054 
        1.87765         106.669         13.8776          160.67 
        1.88995         104.709         13.6598         159.147 
        1.90221           103.5         13.4475         157.895 
        1.91445          102.05           13.24          156.37 
        1.92674         100.495         13.0362         155.014 
        1.93902         99.2119         12.8367         153.618 
        1.95124         97.9365         12.6424         152.323 
         1.9635         96.3348         12.4516         150.992 
        1.97583         94.8928         12.2636         149.692 
        1.98812         93.6116         12.0802         148.592 
        2.00039         92.5671         11.9009         147.178 
        2.01264         91.4216         11.7254          145.97 
        2.02492          90.356         11.5532         144.639 
        2.03717         88.8761         11.3847         143.497 
        2.04942         87.9271         11.2198         142.295 
        2.06171          86.235         11.0577         141.046 
        2.07397         85.3356          10.899         139.954 
        2.08629         84.1433         10.7429         138.734 
        2.09857         83.0713         10.5902         137.617 
        2.11081         81.7041          10.441         136.348 
        2.12309         80.6603         10.2944         135.332 
        2.13538         79.4792         10.1504          134.14 
        2.14763         78.4502         10.0096         133.062 
        2.15986         77.4749         9.87187         131.878 
        2.17214         76.4911         9.73613         130.844 
        2.18443         75.4987         9.60282         129.934 
        2.19671         74.5079         9.47217         128.808 
        2.20898         73.6592          9.3441         127.655 
        2.22126         72.5529         9.21827         126.706 
        2.23354         71.7371         9.09479          125.69 
         2.2458         70.3522          8.9738         124.655 
        2.25807         69.6505         8.85489         123.645 
        2.27035         68.6456         8.73804         122.637 
        2.28263         67.8027         8.62336         121.699 
         2.2949         66.5981         8.51079         120.739 
        2.30718         65.7195         8.40021         119.766 
        2.31946         65.1972         8.29152         118.739 
        2.33169           64.11         8.18524         117.845 
        2.34393          63.656         8.08065         117.009 
        2.35622         62.4462         7.97756         116.026 
        2.36847          61.952         7.87655         115.233 
        2.38076         60.8602           7.777         114.197 
        2.39305         60.2653         7.67919         113.422 
        2.40534         59.4117         7.58305         112.479 
        2.41762         58.7155         7.48858         111.572 
        2.42989         57.8359         7.39586         110.773 
        2.44216         57.2827         7.30472         109.844 
         2.4544         56.3837         7.21532         109.045 
        2.46667         55.6965         7.12722         108.211 
        2.47897         55.1113         7.04037         107.326 
        2.49124         54.5623         6.95522         106.539 
        2.50349         53.7988         6.87159         105.738 
        2.51578         53.2174         6.78909          105.03 
        2.52805         52.5245          6.7081         104.145 
        2.54029         52.0039         6.62862         103.341 
        2.55257         51.2998         6.55019         102.633 
        2.56487         51.0368         6.47289         101.878 
        2.57716         50.3421         6.39693         101.111 
        2.58942         49.5899         6.32237         100.364 
        2.60167         49.0096         6.24907         99.6326 
        2.61395         48.6504         6.17682          98.886 
        2.62624         47.8345         6.10561         98.1008 
        2.63849         47.3491         6.03576         97.4076 
        2.65073         46.7987         5.96707         96.7017 
        2.66302         46.3454          5.8992         95.9723 
         2.6753         45.8478         5.83243         95.3071 
        2.68756         45.4391         5.76683         94.5809 
        2.69983         44.8547          5.7022         93.9191 
        2.71213         44.3996         5.63842         93.2473 
        2.72441         43.9646         5.57573         92.5623 
        2.73665         43.4722         5.51414         91.9275 
         2.7489         42.9942         5.45352         91.2803 
        2.76118         42.5999         5.39362         90.6047 
        2.77349         42.1248         5.33449         89.9717 
        2.78576         41.7403         5.27647         89.3051 
        2.79802         41.3885         5.21934         88.7448 
        2.81031         40.7982         5.16293         88.0939 
        2.82259         40.5152         5.10737         87.4405 
        2.83483         40.0189         5.05284         86.8765 
         2.8471         39.7228         4.99901         86.2441 
         2.8594         39.3032         4.94579         85.6271 
         2.8717         39.0594         4.89336         85.0754 
        2.88396         38.7089         4.84189         84.4778 
        2.89619         38.4129         4.79126         83.8442 
        2.90847         38.0434         4.74115         83.2371 
        2.92072          37.795         4.69185         82.7215 
        2.93299         37.6563         4.64323         82.1755 
        2.94526         37.2348         4.59525         81.5972 
        2.95753         37.0005         4.54796         81.0223 
        2.96982          36.637         4.50126         80.4835 
        2.98209         36.4901         4.45531           79.95 
        2.99436         36.1701         4.40996         79.3735 
        3.00666         36.0914         4.36516         78.8419 
        3.01894         35.7747         4.32108         78.3173 
        3.03119         35.6399         4.27767         77.8127 
        3.04345         35.4583         4.23485         77.3024 
        3.05573         35.2216         4.19252         76.7762 
          3.068         35.0796         4.15083         76.2678 
        3.08026         34.8838         4.10974         75.7559 
        3.09254         34.7951         4.06914          75.262 
        3.10483         34.8101         4.02907         74.7693 
         3.1171         34.6144          3.9896         74.2696 
        3.12933         34.4393         3.95077         73.7765 
        3.14159         34.3815         3.91237         73.2791 
