# k  (h/Mpc)    Pcb(k)  (Mpc/h)^3    Pcb_linear(k) (Mpc/h)^3    Pcb_NL(k) (Mpc/h)^3   ShotnoiseSubtracted = false
      0.0156606         7712.56         7728.11          7684.3 
      0.0273761         6668.89         6684.54         6652.21 
      0.0384619         5064.76            5037         5015.61 
      0.0498308         3948.38         3962.35         3943.34 
      0.0625568         3332.01         3367.73         3348.73 
      0.0751274          2920.3         2861.37         2832.48 
      0.0867833         2292.68         2303.77         2297.27 
      0.0984825         1887.13         1823.17         1836.43 
       0.111151         1590.95         1522.34         1536.05 
       0.123864         1429.09         1371.94         1383.48 
       0.135742         1289.46         1233.73         1245.59 
        0.14762         1103.16          1054.9         1083.84 
       0.160083         917.372         879.327         912.556 
       0.172465         815.109         767.487         808.516 
       0.184281         753.259         707.534         750.675 
       0.196406         689.258         653.406         688.283 
       0.209011         629.656         581.366          619.42 
       0.221538         565.599          508.06         561.221 
       0.233611         519.474         454.582         514.136 
       0.245665         484.983         419.563         472.945 
       0.258103         447.873         390.577         443.697 
       0.270422         414.101         358.895         411.528 
       0.282519         378.319         325.718         381.013 
       0.294636         371.784         296.765         355.021 
       0.306978         329.011         274.558         335.117 
       0.319417         315.538         256.696         314.849 
        0.33169         295.407         239.598         295.731 
       0.343948         281.909         222.002         280.895 
       0.356249         262.356         205.499         267.214 
       0.368458         253.273         191.677         250.892 
        0.38068         240.616         180.118         238.617 
       0.392856         224.652         169.566          228.12 
       0.405069         214.915         159.249         218.342 
       0.417459         204.703         149.258         206.602 
       0.429752         197.025         140.291         198.129 
       0.441978         189.731          132.42         191.313 
       0.454294         176.763         125.272         181.779 
        0.46658         176.958         118.566         175.618 
       0.478753         166.608         112.239         169.058 
       0.490964         161.478         106.296         162.609 
       0.503334         153.418         100.811         157.111 
       0.515665         149.571         95.8088          152.99 
       0.527909         144.901         91.1914         146.316 
       0.540159          140.05         86.8228          141.99 
        0.55248         135.537         82.6776         137.088 
       0.564743         131.657         78.8393         133.446 
        0.57686         127.482         75.3117         129.035 
       0.589077         121.794         71.9817         125.868 
       0.601441         119.133         68.8153         122.445 
        0.61382         117.107         65.8298         118.662 
       0.626067         112.553         63.0439         115.607 
       0.638306         108.613         60.4204         112.711 
       0.650632         104.767         57.9348         108.746 
       0.662899         104.458         55.6056         106.252 
       0.675076         100.694         53.4227         103.651 
       0.687267         98.4556         51.3543         101.136 
       0.699615         95.4499         49.3695         99.0652 
       0.711937         92.5677         47.4932         96.2327 
       0.724148         91.7184         45.7303         94.8752 
       0.736433         88.0199         44.0482         92.2978 
       0.748747         86.3846         42.4483         90.2484 
       0.761037         84.4663         40.9316         88.1042 
       0.773197         82.6244         39.5047          87.006 
       0.785376         80.6576         38.1443         84.7729 
       0.797761         79.8592         36.8269         83.4347 
       0.810096          77.078         35.5769         81.5292 
       0.822371         75.6183          34.391         79.9248 
       0.834626         73.8804         33.2613         78.5811 
       0.846916         72.7819         32.1797         77.1486 
       0.859215         71.1808         31.1459         75.5626 
       0.871383         70.2264          30.168         74.2897 
        0.88363         68.2919         29.2265         73.2363 
       0.895928         66.8885         28.3218          71.922 
       0.908253         65.2654         27.4538          70.693 
       0.920535         64.9154         26.6254         69.5513 
       0.932774         63.5843         25.8342         68.3535 
        0.94508         62.7004         25.0713         67.1147 
       0.957324         61.1172         24.3431         66.2306 
        0.96953         61.0712         23.6461         65.0297 
       0.981769         59.0403         22.9749         64.2542 
       0.994071           58.36         22.3266         63.2945 
         1.0064         57.0865         21.7023         62.3111 
        1.01868         56.2338         21.1039         61.4651 
        1.03092         55.3441         20.5308         60.5449 
         1.0432            54.4          19.977         59.5629 
        1.05553           53.05         19.4415           59.09 
        1.06777         52.5851         18.9297         58.1593 
           1.08         51.3581         18.4369         57.3173 
        1.09227         50.7388         17.9601         56.5216 
         1.1046         49.9834         17.4984         55.7535 
         1.1169         49.4062         17.0539         54.9546 
        1.12915         48.5703         16.6271         54.3577 
        1.14142         47.6416          16.214         53.6711 
        1.15365         46.9297         15.8163         53.0495 
        1.16585         46.2207          15.433         52.2893 
        1.17807         45.4783         15.0619         51.6137 
        1.19037         45.3474         14.7007         51.1521 
        1.20276         44.5385          14.349         50.5149 
        1.21504         43.9567         14.0115         49.9514 
        1.22728         43.1019         13.6864         49.3572 
        1.23954         42.6201         13.3708         48.6704 
        1.25184         41.9018         13.0646         48.2276 
        1.26414         41.3026         12.7679         47.6031 
        1.27632         40.9692         12.4831         47.1162 
         1.2886         40.5372          12.205         46.6063 
        1.30093         39.8473         11.9344          46.006 
        1.31316         39.2365         11.6741         45.6289 
        1.32541         38.9756         11.4214         45.1109 
        1.33772         38.2247         11.1749         44.6371 
        1.35005         37.7958         10.9355         44.1988 
        1.36225         37.1798         10.7055         43.7701 
        1.37447         36.3068         10.4818         43.2769 
        1.38676          36.438         10.2634         42.8967 
        1.39907         35.8518         10.0509         42.5026 
        1.41133         35.1116         9.84539         42.0548 
        1.42358         34.7537          9.6458         41.6158 
        1.43591         34.3529         9.45039         41.2593 
        1.44818          33.999         9.26148         40.7835 
        1.46037         33.5544         9.07887          40.413 
        1.47263          33.316         8.90018         40.0915 
        1.48494         32.6607         8.72562         39.6676 
        1.49724         32.5643          8.5559         39.2997 
        1.50952         32.0756         8.39104         38.9832 
        1.52178         31.5942         8.23078         38.6069 
        1.53409         31.3421         8.07407         38.2673 
        1.54637         30.9191         7.92177         37.8804 
        1.55858         30.2141         7.77427          37.557 
        1.57081         30.3039         7.63032         37.2657 
        1.58313         29.9278         7.48913         36.9103 
        1.59544         29.3696         7.35159         36.6038 
        1.60767         29.0343          7.2184         36.2412 
        1.61994         28.6869         7.08804         35.9598 
        1.63225         28.5406         6.96064         35.6917 
        1.64452         28.1176         6.83674         35.3916 
        1.65676         27.8175         6.71623         35.0705 
          1.669         27.5454         6.59855         34.8185 
        1.68133         27.2044         6.48295          34.501 
        1.69363         26.8111         6.37045         34.1648 
        1.70585         26.6033         6.26135         33.9852 
        1.71809         26.1671         6.15459         33.6304 
        1.73038         26.0339         6.04998         33.4201 
        1.74268         25.6985         5.94774         33.0841 
        1.75493         25.3809         5.84833         32.8539 
        1.76714         25.2348         5.75146         32.6138 
        1.77942         24.9504         5.65628         32.3399 
        1.79173         24.5112         5.56302         32.0863 
        1.80402         24.2646         5.47206         31.9178 
         1.8163         24.1576         5.38319         31.5401 
         1.8286          23.727         5.29614         31.3587 
         1.8409         23.5258         5.21108         31.1236 
        1.85315         23.2879         5.12819         30.9048 
        1.86537         22.9754         5.04726         30.6702 
        1.87765         22.8472         4.96778         30.4311 
        1.88995         22.5299         4.88982         30.1633 
        1.90221         22.3043         4.81381         29.9486 
        1.91445         22.0224         4.73954          29.731 
        1.92674         21.8287         4.66658           29.51 
        1.93902         21.5719         4.59516         29.3222 
        1.95124         21.2456         4.52561         29.1572 
         1.9635         21.1267         4.45732         28.8946 
        1.97583         20.9049         4.39002         28.6912 
        1.98812         20.7319         4.32436         28.5043 
        2.00039         20.5032         4.26017         28.2913 
        2.01264         20.2628         4.19735         28.1081 
        2.02492         20.1058          4.1357         27.8721 
        2.03717         19.7942          4.0754         27.6919 
        2.04942          19.639         4.01637          27.483 
        2.06171         19.4991         3.95832         27.3032 
        2.07397         19.2987         3.90154           27.09 
        2.08629         19.1112         3.84564         26.8973 
        2.09857         18.9205         3.79097         26.7301 
        2.11081         18.6816         3.73759         26.5436 
        2.12309         18.5547          3.6851         26.3582 
        2.13538          18.316         3.63355         26.1826 
        2.14763         18.1451         3.58316         26.0079 
        2.15986         18.0118         3.53384           25.84 
        2.17214         17.8071         3.48525         25.6699 
        2.18443         17.6372         3.43753         25.4786 
        2.19671         17.4477         3.39076         25.2985 
        2.20898         17.2827         3.34492         25.1322 
        2.22126         17.1552         3.29987         24.9783 
        2.23354         17.0584         3.25567         24.8097 
         2.2458         16.8469         3.21236          24.672 
        2.25807         16.6298          3.1698         24.4627 
        2.27035         16.4963         3.12797         24.3206 
        2.28263         16.3329         3.08691         24.1625 
         2.2949         16.2392         3.04662         24.0175 
        2.30718         16.0873         3.00703          23.866 
        2.31946         15.9649         2.96813         23.6976 
        2.33169         15.7903         2.93008         23.5449 
        2.34393         15.6445         2.89264         23.4138 
        2.35622          15.444         2.85574         23.2566 
        2.36847         15.3283         2.81958          23.097 
        2.38076         15.1666         2.78394         22.9671 
        2.39305         15.0689         2.74893         22.8173 
        2.40534         14.9067         2.71451         22.6453 
        2.41762         14.7625          2.6807           22.54 
        2.42989         14.6453          2.6475         22.3746 
        2.44216         14.5042         2.61488          22.239 
         2.4544         14.4882         2.58288         22.0867 
        2.46667         14.2923         2.55134         21.9633 
        2.47897         14.1156         2.52025         21.8158 
        2.49124         14.0616         2.48977         21.6823 
        2.50349          13.892         2.45983         21.5373 
        2.51578         13.7956          2.4303         21.4337 
        2.52805         13.6867          2.4013         21.2926 
        2.54029         13.5945         2.37285         21.1613 
        2.55257         13.4958         2.34478         21.0284 
        2.56487         13.3158         2.31711         20.9034 
        2.57716         13.2364         2.28992         20.7579 
        2.58942         13.1632         2.26323         20.6562 
        2.60167          12.992         2.23699         20.5297 
        2.61395         12.9831         2.21112         20.4029 
        2.62624          12.877         2.18563         20.2773 
        2.63849         12.7388         2.16063         20.1739 
        2.65073         12.6405         2.13604         20.0392 
        2.66302         12.5676         2.11174         19.9302 
         2.6753         12.5093         2.08784         19.8021 
        2.68756         12.3999         2.06436          19.694 
        2.69983         12.2994         2.04122         19.5704 
        2.71213         12.1952         2.01839         19.4413 
        2.72441         12.1557         1.99595         19.3383 
        2.73665         12.0695          1.9739         19.2246 
         2.7489         12.0171          1.9522         19.1048 
        2.76118         11.8852         1.93076         18.9999 
        2.77349         11.8226         1.90959         18.8883 
        2.78576         11.7234         1.88882         18.7861 
        2.79802         11.6908         1.86837         18.6691 
        2.81031         11.6126         1.84818         18.5573 
        2.82259         11.5526         1.82829         18.4574 
        2.83483         11.4974         1.80877         18.3538 
         2.8471         11.4335          1.7895         18.2416 
         2.8594         11.3877         1.77045         18.1308 
         2.8717         11.3254         1.75168         18.0332 
        2.88396         11.2499         1.73326         17.9296 
        2.89619         11.2182         1.71513         17.8248 
        2.90847         11.1708          1.6972         17.7321 
        2.92072         11.1284         1.67955          17.615 
        2.93299         11.0383         1.66214         17.5251 
        2.94526         11.0233         1.64497         17.4328 
        2.95753         10.9745         1.62804         17.3277 
        2.96982         10.9288         1.61132         17.2289 
        2.98209         10.9236         1.59487         17.1327 
        2.99436         10.8935         1.57864         17.0308 
        3.00666         10.8654          1.5626         16.9368 
        3.01894         10.8377         1.54682         16.8562 
        3.03119         10.7999         1.53128         16.7565 
        3.04345         10.7354         1.51595         16.6503 
        3.05573          10.755          1.5008         16.5621 
          3.068         10.7323         1.48588         16.4789 
        3.08026         10.7098         1.47117         16.3739 
        3.09254          10.712         1.45663         16.2914 
        3.10483         10.7025         1.44229         16.2117 
         3.1171         10.7262         1.42816         16.1168 
        3.12933         10.6938         1.41426         16.0263 
        3.14159         10.6595         1.40051         15.9349 
