# k  (h/Mpc)    Pcb(k)  (Mpc/h)^3    Pcb_linear(k) (Mpc/h)^3    Pcb_NL(k) (Mpc/h)^3   ShotnoiseSubtracted = false
      0.0156606         3502.63         3505.79         3488.12 
      0.0273761         3040.42         3033.34            3024 
      0.0384619         2310.42         2286.03         2282.17 
      0.0498308         1809.12         1798.44         1795.96 
      0.0625568         1526.39         1528.62         1525.12 
      0.0751274          1324.4         1298.82         1292.69 
      0.0867833         1048.36         1045.74         1044.83 
      0.0984825         852.195          827.59         831.349 
       0.111151          714.59         691.038         694.731 
       0.123864         641.961         622.775         625.681 
       0.135742         577.218         560.036          562.96 
        0.14762         490.832         478.863         485.741 
       0.160083         407.485         399.163         406.975 
       0.172465          359.75         348.395         357.822 
       0.184281         333.498          321.18           331.2 
       0.196406         304.125          296.61         304.382 
       0.209011         274.759         263.908         272.672 
       0.221538         244.629         230.631         242.885 
       0.233611           221.1         206.356         219.989 
       0.245665          207.74         190.459         202.598 
       0.258103         187.578         177.301         189.393 
       0.270422          175.95         162.919         174.704 
       0.282519         159.733         147.859         160.391 
       0.294636          153.28         134.716         147.937 
       0.306978         135.386         124.635         138.317 
       0.319417         129.332         116.526         129.741 
        0.33169         120.307         108.765         121.536 
       0.343948         114.453         100.777         113.844 
       0.356249         105.276         93.2859         107.454 
       0.368458         100.696         87.0114         100.195 
        0.38068          94.639         81.7642         94.8238 
       0.392856          88.346         76.9742         90.1353 
       0.405069         83.7023         72.2906         85.1654 
       0.417459         78.7315         67.7556         80.6054 
       0.429752          75.488         63.6846         76.5799 
       0.441978          71.982         60.1116         73.4373 
       0.454294         66.9562          56.867         69.5214 
        0.46658         66.6319         53.8227         66.4645 
       0.478753           61.97         50.9507         63.6286 
       0.490964         59.9513          48.253         61.0427 
       0.503334         57.4645         45.7629          58.288 
       0.515665         54.8105         43.4923         56.4203 
       0.527909         52.5067         41.3962         53.4708 
       0.540159         50.4662         39.4131         51.5322 
        0.55248         47.3252         37.5314         49.4301 
       0.564743         46.6156          35.789         47.8268 
        0.57686         45.1198         34.1877          46.069 
       0.589077         42.5937          32.676         44.6255 
       0.601441         41.2233         31.2386         43.0665 
        0.61382         39.8626         29.8834          41.415 
       0.626067         38.2436         28.6187         40.2017 
       0.638306         37.0439         27.4278         38.7776 
       0.650632         35.9572         26.2995          37.521 
       0.662899         34.6613         25.2421         36.2824 
       0.675076         33.1241         24.2512         35.1746 
       0.687267          32.708         23.3122         34.0844 
       0.699615         31.5474         22.4112         33.2033 
       0.711937         30.0533         21.5595         32.0898 
       0.724148         29.9153         20.7592         31.3581 
       0.736433         28.1899         19.9956         30.3881 
       0.748747         27.7713         19.2693         29.5624 
       0.761037         27.0344         18.5809         28.8313 
       0.773197         26.2308         17.9331         28.1241 
       0.785376         25.2209         17.3156         27.3872 
       0.797761         24.7674         16.7175         26.7144 
       0.810096         24.2086         16.1501         26.0573 
       0.822371         23.5575         15.6118         25.3351 
       0.834626         22.8386          15.099         24.8374 
       0.846916         22.1927          14.608         24.2058 
       0.859215         21.4221         14.1387         23.6536 
       0.871383         21.0788         13.6947         23.1777 
        0.88363         20.5342         13.2673         22.6647 
       0.895928         20.1138         12.8566         22.0944 
       0.908253          19.652         12.4626         21.6882 
       0.920535         19.1278         12.0866         21.1942 
       0.932774         18.8265         11.7274         20.7026 
        0.94508         18.2762         11.3811         20.3023 
       0.957324         17.9393         11.0505         19.9186 
        0.96953         17.3698         10.7341         19.4899 
       0.981769         17.2142         10.4294         19.1383 
       0.994071         16.7291         10.1351         18.7384 
         1.0064         16.2783         9.85175         18.4016 
        1.01868         15.9627         9.58008         18.0711 
        1.03092         15.7782         9.31992         17.7102 
         1.0432         15.2326         9.06852         17.3619 
        1.05553         14.9926         8.82546         17.1309 
        1.06777         14.5592         8.59311          16.752 
           1.08         14.2979         8.36939         16.4813 
        1.09227         14.0338         8.15295         16.2179 
         1.1046         13.8134         7.94339         15.9001 
         1.1169          13.452          7.7416         15.6286 
        1.12915         13.3892         7.54784         15.4187 
        1.14142          12.886         7.36033         15.1338 
        1.15365         12.7902         7.17978         14.8864 
        1.16585         12.6325         7.00578         14.6835 
        1.17807          12.256         6.83736         14.3988 
        1.19037         12.0965         6.67339         14.2143 
        1.20276          11.842          6.5137         13.9751 
        1.21504         11.6757         6.36053         13.7858 
        1.22728         11.3823         6.21292         13.5571 
        1.23954         11.2252         6.06967         13.3718 
        1.25184         11.0108         5.93067         13.1768 
        1.26414         10.8622         5.79599         12.9608 
        1.27632         10.6076          5.6667         12.7799 
         1.2886         10.4972         5.54046         12.6104 
        1.30093         10.2756         5.41763         12.4764 
        1.31316         10.1068         5.29943         12.2652 
        1.32541          9.9548         5.18475         12.1362 
        1.33772         9.76429         5.07283         11.9431 
        1.35005         9.65311         4.96415         11.8003 
        1.36225         9.47146         4.85977         11.6235 
        1.37447         9.31401          4.7582         11.4863 
        1.38676         9.16631         4.65907         11.3489 
        1.39907         9.00558         4.56261         11.1963 
        1.41133         8.88105         4.46931          11.059 
        1.42358           8.712          4.3787         10.9087 
        1.43591         8.61959            4.29         10.8007 
        1.44818         8.43956         4.20424         10.6646 
        1.46037         8.34318         4.12135          10.522 
        1.47263         8.20527         4.04023         10.4177 
        1.48494         8.13107         3.96099         10.2683 
        1.49724         7.97149         3.88394         10.1684 
        1.50952         7.93241         3.80911         10.0545 
        1.52178         7.76532         3.73636         9.93006 
        1.53409         7.62549         3.66522         9.81286 
        1.54637         7.56258         3.59608         9.69091 
        1.55858         7.47781         3.52912         9.59229 
        1.57081          7.3017         3.46378         9.50315 
        1.58313         7.25396         3.39968         9.39413 
        1.59544         7.10448         3.33725         9.30158 
        1.60767         7.03306         3.27679         9.19014 
        1.61994         6.93183         3.21761         9.10727 
        1.63225         6.83944         3.15978         9.00993 
        1.64452         6.73154         3.10353         8.91631 
        1.65676          6.6427         3.04883          8.8243 
          1.669         6.59438         2.99541         8.73099 
        1.68133         6.44755         2.94293         8.64024 
        1.69363          6.3882         2.89186         8.56522 
        1.70585         6.30237         2.84233         8.47492 
        1.71809         6.23071         2.79387          8.3968 
        1.73038         6.17037         2.74638         8.31768 
        1.74268         6.08161         2.69997         8.23838 
        1.75493         5.98964         2.65485         8.14505 
        1.76714         5.96651         2.61087         8.08093 
        1.77942         5.87012         2.56767         7.99518 
        1.79173         5.78631         2.52533         7.92069 
        1.80402         5.73897         2.48404          7.8504 
         1.8163         5.67481         2.44369         7.78778 
         1.8286          5.5828         2.40418         7.71691 
         1.8409         5.51372         2.36557         7.65323 
        1.85315         5.45129         2.32794         7.57183 
        1.86537         5.41285          2.2912         7.51088 
        1.87765         5.33546         2.25512         7.44074 
        1.88995         5.24831         2.21973         7.38283 
        1.90221         5.21187         2.18523         7.31072 
        1.91445         5.14378         2.15151         7.26507 
        1.92674         5.10435         2.11839         7.18786 
        1.93902         5.04387         2.08597         7.13163 
        1.95124         4.98092          2.0544         7.06335 
         1.9635         4.93906          2.0234         7.01715 
        1.97583         4.88533         1.99285         6.95591 
        1.98812         4.82189         1.96304          6.8888 
        2.00039         4.76916          1.9339         6.84578 
        2.01264         4.72623         1.90538         6.79215 
        2.02492         4.68035          1.8774         6.73366 
        2.03717         4.62392         1.85002         6.67953 
        2.04942         4.55704         1.82323         6.63327 
        2.06171         4.52497         1.79688         6.57845 
        2.07397         4.48397          1.7711         6.52613 
        2.08629         4.43654         1.74573         6.47958 
        2.09857         4.38446         1.72091         6.42781 
        2.11081          4.3442         1.69667         6.38462 
        2.12309         4.29704         1.67285         6.32683 
        2.13538         4.25556         1.64945         6.28905 
        2.14763         4.21645         1.62657         6.23946 
        2.15986         4.18422         1.60419         6.19447 
        2.17214         4.13542         1.58213         6.14149 
        2.18443         4.10265         1.56047         6.10006 
        2.19671         4.05087         1.53923         6.05679 
        2.20898         4.01553         1.51842         6.01621 
        2.22126         3.98446         1.49797         5.97008 
        2.23354         3.94131         1.47791         5.92422 
         2.2458         3.91256         1.45825         5.88005 
        2.25807         3.87515         1.43893         5.84464 
        2.27035         3.83758         1.41994         5.80686 
        2.28263          3.8052          1.4013         5.76411 
         2.2949         3.77235         1.38301         5.72895 
        2.30718         3.73865         1.36504         5.69666 
        2.31946         3.71319         1.34738         5.65635 
        2.33169         3.67283         1.33011         5.61284 
        2.34393         3.65639         1.31311         5.57595 
        2.35622         3.62702         1.29636          5.5366 
        2.36847         3.58753         1.27995         5.50072 
        2.38076         3.56758         1.26377         5.46305 
        2.39305         3.52423         1.24787         5.42442 
        2.40534         3.50121         1.23225         5.39097 
        2.41762         3.45884          1.2169         5.36243 
        2.42989         3.44798         1.20183         5.32516 
        2.44216         3.42843         1.18702         5.29349 
         2.4544         3.38801          1.1725         5.25767 
        2.46667         3.37125         1.15818         5.22546 
        2.47897         3.33734         1.14407         5.19174 
        2.49124          3.3083         1.13023         5.15894 
        2.50349         3.29546         1.11664         5.13088 
        2.51578         3.25637         1.10323         5.09611 
        2.52805         3.24166         1.09007         5.06486 
        2.54029         3.22013         1.07716         5.03474 
        2.55257         3.20335         1.06441         5.00634 
        2.56487         3.17444         1.05185         4.97115 
        2.57716           3.166         1.03951         4.94214 
        2.58942         3.12885         1.02739         4.91406 
        2.60167         3.11289         1.01548         4.88277 
        2.61395         3.08227         1.00374         4.85628 
        2.62624         3.08302        0.992167         4.82973 
        2.63849         3.05142        0.980815         4.79738 
        2.65073         3.03143        0.969653         4.76882 
        2.66302         3.01712        0.958624         4.74238 
         2.6753         3.00336        0.947775         4.71513 
        2.68756          2.9742        0.937115         4.68988 
        2.69983         2.96186        0.926611         4.65977 
        2.71213          2.9535        0.916247         4.63321 
        2.72441         2.93531         0.90606         4.60796 
        2.73665         2.91802        0.896052         4.58139 
         2.7489         2.89556        0.886201         4.55893 
        2.76118         2.88103        0.876468         4.53792 
        2.77349         2.87863        0.866858         4.50806 
        2.78576         2.86176         0.85743         4.48257 
        2.79802         2.85417        0.848147         4.46002 
        2.81031         2.83367         0.83898          4.4344 
        2.82259         2.82046        0.829952         4.40982 
        2.83483         2.81827        0.821091         4.38696 
         2.8471         2.80144        0.812342         4.36326 
         2.8594         2.79442        0.803694         4.34177 
         2.8717         2.78072        0.795175         4.31625 
        2.88396         2.77446        0.786811         4.29185 
        2.89619         2.75042        0.778583          4.2711 
        2.90847         2.74975        0.770441         4.24514 
        2.92072         2.74892        0.762429         4.22482 
        2.93299         2.74039        0.754528         4.20294 
        2.94526         2.74063        0.746731         4.18154 
        2.95753         2.72113        0.739047         4.15997 
        2.96982         2.71113        0.731458         4.13815 
        2.98209         2.71549        0.723991         4.11783 
        2.99436         2.70528        0.716621         4.09628 
        3.00666         2.71214        0.709342         4.07616 
        3.01894         2.70277        0.702178         4.05192 
        3.03119         2.70536        0.695124          4.0323 
        3.04345         2.69766        0.688166         4.01448 
        3.05573         2.69925        0.681288         3.99408 
          3.068          2.6976        0.674513         3.97468 
        3.08026         2.70476        0.667836         3.95416 
        3.09254         2.70113        0.661238         3.93334 
        3.10483         2.70493        0.654727         3.91493 
         3.1171         2.70593        0.648313         3.89702 
        3.12933         2.71351        0.642002         3.87647 
        3.14159         2.70858        0.635762         3.85525 
