# k  (h/Mpc)    P(k)  (Mpc/h)^3    P_linear(k)  (Mpc/h)^3     P_NL(k)  ShotnoiseSubtracted = false
      0.0156606         1651.21         1637.86         1630.07 
      0.0273761         1434.99         1415.78         1412.45 
      0.0384619         1089.69         1066.54          1065.9 
      0.0498308         855.375         838.869         838.889 
      0.0625568         721.647          712.92          712.21 
      0.0751274          621.67         605.697         604.132 
      0.0867833          494.93          487.65         487.495 
      0.0984825         399.174         385.911         387.007 
       0.111151         333.884         322.228         323.262 
       0.123864         299.842         290.392         291.063 
       0.135742         269.159         261.134         261.752 
        0.14762         228.646         223.283         224.883 
       0.160083         190.023         186.119         187.996 
       0.172465          166.93         162.446         164.672 
       0.184281         154.666         149.756         152.095 
       0.196406          141.22         138.299         140.056 
       0.209011         126.806         123.051          125.08 
       0.221538         112.159         107.535         110.401 
       0.233611         100.726         96.2157         99.3931 
       0.245665         94.3553         88.8033         91.6163 
       0.258103         85.1404         82.6684          85.462 
       0.270422         79.8123         75.9626         78.6546 
       0.282519         72.3867         68.9402         71.8465 
       0.294636         68.1788         62.8122         65.8762 
       0.306978         60.6709         58.1119         61.2687 
       0.319417         57.7104         54.3312         57.3905 
        0.33169          53.632         50.7124         53.6649 
       0.343948         50.6335          46.988         49.9549 
       0.356249         46.3478         43.4951         46.8154 
       0.368458          43.992         40.5695         43.5713 
        0.38068         41.0927         38.1232         41.1062 
       0.392856         38.5313         35.8898         38.9012 
       0.405069         36.4011         33.7059         36.5885 
       0.417459          33.795         31.5915         34.5551 
       0.429752         32.2636         29.6934         32.6369 
       0.441978         30.6643         28.0274         31.1081 
       0.454294         28.5849         26.5146         29.4306 
        0.46658         28.0408         25.0951         27.9726 
       0.478753         26.1371          23.756         26.6328 
       0.490964          25.158         22.4981         25.4744 
       0.503334         24.0359         21.3372         24.1811 
       0.515665         22.6916         20.2785         23.2498 
       0.527909         21.7216         19.3012         22.0471 
       0.540159         20.6894         18.3764         21.1036 
        0.55248         19.3595         17.4991         20.1501 
       0.564743         19.0497         16.6868         19.4391 
        0.57686         18.3147         15.9401         18.6273 
       0.589077         17.2086         15.2353         17.9697 
       0.601441         16.5322         14.5651         17.2566 
        0.61382         15.9028         13.9332         16.5357 
       0.626067         15.2449         13.3436         15.9454 
       0.638306         14.6959         12.7883           15.33 
       0.650632         14.2979         12.2622         14.8193 
       0.662899          13.606         11.7692         14.2595 
       0.675076         12.9535         11.3072         13.7666 
       0.687267         12.6479         10.8694         13.2614 
       0.699615         12.2504         10.4493         12.8292 
       0.711937         11.6103         10.0522          12.424 
       0.724148         11.4873         9.67905         12.0342 
       0.736433         10.8417         9.32302         11.6145 
       0.748747         10.5621         8.98438          11.288 
       0.761037         10.2966         8.66337         10.9376 
       0.773197         9.84839         8.36137         10.6337 
       0.785376         9.51084         8.07342         10.3069 
       0.797761         9.23642         7.79458         9.98309 
       0.810096         8.98588         7.53002         9.74215 
       0.822371         8.75375         7.27902         9.42575 
       0.834626         8.45656         7.03992         9.17338 
       0.846916         8.16146           6.811         8.93048 
       0.859215         7.85391         6.59218         8.70051 
       0.871383          7.6555          6.3852          8.4793 
        0.88363         7.46038         6.18592         8.24853 
       0.895928          7.2982         5.99443         8.02262 
       0.908253         7.07826         5.81073         7.82506 
       0.920535         6.83796         5.63539         7.61672 
       0.932774         6.69868         5.46792         7.39955 
        0.94508         6.47985         5.30645          7.2472 
       0.957324         6.32623         5.15232         7.09234 
        0.96953         6.10524         5.00481         6.91653 
       0.981769         5.98147         4.86274         6.73523 
       0.994071         5.85696         4.72553          6.5946 
         1.0064         5.65246          4.5934         6.44416 
        1.01868         5.50995         4.46673         6.29446 
        1.03092         5.40726         4.34543         6.14412 
         1.0432         5.20628         4.22822         6.01342 
        1.05553         5.10999         4.11489         5.89531 
        1.06777          4.9532         4.00655         5.77225 
           1.08         4.86987         3.90225         5.64207 
        1.09227         4.73585         3.80133         5.51896 
         1.1046         4.62596         3.70362         5.40375 
         1.1169         4.47707         3.60954         5.29581 
        1.12915         4.44235          3.5192          5.2027 
        1.14142         4.28746         3.43177         5.08217 
        1.15365         4.20167         3.34759         4.98932 
        1.16585         4.13387         3.26646         4.89899 
        1.17807         4.03875         3.18794          4.7928 
        1.19037         3.91111         3.11148         4.70097 
        1.20276         3.83049         3.03703         4.60492 
        1.21504         3.74903         2.96561         4.53369 
        1.22728         3.66218         2.89679         4.43669 
        1.23954         3.59892            2.83         4.37502 
        1.25184         3.51402         2.76519         4.28236 
        1.26414         3.45946         2.70239         4.19859 
        1.27632          3.3494         2.64211         4.13945 
         1.2886         3.31008         2.58325         4.06034 
        1.30093          3.2223         2.52599         3.99929 
        1.31316         3.13443         2.47087         3.92393 
        1.32541         3.09417          2.4174         3.86558 
        1.33772         3.03949         2.36522         3.79501 
        1.35005         2.97858         2.31455         3.73493 
        1.36225         2.91806         2.26588         3.66742 
        1.37447         2.85653         2.21852         3.61776 
        1.38676         2.79483          2.1723         3.55144 
        1.39907         2.73252         2.12733         3.50324 
        1.41133         2.68638         2.08382         3.44675 
        1.42358         2.64749         2.04158         3.38536 
        1.43591         2.60152         2.00022         3.34831 
        1.44818         2.53522         1.96024         3.29345 
        1.46037         2.48149         1.92159         3.23882 
        1.47263         2.43745         1.88377         3.19415 
        1.48494         2.40193         1.84682         3.14643 
        1.49724         2.35058          1.8109         3.09768 
        1.50952         2.33604         1.77601         3.05295 
        1.52178         2.27294         1.74208         3.01416 
        1.53409         2.22725         1.70892         2.96251 
        1.54637         2.18856         1.67668         2.92137 
        1.55858         2.15378         1.64546          2.8757 
        1.57081         2.11662         1.61499          2.8423 
        1.58313         2.07327         1.58511         2.80379 
        1.59544         2.04239           1.556         2.76667 
        1.60767         2.01324         1.52781         2.72758 
        1.61994         1.96833         1.50022         2.69299 
        1.63225         1.94245         1.47325         2.65763 
        1.64452         1.90926         1.44703         2.61968 
        1.65676         1.86855         1.42152         2.58707 
          1.669         1.84537         1.39662         2.55165 
        1.68133         1.80149         1.37215         2.52351 
        1.69363         1.79372         1.34834         2.48973 
        1.70585         1.76198         1.32525         2.45784 
        1.71809         1.73595         1.30265         2.42678 
        1.73038         1.70093         1.28051         2.39597 
        1.74268         1.67035         1.25887         2.36687 
        1.75493          1.6521         1.23783         2.34023 
        1.76714         1.62639         1.21732         2.30645 
        1.77942         1.59765         1.19718         2.28158 
        1.79173         1.57477         1.17744         2.25263 
        1.80402         1.55085         1.15819          2.2266 
         1.8163         1.53045         1.13938         2.20021 
         1.8286         1.49926         1.12095         2.17951 
         1.8409         1.48611         1.10295         2.15329 
        1.85315         1.46415         1.08541          2.1236 
        1.86537         1.43877         1.06828         2.10357 
        1.87765         1.42141         1.05146          2.0801 
        1.88995         1.39805         1.03496         2.05589 
        1.90221          1.3788         1.01887         2.03218 
        1.91445         1.35761         1.00315         2.01296 
        1.92674         1.34072        0.987706         1.98743 
        1.93902         1.31643        0.972588         1.96412 
        1.95124         1.29827        0.957868         1.94548 
         1.9635         1.28193        0.943415         1.92291 
        1.97583         1.25964        0.929169         1.90173 
        1.98812         1.24507        0.915272         1.88409 
        2.00039         1.22587        0.901686         1.86249 
        2.01264         1.20635         0.88839         1.84586 
        2.02492         1.19613        0.875342         1.82768 
        2.03717         1.18554        0.862578         1.80758 
        2.04942         1.16117        0.850086         1.78693 
        2.06171         1.14598        0.837799         1.76866 
        2.07397         1.13111        0.825781         1.75286 
        2.08629         1.11936        0.813949         1.73652 
        2.09857           1.102        0.802378         1.71896 
        2.11081         1.08779        0.791079         1.70079 
        2.12309         1.07611        0.779971         1.68644 
        2.13538         1.06229         0.76906         1.66786 
        2.14763         1.05315        0.758395         1.65223 
        2.15986         1.03867        0.747956         1.63849 
        2.17214         1.01762        0.737672         1.61884 
        2.18443         1.00911        0.727571         1.60661 
        2.19671        0.998855        0.717672         1.59163 
        2.20898        0.984401        0.707969         1.57658 
        2.22126         0.97178        0.698435         1.56211 
        2.23354        0.959421         0.68908          1.5474 
         2.2458         0.95071        0.679913         1.53235 
        2.25807        0.936268        0.670904           1.518 
        2.27035        0.928462        0.662051         1.50548 
        2.28263        0.911972        0.653361         1.49283 
         2.2949        0.904054        0.644833         1.47895 
        2.30718        0.895515        0.636454         1.46652 
        2.31946        0.881809        0.628219         1.45347 
        2.33169        0.872099        0.620167         1.44103 
        2.34393        0.868251        0.612243         1.42861 
        2.35622        0.852342        0.604432          1.4162 
        2.36847        0.846166        0.596779         1.40398 
        2.38076        0.831512        0.589236          1.3918 
        2.39305        0.827734        0.581825         1.37977 
        2.40534         0.81616        0.574541         1.36863 
        2.41762        0.807698        0.567383         1.35626 
        2.42989         0.79777        0.560358         1.34681 
        2.44216        0.792179        0.553453         1.33522 
         2.4544        0.784482         0.54668         1.32443 
        2.46667        0.774429        0.540004         1.31349 
        2.47897        0.766489        0.533424         1.30242 
        2.49124        0.755788        0.526972          1.2919 
        2.50349        0.750145        0.520637         1.28114 
        2.51578        0.743037        0.514386         1.27027 
        2.52805        0.733327        0.508249         1.26091 
        2.54029        0.727685        0.502227         1.25073 
        2.55257        0.719072        0.496285         1.24136 
        2.56487        0.711295        0.490428         1.23226 
        2.57716        0.706876        0.484673         1.22167 
        2.58942        0.701957        0.479024         1.21318 
        2.60167        0.695088         0.47347         1.20346 
        2.61395         0.68696        0.467996         1.19423 
        2.62624        0.681548        0.462601         1.18583 
        2.63849        0.673811        0.457308         1.17643 
        2.65073        0.667721        0.452104         1.16742 
        2.66302        0.663283        0.446962         1.15827 
         2.6753         0.65932        0.441903         1.15025 
        2.68756        0.651843        0.436933         1.14259 
        2.69983        0.646522        0.432036         1.13399 
        2.71213        0.638393        0.427204         1.12584 
        2.72441        0.635846        0.422454         1.11745 
        2.73665        0.631921        0.417788         1.11037 
         2.7489        0.625673        0.413195         1.10284 
        2.76118        0.620599        0.408656         1.09356 
        2.77349        0.616945        0.404176         1.08634 
        2.78576        0.613792         0.39978         1.07853 
        2.79802        0.607954        0.395452         1.07045 
        2.81031         0.60405        0.391178         1.06418 
        2.82259        0.599903        0.386968         1.05576 
        2.83483        0.596494        0.382837         1.04875 
         2.8471        0.591783        0.378758         1.04128 
         2.8594        0.589333        0.374726         1.03453 
         2.8717         0.58429        0.370754          1.0282 
        2.88396         0.58046        0.366854         1.02098 
        2.89619        0.577824        0.363017         1.01414 
        2.90847        0.574577        0.359221         1.00761 
        2.92072        0.573587        0.355486         1.00081 
        2.93299        0.567211        0.351802        0.993614 
        2.94526        0.566995        0.348166        0.987398 
        2.95753        0.564814        0.344584        0.981288 
        2.96982        0.562365        0.341045        0.974456 
        2.98209        0.560347        0.337564        0.968041 
        2.99436        0.557612        0.334128        0.961962 
        3.00666        0.556993        0.330734        0.955992 
        3.01894        0.555884        0.327394        0.950299 
        3.03119        0.552522        0.324104        0.943764 
        3.04345        0.550676         0.32086        0.937771 
        3.05573        0.550343        0.317654        0.932722 
          3.068        0.548752        0.314495        0.926892 
        3.08026        0.549209        0.311382        0.920682 
        3.09254        0.547495        0.308305        0.914556 
        3.10483        0.545896        0.305269        0.909229 
         3.1171        0.547072        0.302279        0.904129 
        3.12933        0.546646        0.299336        0.898494 
        3.14159        0.546766        0.296427        0.892985 
