# k  (h/Mpc)    Pcb(k)  (Mpc/h)^3    Pcb_linear(k) (Mpc/h)^3    Pcb_NL(k) (Mpc/h)^3   ShotnoiseSubtracted = false
      0.0156606         14629.9         14685.4         14585.9 
      0.0273761         12589.8         12698.8         12598.2 
      0.0384619         9543.42         9567.64            9485 
      0.0498308         7400.73         7525.81         7444.95 
      0.0625568         6249.14         6396.12         6322.06 
      0.0751274         5531.31         5434.25          5328.1 
      0.0867833         4307.22          4375.2         4344.87 
      0.0984825         3598.06         3462.42          3497.5 
       0.111151         3057.29         2891.07          2930.8 
       0.123864         2743.13         2605.44         2638.27 
       0.135742         2488.01         2342.95          2376.4 
        0.14762         2150.25         2003.34         2090.96 
       0.160083         1804.24          1669.9         1774.67 
       0.172465         1608.83          1457.5         1589.65 
       0.184281         1472.76         1343.64         1478.81 
       0.196406         1366.23         1240.85         1357.28 
       0.209011         1265.18         1104.04         1226.62 
       0.221538         1141.46         964.829         1132.87 
       0.233611         1074.49         863.271         1052.31 
       0.245665         984.876         796.767         968.998 
       0.258103         948.626         741.721         912.559 
       0.270422         855.018         681.556         852.835 
       0.282519         795.053          618.55         799.113 
       0.294636         787.593         563.568         752.482 
       0.306978         707.562         521.395         717.212 
       0.319417         685.064         487.474         675.072 
        0.33169         645.595         455.005         636.459 
       0.343948         615.534         421.588         613.504 
       0.356249         578.635          390.25         588.052 
       0.368458         561.237         364.001         557.144 
        0.38068         541.814          342.05         533.355 
       0.392856         510.492         322.012         512.334 
       0.405069         489.087         302.418         496.209 
       0.417459         468.853         283.446         472.877 
       0.429752          456.41         266.416         455.723 
       0.441978         441.473         251.469         442.537 
       0.454294          417.18         237.895          423.14 
        0.46658         410.258          225.16         412.628 
       0.478753         396.896         213.145         398.672 
       0.490964         382.707         201.859         385.394 
       0.503334         361.648         191.442         375.064 
       0.515665         360.078         181.944         366.844 
       0.527909         347.573         173.175         356.104 
       0.540159         338.724         164.879         346.028 
        0.55248         332.146         157.007         336.386 
       0.564743         326.439         149.718         329.864 
        0.57686         313.938         143.019         320.116 
       0.589077         302.736         136.695         313.102 
       0.601441         299.445         130.682         305.878 
        0.61382         294.713         125.013         299.641 
       0.626067         289.252         119.722         292.966 
       0.638306         276.284          114.74         287.357 
       0.650632         271.061          110.02         278.863 
       0.662899         269.379         105.597         275.099 
       0.675076          259.11         101.451         269.581 
       0.687267          252.68         97.5231         263.449 
       0.699615         248.636         93.7539         258.721 
       0.711937         244.263         90.1908          254.01 
       0.724148         237.639         86.8431         250.181 
       0.736433         232.555         83.6487         244.919 
       0.748747         228.369         80.6104         240.183 
       0.761037         224.579         77.7302         236.085 
       0.773197          221.16         75.0205          233.07 
       0.785376         218.369          72.437         228.563 
       0.797761          213.19         69.9352         225.377 
       0.810096         210.075         67.5614         221.846 
       0.822371         202.212         65.3094          218.16 
       0.834626         201.464         63.1641         214.735 
       0.846916         197.772         61.1102         211.617 
       0.859215         197.162         59.1469         208.483 
       0.871383         192.042         57.2898         205.143 
        0.88363         190.105         55.5018         202.981 
       0.895928         185.799         53.7837         199.892 
       0.908253         180.717         52.1355         196.474 
       0.920535         180.168         50.5623          193.85 
       0.932774         174.175         49.0597         191.062 
        0.94508         172.749          47.611         189.018 
       0.957324         172.251         46.2281         186.149 
        0.96953         170.088         44.9046         183.352 
       0.981769         164.827         43.6298         181.705 
       0.994071         164.088         42.3987         179.279 
         1.0064         160.186         41.2133         176.545 
        1.01868         158.158         40.0768         174.601 
        1.03092         155.618         38.9884         172.662 
         1.0432         152.622         37.9367         170.483 
        1.05553          150.04         36.9199         168.516 
        1.06777         149.875         35.9479         166.789 
           1.08         146.321          35.012         164.572 
        1.09227         144.732         34.1066         162.926 
         1.1046         142.367         33.2299         161.021 
         1.1169         140.494         32.3857         158.839 
        1.12915         138.268         31.5752         157.267 
        1.14142         136.129         30.7908         155.225 
        1.15365         134.313         30.0355         153.591 
        1.16585         132.435         29.3076         151.609 
        1.17807         130.525          28.603         150.525 
        1.19037         129.909         27.9171          148.93 
        1.20276         127.266          27.249         147.116 
        1.21504          125.74         26.6083         145.519 
        1.22728         123.253         25.9908          143.79 
        1.23954         122.546         25.3915         142.555 
        1.25184         120.019           24.81         140.975 
        1.26414         118.454         24.2466         139.511 
        1.27632         117.828         23.7057         138.785 
         1.2886          115.64         23.1776         136.752 
        1.30093         112.912         22.6638         135.296 
        1.31316         112.574         22.1693         133.918 
        1.32541         110.924         21.6896         132.885 
        1.33772         109.734         21.2214         131.458 
        1.35005          108.37         20.7667         130.015 
        1.36225         107.036         20.3301         128.851 
        1.37447         104.943         19.9052         127.442 
        1.38676         104.412         19.4905         126.097 
        1.39907         102.061          19.087         125.025 
        1.41133         100.724         18.6966          124.01 
        1.42358         99.4282         18.3176         122.755 
        1.43591         98.7992         17.9465         121.405 
        1.44818         97.7134         17.5878         120.406 
        1.46037         95.8971          17.241         119.219 
        1.47263         94.5666         16.9017         118.314 
        1.48494         93.7878         16.5702          117.05 
        1.49724         92.2674         16.2479          115.83 
        1.50952          90.841         15.9348         114.826 
        1.52178         90.0484         15.6305         113.797 
        1.53409         89.0738         15.3329         112.803 
        1.54637         87.2365         15.0436         111.773 
        1.55858         86.2851         14.7635         110.708 
        1.57081         85.0791         14.4902         109.757 
        1.58313         84.0555          14.222         108.763 
        1.59544          83.165         13.9608         107.783 
        1.60767         81.9336         13.7079         106.775 
        1.61994         80.8669         13.4604         106.092 
        1.63225         79.6734         13.2184         104.807 
        1.64452         78.6242         12.9831         103.989 
        1.65676         77.5258         12.7543         103.099 
          1.669           76.99         12.5308         102.268 
        1.68133           76.01         12.3113         101.303 
        1.69363         75.0291         12.0976         100.517 
        1.70585         74.1219         11.8905         99.5729 
        1.71809         72.8312         11.6877           98.82 
        1.73038         72.0759         11.4891         97.8626 
        1.74268         70.9592         11.2949           97.07 
        1.75493         70.3965         11.1061         96.1934 
        1.76714         69.2274         10.9222         95.3982 
        1.77942         68.8089         10.7414         94.5612 
        1.79173         67.6219         10.5643         93.7597 
        1.80402         66.8955         10.3916         93.0531 
         1.8163           66.07         10.2228         92.1153 
         1.8286         65.1141         10.0575         91.4806 
         1.8409         64.1992         9.89597         90.6666 
        1.85315         63.2979         9.73855         90.0189 
        1.86537         62.6845         9.58487         89.2111 
        1.87765         61.9405         9.43393         88.3566 
        1.88995         61.1002         9.28589         87.7297 
        1.90221         60.4647         9.14154         86.9849 
        1.91445         59.3746          9.0005         86.3024 
        1.92674         58.8686         8.86195         85.6029 
        1.93902         58.1432         8.72632         84.8395 
        1.95124         57.7061         8.59424         84.2724 
         1.9635         56.6103         8.46457         83.4405 
        1.97583         56.0823         8.33675         82.8973 
        1.98812         55.3897         8.21206         82.1544 
        2.00039         54.6092         8.09016         81.5014 
        2.01264         53.9727         7.97086         80.8385 
        2.02492         53.2591          7.8538          80.224 
        2.03717         52.5549         7.73928         79.5104 
        2.04942         51.9114         7.62719         78.9679 
        2.06171          51.225         7.51694         78.2744 
        2.07397         50.5885         7.40912         77.7218 
        2.08629         50.0668         7.30296          77.039 
        2.09857         49.5546         7.19914         76.4786 
        2.11081         48.4784         7.09777          75.806 
        2.12309         48.1994          6.9981         75.2671 
        2.13538         47.5815          6.9002         74.6658 
        2.14763         47.0895         6.80451         74.0933 
        2.15986         46.4353         6.71086         73.5016 
        2.17214         45.7878         6.61858         72.9817 
        2.18443          45.509         6.52796         72.3984 
        2.19671         44.6577         6.43914         71.7943 
        2.20898         44.3435         6.35208         71.2464 
        2.22126         43.7531         6.26654         70.6749 
        2.23354         43.1719          6.1826         70.1869 
         2.2458         42.7672         6.10035         69.6622 
        2.25807         42.3378         6.01952         69.0778 
        2.27035         41.7527         5.94009         68.5596 
        2.28263         41.1842         5.86213         68.0285 
         2.2949         40.6677          5.7856          67.533 
        2.30718         40.2553         5.71042         67.0427 
        2.31946         39.6782         5.63654         66.5582 
        2.33169         39.2587         5.56429          66.035 
        2.34393         38.6503         5.49319         65.5328 
        2.35622          38.377         5.42311         65.0413 
        2.36847          37.889         5.35445         64.5683 
        2.38076         37.5666         5.28677         64.0863 
        2.39305         37.0858         5.22028         63.6204 
        2.40534         36.7015         5.15493         63.0894 
        2.41762         36.2817          5.0907         62.6171 
        2.42989         35.7134         5.02767         62.2095 
        2.44216         35.4902         4.96572         61.7318 
         2.4544         35.1324         4.90495         61.2872 
        2.46667         34.5708         4.84505         60.7979 
        2.47897         34.2627         4.78602         60.3759 
        2.49124         33.8202         4.72813         59.9368 
        2.50349         33.4092         4.67128         59.5092 
        2.51578         33.0606          4.6152         59.0994 
        2.52805         32.9295         4.56013         58.6465 
        2.54029         32.4948         4.50611         58.2238 
        2.55257         32.0646         4.45279         57.8187 
        2.56487         31.7351         4.40024          57.412 
        2.57716         31.4182         4.34861         57.0295 
        2.58942         31.0302         4.29792         56.5983 
        2.60167         30.6321         4.24809         56.1653 
        2.61395         30.4077         4.19898          55.787 
        2.62624         30.1636         4.15057         55.3899 
        2.63849         29.8564         4.10308          55.002 
        2.65073         29.5113         4.05639         54.5864 
        2.66302         29.2241         4.01025         54.2239 
         2.6753         28.8924         3.96486         53.8461 
        2.68756         28.5409         3.92027         53.4515 
        2.69983         28.3212         3.87633          53.095 
        2.71213         27.9668         3.83297           52.74 
        2.72441         27.8524         3.79036         52.3478 
        2.73665         27.5594         3.74849         51.9833 
         2.7489         27.3628         3.70728         51.6315 
        2.76118         27.0518         3.66656         51.2647 
        2.77349          26.838         3.62636         50.9291 
        2.78576         26.6502         3.58692         50.5638 
        2.79802         26.3231         3.54809         50.2222 
        2.81031         26.1053         3.50974         49.8906 
        2.82259         25.8883         3.47197         49.5307 
        2.83483         25.6436          3.4349         49.1914 
         2.8471         25.4299          3.3983         48.8666 
         2.8594          25.225         3.36213         48.5525 
         2.8717         24.9552         3.32649          48.214 
        2.88396         24.8518          3.2915         47.8689 
        2.89619         24.6603         3.25708         47.5507 
        2.90847         24.4565         3.22302          47.235 
        2.92072         24.3536          3.1895         46.9204 
        2.93299         24.2274         3.15645         46.5949 
        2.94526         23.9964         3.12383         46.2991 
        2.95753         23.8318         3.09168         46.0068 
        2.96982         23.8095         3.05994          45.696 
        2.98209         23.5901          3.0287         45.3941 
        2.99436         23.4085         2.99787         45.0899 
        3.00666         23.3688         2.96742         44.7931 
        3.01894          23.241         2.93745         44.4811 
        3.03119         23.0707         2.90794         44.1901 
        3.04345         22.9721         2.87883         43.9154 
        3.05573         22.9031         2.85006         43.6321 
          3.068         22.8425         2.82172         43.3435 
        3.08026         22.7661         2.79379         43.0579 
        3.09254         22.6448         2.76618         42.7851 
        3.10483         22.6666         2.73895         42.5137 
         3.1171         22.5555         2.71211         42.2378 
        3.12933         22.5808         2.68571         41.9653 
        3.14159         22.4914         2.65961         41.6919 
