# k  (h/Mpc)    Pcb(k)  (Mpc/h)^3    Pcb_linear(k) (Mpc/h)^3    Pcb_NL(k) (Mpc/h)^3   ShotnoiseSubtracted = false
      0.0156606          4120.1         4124.46         4103.21 
      0.0273761         3574.06         3568.44         3556.39 
      0.0384619         2715.88         2689.24         2683.52 
      0.0498308         2125.02         2115.62         2111.47 
      0.0625568         1792.95         1798.21         1793.08 
      0.0751274         1558.58         1527.88         1519.28 
      0.0867833         1231.87         1230.16         1228.74 
      0.0984825         1003.56         973.539         978.523 
       0.111151         842.203         812.905         817.853 
       0.123864         756.641         732.603         736.603 
       0.135742         680.705         658.799         662.863 
        0.14762          579.25         563.311         572.862 
       0.160083         480.872         469.555          480.39 
       0.172465         425.097         409.834         422.975 
       0.184281         393.998          377.82         391.781 
       0.196406         359.328         348.917         359.833 
       0.209011         325.235         310.448         322.675 
       0.221538         290.078         271.303         288.394 
       0.233611         262.781         242.746          261.79 
       0.245665         246.872         224.046         241.022 
       0.258103         223.403         208.568          225.48 
       0.270422         209.289          191.65         208.194 
       0.282519         190.115         173.933         191.462 
       0.294636         183.323         158.473         176.968 
       0.306978         161.801         146.614         165.781 
       0.319417         154.688         137.076         155.562 
        0.33169         144.001         127.946         145.809 
       0.343948         137.175         118.549         136.935 
       0.356249         126.428         109.737         129.497 
       0.368458          121.14         102.356         120.892 
        0.38068         114.079         96.1832         114.527 
       0.392856         106.422         90.5485         109.015 
       0.405069         100.966          85.039         103.236 
       0.417459         95.2755         79.7042         97.7185 
       0.429752          91.424         74.9153         93.0345 
       0.441978         87.3046         70.7122         89.3692 
       0.454294          81.202         66.8954         84.6406 
        0.46658         81.0035         63.3142          81.099 
       0.478753         75.3934         59.9357          77.761 
       0.490964         73.0082         56.7623         74.6392 
       0.503334         69.9563         53.8331         71.4524 
       0.515665         66.9576         51.1621         69.2741 
       0.527909         64.2425         48.6963         65.7078 
       0.540159         61.8513         46.3635          63.462 
        0.55248         58.2304           44.15         60.9615 
       0.564743         57.2476         42.1003         59.0379 
        0.57686         55.4483         40.2166         56.9449 
       0.589077          52.455         38.4384          55.236 
       0.601441         50.8934         36.7475         53.4006 
        0.61382         49.3045         35.1532          51.431 
       0.626067         47.2776         33.6656         49.9953 
       0.638306         45.8459         32.2646         48.3135 
       0.650632         44.4231         30.9373         46.7087 
       0.662899         43.1052         29.6935         45.2665 
       0.675076          41.252         28.5278          43.959 
       0.687267         40.7329         27.4233         42.6656 
       0.699615         39.2701         26.3634         41.6502 
       0.711937         37.5323         25.3615         40.2376 
       0.724148          37.359         24.4201         39.4334 
       0.736433         35.2526         23.5218         38.2474 
       0.748747          34.783         22.6675          37.238 
       0.761037         33.8256         21.8576         36.3539 
       0.773197         32.9377         21.0956         35.5468 
       0.785376         31.6962         20.3691         34.6283 
       0.797761         31.2165         19.6656          33.858 
       0.810096         30.4932         18.9981         33.0213 
       0.822371         29.7148         18.3649         32.1621 
       0.834626         28.8402         17.7616         31.5818 
       0.846916         28.0806         17.1841         30.8135 
       0.859215         27.1462          16.632         30.1281 
       0.871383         26.7472         16.1098         29.5563 
        0.88363         26.0688          15.607         28.9671 
       0.895928         25.5031         15.1239         28.2575 
       0.908253         24.9611         14.6604         27.7841 
       0.920535         24.3855          14.218         27.1801 
       0.932774         23.9874         13.7955         26.6114 
        0.94508         23.3748         13.3881         26.0789 
       0.957324         22.9224         12.9992         25.6132 
        0.96953         22.2905         12.6271         25.0905 
       0.981769         22.0089         12.2686          24.689 
       0.994071         21.4288         11.9224         24.1991 
         1.0064         20.9143         11.5891         23.7839 
        1.01868         20.4926         11.2695         23.3872 
        1.03092         20.3133         10.9635         22.9445 
         1.0432         19.6712         10.6677         22.5016 
        1.05553         19.3398         10.3818         22.2522 
        1.06777         18.7972         10.1085         21.7646 
           1.08         18.4428         9.84532          21.428 
        1.09227         18.1432         9.59071         21.1315 
         1.1046         17.8765         9.34419         20.7326 
         1.1169         17.4857         9.10681          20.405 
        1.12915         17.3553         8.87888         20.1222 
        1.14142         16.7508         8.65831         19.7834 
        1.15365         16.6316         8.44592         19.4884 
        1.16585         16.4261         8.24124         19.2315 
        1.17807         15.9673         8.04312         18.8693 
        1.19037         15.7971         7.85023         18.6761 
        1.20276         15.5165         7.66238         18.3699 
        1.21504         15.2588         7.48219         18.1442 
        1.22728         14.9069         7.30856         17.8612 
        1.23954         14.7096         7.14004         17.6106 
        1.25184         14.4401         6.97654         17.3823 
        1.26414         14.2447          6.8181         17.1164 
        1.27632         13.9758         6.66601         16.8862 
         1.2886         13.8269         6.51751         16.6817 
        1.30093         13.5113         6.37302         16.5125 
        1.31316         13.3376         6.23398         16.2495 
        1.32541         13.1501         6.09907         16.0907 
        1.33772         12.9042         5.96741          15.862 
        1.35005          12.752         5.83957         15.6833 
        1.36225         12.5463         5.71678         15.4679 
        1.37447         12.3176          5.5973          15.281 
        1.38676         12.1457         5.48069         15.1135 
        1.39907         11.9437         5.36722         14.9251 
        1.41133         11.7787         5.25746          14.753 
        1.42358         11.5923         5.15088         14.5635 
        1.43591         11.4453         5.04653         14.4333 
        1.44818         11.2412         4.94565         14.2686 
        1.46037         11.1565         4.84814         14.0776 
        1.47263         10.9497         4.75272         13.9572 
        1.48494         10.8633          4.6595         13.7608 
        1.49724         10.6574         4.56887         13.6452 
        1.50952         10.5767         4.48084         13.5023 
        1.52178         10.3922         4.39526         13.3381 
        1.53409         10.1992         4.31157         13.1981 
        1.54637         10.1528         4.23024         13.0325 
        1.55858         10.0236         4.15148         12.9183 
        1.57081         9.80128         4.07461         12.8002 
        1.58313         9.74161         3.99921         12.6675 
        1.59544          9.5566         3.92577         12.5488 
        1.60767         9.46089         3.85464         12.4084 
        1.61994         9.30925         3.78503         12.3006 
        1.63225         9.22624           3.717         12.1865 
        1.64452         9.09997         3.65083          12.073 
        1.65676         8.97396         3.58649         11.9462 
          1.669         8.90692         3.52364         11.8251 
        1.68133         8.72265         3.46191         11.7113 
        1.69363         8.62744         3.40184         11.6002 
        1.70585         8.52135         3.34358          11.509 
        1.71809         8.42775         3.28656         11.4007 
        1.73038         8.35135          3.2307         11.3068 
        1.74268         8.24311         3.17611         11.1986 
        1.75493          8.1098         3.12302         11.0811 
        1.76714          8.1006         3.07129         11.0013 
        1.77942         7.98111         3.02047         10.8862 
        1.79173         7.84596         2.97067         10.8013 
        1.80402         7.80095         2.92209         10.7102 
         1.8163         7.69973         2.87463         10.6247 
         1.8286         7.57832         2.82815         10.5345 
         1.8409         7.50661         2.78273         10.4508 
        1.85315          7.4179         2.73846         10.3512 
        1.86537         7.36106         2.69525         10.2709 
        1.87765         7.28045         2.65281         10.1858 
        1.88995         7.14732         2.61118         10.1081 
        1.90221         7.11871         2.57059         10.0092 
        1.91445         7.02106         2.53093         9.95123 
        1.92674         6.94919         2.49197         9.85598 
        1.93902         6.89638         2.45383         9.79091 
        1.95124         6.80267         2.41669         9.69908 
         1.9635         6.74178         2.38022         9.63402 
        1.97583         6.68546         2.34428         9.54787 
        1.98812         6.61259         2.30922         9.46285 
        2.00039         6.53495         2.27494         9.41297 
        2.01264         6.47829         2.24139          9.3411 
        2.02492          6.4187         2.20847         9.26133 
        2.03717         6.33735         2.17627         9.19407 
        2.04942         6.25211         2.14475         9.13169 
        2.06171         6.22846         2.11375         9.06452 
        2.07397         6.15413         2.08343         8.99834 
        2.08629         6.09042         2.05358         8.93631 
        2.09857         6.02804         2.02439         8.86668 
        2.11081         5.98596         1.99588         8.81519 
        2.12309         5.91063         1.96785         8.73263 
        2.13538         5.86059         1.94033         8.68267 
        2.14763         5.79461         1.91342         8.62099 
        2.15986         5.75936         1.88708          8.5614 
        2.17214         5.70487         1.86113         8.49085 
        2.18443         5.64528         1.83565         8.44015 
        2.19671         5.59655         1.81068         8.38401 
        2.20898         5.52994         1.78619         8.32734 
        2.22126         5.48773         1.76214         8.26611 
        2.23354         5.44542         1.73854         8.20448 
         2.2458         5.38661         1.71541         8.15267 
        2.25807         5.34901         1.69268         8.09885 
        2.27035         5.29965         1.67034         8.04841 
        2.28263         5.26054         1.64842         7.99227 
         2.2949         5.20859          1.6269         7.94533 
        2.30718         5.16402         1.60576         7.90375 
        2.31946         5.13232         1.58499          7.8494 
        2.33169         5.07631         1.56467         7.79479 
        2.34393         5.05295         1.54468         7.74358 
        2.35622         5.01314         1.52497         7.69404 
        2.36847         4.96745         1.50566         7.64517 
        2.38076         4.93061         1.48663         7.59721 
        2.39305           4.873         1.46793         7.54223 
        2.40534         4.84663         1.44956           7.495 
        2.41762         4.79489          1.4315         7.45855 
        2.42989         4.77793         1.41377         7.41505 
        2.44216          4.7481         1.39635         7.36612 
         2.4544         4.69325         1.37926         7.31832 
        2.46667         4.68089         1.36242         7.27499 
        2.47897         4.63445         1.34582          7.2266 
        2.49124         4.58984         1.32954         7.18341 
        2.50349         4.57258         1.31356         7.14948 
        2.51578         4.51802         1.29779         7.10613 
        2.52805         4.49933          1.2823         7.06297 
        2.54029          4.4663         1.26711         7.02183 
        2.55257         4.45489         1.25212         6.98339 
        2.56487         4.40883         1.23734         6.93452 
        2.57716         4.38583         1.22282         6.89732 
        2.58942         4.35037         1.20857         6.85822 
        2.60167         4.32618         1.19456         6.81655 
        2.61395         4.27875         1.18075         6.78042 
        2.62624         4.28507         1.16713         6.74335 
        2.63849         4.25249         1.15378         6.70222 
        2.65073         4.21889         1.14065         6.66124 
        2.66302         4.20286         1.12768         6.62349 
         2.6753          4.1703         1.11491         6.58756 
        2.68756         4.14465         1.10237         6.55529 
        2.69983         4.12633         1.09002         6.51314 
        2.71213         4.10236         1.07783         6.47708 
        2.72441         4.07924         1.06584         6.44325 
        2.73665          4.0641         1.05407         6.40499 
         2.7489         4.03489         1.04248         6.37337 
        2.76118         4.00989         1.03103         6.34587 
        2.77349         4.00445         1.01973         6.30406 
        2.78576         3.98449         1.00864         6.27036 
        2.79802          3.9706        0.997716          6.2389 
        2.81031         3.94284        0.986933         6.20679 
        2.82259         3.92884        0.976312         6.17358 
        2.83483         3.92452        0.965889         6.14007 
         2.8471         3.90508        0.955597         6.10877 
         2.8594         3.89366        0.945424         6.07818 
         2.8717         3.86822        0.935403         6.04203 
        2.88396         3.86509        0.925564         6.01091 
        2.89619          3.8326        0.915885         5.98361 
        2.90847         3.83057        0.906307         5.94767 
        2.92072         3.83268        0.896883         5.91774 
        2.93299         3.82573        0.887588         5.88944 
        2.94526         3.81834        0.878416         5.85758 
        2.95753         3.80019        0.869377         5.82713 
        2.96982          3.7785        0.860449         5.79889 
        2.98209         3.78241        0.851665         5.76783 
        2.99436          3.7753        0.842996         5.73874 
        3.00666         3.78321        0.834434         5.71189 
        3.01894         3.77304        0.826006         5.67804 
        3.03119         3.77357        0.817708         5.65149 
        3.04345         3.76279        0.809522         5.62536 
        3.05573         3.76608        0.801432          5.5948 
          3.068         3.75342        0.793462         5.57016 
        3.08026         3.76956        0.785608         5.54367 
        3.09254         3.77084        0.777846         5.51481 
        3.10483         3.77368        0.770187         5.48946 
         3.1171         3.77952        0.762642          5.4642 
        3.12933         3.79047        0.755218         5.43451 
        3.14159         3.78236        0.747878         5.40651 
