# k  (h/Mpc)    Pcb(k)  (Mpc/h)^3    Pcb_linear(k) (Mpc/h)^3    Pcb_NL(k) (Mpc/h)^3   ShotnoiseSubtracted = false
      0.0156606         8750.36         8770.39         8719.39 
      0.0273761         7560.15         7585.66          7545.8 
      0.0384619         5740.23         5715.86         5688.17 
      0.0498308         4470.86         4496.31         4471.11 
      0.0625568          3773.2         3821.53         3796.89 
      0.0751274         3313.03         3246.91         3209.98 
      0.0867833         2597.04         2614.18         2605.42 
      0.0984825         2143.02         2068.82         2084.85 
       0.111151          1808.9         1727.44         1744.22 
       0.123864         1624.64         1556.79          1570.9 
       0.135742         1467.07         1399.95         1414.48 
        0.14762         1257.14         1197.03          1232.9 
       0.160083         1046.41         997.797         1039.21 
       0.172465         930.598         870.889         922.221 
       0.184281         858.936         802.858         856.632 
       0.196406         787.192         741.438         785.304 
       0.209011         720.785         659.692         707.261 
       0.221538         648.279         576.509         642.886 
       0.233611         597.775         515.826         590.256 
       0.245665         556.572         476.089         542.939 
       0.258103         517.438         443.198         509.687 
       0.270422         476.307         407.248         473.288 
       0.282519         436.145           369.6         438.938 
       0.294636         429.943         336.747         409.738 
       0.306978         381.161         311.548         387.426 
       0.319417         365.945         291.279         364.094 
        0.33169         343.124         271.878         342.156 
       0.343948         327.334         251.911         325.875 
       0.356249         305.248         233.185         310.381 
       0.368458         295.157         217.501         291.834 
        0.38068         280.988         204.384         277.829 
       0.392856          262.63         192.411         265.821 
       0.405069         251.674         180.703         255.076 
       0.417459         239.991         169.367         241.418 
       0.429752         231.187         159.191         231.809 
       0.441978         223.033          150.26         224.064 
       0.454294         208.058         142.149         213.115 
        0.46658         208.035         134.539         206.253 
       0.478753          196.73          127.36          198.66 
       0.490964         190.565         120.617         191.218 
       0.503334         180.565         114.392          185.05 
       0.515665         176.845         108.717         180.353 
       0.527909         171.501         103.477         172.937 
       0.540159         165.943           98.52         167.885 
        0.55248         161.465         93.8163         162.283 
       0.564743         156.718         89.4609          158.19 
        0.57686         151.622          85.458         153.012 
       0.589077         145.089         81.6794         149.426 
       0.601441         142.145         78.0864         145.509 
        0.61382         140.197         74.6987         141.239 
       0.626067         135.146         71.5374         137.657 
       0.638306          129.94         68.5605         134.439 
       0.650632         125.541         65.7401         129.785 
       0.662899         125.525          63.097         127.003 
       0.675076         121.044           60.62         123.963 
       0.687267          118.13         58.2729         121.082 
       0.699615         114.881         56.0207         118.597 
       0.711937         111.631         53.8917         115.493 
       0.724148         110.375         51.8913         113.873 
       0.736433         106.528         49.9826         110.902 
       0.748747         104.322         48.1671         108.508 
       0.761037         102.288         46.4461         105.976 
       0.773197         100.044          44.827         104.755 
       0.785376         98.0475         43.2832         102.122 
       0.797761          96.838         41.7883         100.628 
       0.810096         93.5316         40.3699          98.393 
       0.822371         91.5817         39.0243         96.5738 
       0.834626         89.6594         37.7424         94.9257 
       0.846916         88.5907         36.5151         93.3037 
       0.859215         86.8303          35.342         91.4695 
       0.871383         85.5895         34.2323         89.9363 
        0.88363         83.3075          33.164         88.7222 
       0.895928         81.7084         32.1374         87.2719 
       0.908253         79.6263         31.1525         85.7236 
       0.920535         79.2533         30.2125         84.4641 
       0.932774         77.4896         29.3146         82.9775 
        0.94508         76.5472          28.449         81.5964 
       0.957324         74.7749         27.6226         80.5431 
        0.96953         74.8488         26.8318         79.1224 
       0.981769         72.3326         26.0701         78.2489 
       0.994071           71.56         25.3345         77.0932 
         1.0064         69.9807         24.6261         75.9423 
        1.01868         69.1624         23.9471         74.9483 
        1.03092         67.8955         23.2967         73.8812 
         1.0432         66.7398         22.6683          72.768 
        1.05553         65.0145         22.0608         72.1599 
        1.06777         64.7414           21.48         71.1253 
           1.08         63.3306         20.9207         70.1377 
        1.09227         62.4296         20.3797         69.1199 
         1.1046         61.4587         19.8559         68.2606 
         1.1169         60.7595         19.3514         67.2717 
        1.12915         59.8684         18.8671         66.5863 
        1.14142         58.7113         18.3984         65.7656 
        1.15365          57.719         17.9471         65.0133 
        1.16585         56.9084         17.5122         64.1214 
        1.17807         56.0226         17.0912         63.3704 
        1.19037         55.9095         16.6813         62.7681 
        1.20276         54.8195         16.2821         62.0261 
        1.21504         54.3091         15.8992         61.2987 
        1.22728         53.1664         15.5303         60.6363 
        1.23954         52.5805         15.1722         59.8275 
        1.25184         51.7181         14.8247         59.3065 
        1.26414         50.8981         14.4881         58.5693 
        1.27632         50.4808         14.1649         58.0076 
         1.2886          49.942         13.8493         57.3429 
        1.30093         49.2015         13.5423          56.606 
        1.31316         48.4347         13.2468         56.2067 
        1.32541         48.1435         12.9602         55.5605 
        1.33772         47.2561         12.6804         54.9801 
        1.35005         46.7673         12.4087         54.4563 
        1.36225         45.9602         12.1478         53.9129 
        1.37447         44.8785         11.8939         53.3395 
        1.38676         45.0526         11.6461         52.8406 
        1.39907         44.3348          11.405         52.3929 
        1.41133         43.4216         11.1718         51.9071 
        1.42358          42.939         10.9453         51.3206 
        1.43591         42.5565         10.7236         50.9021 
        1.44818         42.0367         10.5092         50.2968 
        1.46037         41.4894          10.302         49.9011 
        1.47263         41.1589         10.0992         49.4999 
        1.48494          40.348         9.90117         48.9719 
        1.49724         40.0977         9.70858         48.5238 
        1.50952         39.6746         9.52152          48.104 
        1.52178         39.0582         9.33966         47.6915 
        1.53409         38.7442         9.16184         47.2669 
        1.54637         38.1068         8.98902         46.8049 
        1.55858         37.3197         8.82165         46.3768 
        1.57081         37.3425         8.65831         46.0498 
        1.58313         36.9075         8.49809         45.6413 
        1.59544         36.2554         8.34203         45.2248 
        1.60767         35.8002         8.19089         44.8073 
        1.61994         35.3574         8.04297         44.4471 
        1.63225         35.1304         7.89841         44.0793 
        1.64452         34.7107         7.75781         43.7316 
        1.65676         34.2662         7.62107         43.3371 
          1.669         33.9518         7.48753         43.0397 
        1.68133         33.6239         7.35635         42.6279 
        1.69363         33.0543          7.2287         42.2665 
        1.70585         32.8379          7.1049         42.0158 
        1.71809         32.2666         6.98376         41.5667 
        1.73038         32.0894         6.86505         41.3209 
        1.74268         31.6015         6.74904         40.9022 
        1.75493         31.2833         6.63624         40.6138 
        1.76714         30.9923         6.52631         40.3214 
        1.77942         30.6755         6.41832         39.9936 
        1.79173         30.2585          6.3125         39.6651 
        1.80402         29.9173         6.20928          39.451 
         1.8163         29.7044         6.10843         38.9944 
         1.8286         29.2057         6.00965         38.7695 
         1.8409         28.9517         5.91314         38.4508 
        1.85315         28.6269         5.81908         38.2067 
        1.86537         28.2558         5.72725         37.9192 
        1.87765          28.117         5.63706          37.615 
        1.88995         27.6843          5.5486         37.2699 
        1.90221         27.4217         5.46235         37.0053 
        1.91445         27.0232         5.37807         36.7567 
        1.92674          26.784         5.29528         36.4641 
        1.93902         26.4843         5.21424         36.2212 
        1.95124         26.0375         5.13532         36.0021 
         1.9635           25.88         5.05783          35.696 
        1.97583         25.6061         4.98146         35.4644 
        1.98812         25.3727         4.90695         35.2019 
        2.00039         25.0638         4.83412         34.9408 
        2.01264         24.7645         4.76283         34.7141 
        2.02492         24.5839         4.69288         34.4341 
        2.03717         24.2079         4.62445         34.1972 
        2.04942         23.9985         4.55747         33.9339 
        2.06171         23.8125          4.4916         33.7194 
        2.07397         23.5516         4.42717         33.4485 
        2.08629         23.3022         4.36374         33.2086 
        2.09857         23.0335          4.3017         32.9959 
        2.11081         22.7743         4.24113         32.7573 
        2.12309         22.6072         4.18157         32.5249 
        2.13538         22.2543         4.12308         32.3253 
        2.14763          22.129          4.0659         32.0892 
        2.15986         21.8571         4.00994         31.8611 
        2.17214         21.6427          3.9548          31.663 
        2.18443         21.4272         3.90065         31.4123 
        2.19671         21.1592         3.84758         31.2009 
        2.20898          20.971         3.79556         30.9772 
        2.22126         20.8492         3.74444         30.7793 
        2.23354         20.6405         3.69429         30.5916 
         2.2458         20.4487         3.64514         30.3921 
        2.25807         20.1432         3.59684         30.1483 
        2.27035         19.9494         3.54938           29.97 
        2.28263          19.798          3.5028         29.7748 
         2.2949         19.6187         3.45707         29.5804 
        2.30718         19.4292         3.41215         29.3724 
        2.31946         19.2955           3.368         29.1744 
        2.33169         19.0547         3.32483         28.9831 
        2.34393         18.8757         3.28235         28.8072 
        2.35622         18.6896         3.24047         28.6218 
        2.36847         18.4777         3.19944         28.4117 
        2.38076         18.3253           3.159         28.2564 
        2.39305         18.1629         3.11927         28.0748 
        2.40534         17.9755         3.08022         27.8519 
        2.41762         17.7908         3.04185         27.7211 
        2.42989         17.6757         3.00419         27.4992 
        2.44216         17.4375         2.96716         27.3455 
         2.4544         17.4243         2.93085         27.1546 
        2.46667         17.1896         2.89506         26.9908 
        2.47897         16.9774         2.85979         26.8065 
        2.49124         16.9085          2.8252         26.6378 
        2.50349         16.6789         2.79123           26.46 
        2.51578          16.577         2.75772         26.3185 
        2.52805         16.4109         2.72482         26.1412 
        2.54029         16.2795         2.69253         25.9756 
        2.55257         16.1707         2.66068          25.806 
        2.56487         15.9749         2.62928         25.6545 
        2.57716         15.8701         2.59842         25.4721 
        2.58942         15.7769         2.56814         25.3382 
        2.60167         15.5472         2.53836         25.1752 
        2.61395         15.4821         2.50901         25.0173 
        2.62624         15.3911         2.48009         24.8535 
        2.63849         15.2163         2.45172          24.725 
        2.65073         15.0831         2.42381         24.5565 
        2.66302         14.9859         2.39625         24.4193 
         2.6753         14.9222         2.36912           24.26 
        2.68756         14.7732         2.34248         24.1223 
        2.69983         14.6394         2.31622         23.9597 
        2.71213         14.5092         2.29032         23.8031 
        2.72441         14.4216         2.26485         23.6661 
        2.73665         14.3117         2.23984         23.5249 
         2.7489          14.267         2.21521         23.3809 
        2.76118          14.116         2.19088         23.2422 
        2.77349         14.0332         2.16686         23.1049 
        2.78576         13.9284         2.14329         22.9754 
        2.79802          13.861         2.12009         22.8247 
        2.81031         13.7642         2.09717          22.683 
        2.82259          13.626         2.07461         22.5632 
        2.83483         13.6225         2.05246          22.428 
         2.8471         13.5441         2.03059         22.2802 
         2.8594         13.4291         2.00897         22.1415 
         2.8717         13.3745         1.98768         22.0203 
        2.88396         13.2906         1.96677         21.8872 
        2.89619         13.2603          1.9462         21.7554 
        2.90847         13.1599         1.92585         21.6427 
        2.92072         13.1186         1.90582         21.4907 
        2.93299         13.0138         1.88607         21.3815 
        2.94526         12.9681         1.86658         21.2652 
        2.95753         12.9411         1.84737         21.1296 
        2.96982         12.8683          1.8284         21.0076 
        2.98209         12.8313         1.80974         20.8887 
        2.99436         12.7817         1.79132          20.759 
        3.00666         12.7626         1.77312         20.6364 
        3.01894         12.7065         1.75522         20.5324 
        3.03119         12.6904         1.73758         20.4111 
        3.04345         12.6125         1.72019         20.2815 
        3.05573         12.6112           1.703         20.1677 
          3.068         12.5628         1.68606         20.0589 
        3.08026         12.5598         1.66937         19.9302 
        3.09254         12.5033         1.65288         19.8232 
        3.10483         12.5221          1.6366         19.7202 
         3.1171         12.5525         1.62057         19.6041 
        3.12933         12.5113         1.60479         19.4908 
        3.14159         12.4646          1.5892          19.373 
