# k  (h/Mpc)    Pcb(k)  (Mpc/h)^3    Pcb_linear(k) (Mpc/h)^3    Pcb_NL(k) (Mpc/h)^3   ShotnoiseSubtracted = false
      0.0156606         14617.6           14673         14573.6 
      0.0273761         12579.4         12688.1         12587.6 
      0.0384619         9535.55         9559.58         9477.01 
      0.0498308         7394.71         7519.47         7438.68 
      0.0625568         6244.08         6390.74         6316.74 
      0.0751274         5526.77         5429.68         5323.62 
      0.0867833         4303.74         4371.52         4341.21 
      0.0984825          3595.1         3459.51         3494.56 
       0.111151         3054.75         2888.64         2928.33 
       0.123864         2740.88         2603.25         2636.04 
       0.135742         2485.95         2340.97          2374.4 
        0.14762         2148.45         2001.65          2089.2 
       0.160083         1802.71         1668.49         1773.18 
       0.172465         1607.46         1456.28         1588.31 
       0.184281         1471.54         1342.51         1477.56 
       0.196406         1365.06         1239.81         1356.14 
       0.209011         1264.09         1103.11         1225.58 
       0.221538         1140.49         964.017         1131.92 
       0.233611         1073.53         862.545         1051.42 
       0.245665         984.031         796.096         968.183 
       0.258103          947.76         741.097         911.791 
       0.270422         854.274         680.982         852.117 
       0.282519         794.339          618.03          798.44 
       0.294636         786.896         563.094         751.848 
       0.306978         706.918         520.956         716.608 
       0.319417         684.434         487.064         674.503 
        0.33169         645.005         454.622         635.923 
       0.343948          614.97         421.234         612.988 
       0.356249         578.103         389.921         587.557 
       0.368458         560.728         363.695         556.675 
        0.38068         541.309         341.762         532.906 
       0.392856          510.01          321.74         511.903 
       0.405069         488.637         302.163         495.792 
       0.417459         468.422         283.208         472.479 
       0.429752         455.979         266.192         455.339 
       0.441978         441.059         251.257         442.165 
       0.454294         416.782         237.695         422.783 
        0.46658         409.883          224.97         412.281 
       0.478753         396.525         212.965         398.336 
       0.490964         382.356         201.689          385.07 
       0.503334         361.313         191.281         374.748 
       0.515665          359.74          181.79         366.535 
       0.527909         347.257         173.029         355.804 
       0.540159         338.417          164.74         345.737 
        0.55248         331.848         156.875         336.103 
       0.564743         326.139         149.592         329.586 
        0.57686         313.654         142.899         319.847 
       0.589077         302.458          136.58         312.839 
       0.601441         299.173         130.572         305.621 
        0.61382         294.454         124.907         299.389 
       0.626067         288.995         119.621          292.72 
       0.638306         276.037         114.643         287.115 
       0.650632         270.814         109.927         278.628 
       0.662899         269.141         105.508         274.867 
       0.675076         258.884         101.366         269.354 
       0.687267         252.462          97.441         263.227 
       0.699615         248.421          93.675         258.503 
       0.711937         244.049         90.1149         253.796 
       0.724148          237.44           86.77          249.97 
       0.736433         232.364         83.5783         244.713 
       0.748747         228.179         80.5425         239.981 
       0.761037         224.397         77.6647         235.886 
       0.773197         220.979         74.9574         232.873 
       0.785376         218.195          72.376          228.37 
       0.797761         213.023         69.8763         225.187 
       0.810096         209.907         67.5045          221.66 
       0.822371         202.054         65.2544         217.976 
       0.834626         201.306          63.111         214.555 
       0.846916         197.624         61.0587         211.439 
       0.859215          197.01         59.0971         208.307 
       0.871383         191.899         57.2416          204.97 
        0.88363         189.961         55.4551          202.81 
       0.895928         185.661         53.7385         199.724 
       0.908253         180.586         52.0916         196.308 
       0.920535         180.039         50.5197         193.687 
       0.932774         174.052         49.0184         190.901 
        0.94508          172.63         47.5709         188.859 
       0.957324         172.132         46.1892         185.992 
        0.96953         169.975         44.8668         183.197 
       0.981769          164.72         43.5931         181.552 
       0.994071         163.983         42.3631         179.128 
         1.0064         160.084         41.1786         176.396 
        1.01868          158.06          40.043         174.454 
        1.03092         155.526         38.9556         172.517 
         1.0432         152.533         37.9048          170.34 
        1.05553         149.952         36.8888         168.375 
        1.06777         149.788         35.9177         166.649 
           1.08          146.24         34.9826         164.434 
        1.09227         144.653         34.0779         162.789 
         1.1046         142.291         33.2019         160.886 
         1.1169         140.423         32.3585         158.705 
        1.12915         138.199         31.5486         157.135 
        1.14142         136.063         30.7649         155.094 
        1.15365         134.248         30.0102         153.461 
        1.16585         132.373         29.2829         151.481 
        1.17807         130.465         28.5789         150.398 
        1.19037         129.853         27.8936         148.805 
        1.20276          127.21         27.2261         146.992 
        1.21504          125.69         26.5859         145.397 
        1.22728         123.205         25.9689         143.669 
        1.23954         122.498         25.3701         142.435 
        1.25184         119.972         24.7892         140.856 
        1.26414         118.412         24.2262         139.394 
        1.27632         117.784         23.6858         138.668 
         1.2886         115.599         23.1581         136.637 
        1.30093         112.877         22.6447         135.182 
        1.31316          112.54         22.1507         133.805 
        1.32541         110.892         21.6713         132.773 
        1.33772         109.702         21.2035         131.348 
        1.35005         108.341         20.7492         129.905 
        1.36225         107.008          20.313         128.742 
        1.37447         104.916         19.8884         127.334 
        1.38676          104.39         19.4741         125.991 
        1.39907         102.039         19.0709         124.919 
        1.41133         100.703         18.6809         123.906 
        1.42358         99.4104         18.3022         122.652 
        1.43591         98.7831         17.9314         121.302 
        1.44818         97.6975          17.573         120.304 
        1.46037         95.8838         17.2265         119.119 
        1.47263         94.5521         16.8874         118.214 
        1.48494         93.7772         16.5562         116.951 
        1.49724         92.2569         16.2342         115.732 
        1.50952         90.8337         15.9214         114.729 
        1.52178         90.0405         15.6173         113.701 
        1.53409         89.0701         15.3199         112.708 
        1.54637         87.2305          15.031         111.679 
        1.55858         86.2823         14.7511         110.614 
        1.57081         85.0783          14.478         109.664 
        1.58313         84.0544         14.2101         108.671 
        1.59544          83.165         13.9491         107.692 
        1.60767         81.9352         13.6964         106.685 
        1.61994         80.8708          13.449         106.003 
        1.63225         79.6775         13.2073         104.719 
        1.64452         78.6308         12.9722         103.902 
        1.65676         77.5321         12.7436         103.012 
          1.669         76.9972         12.5203         102.182 
        1.68133           76.02         12.3009         101.218 
        1.69363         75.0379         12.0875         100.432 
        1.70585         74.1338         11.8804          99.489 
        1.71809         72.8419         11.6779         98.7369 
        1.73038         72.0867         11.4794         97.7802 
        1.74268         70.9718         11.2854         96.9883 
        1.75493         70.4094         11.0968         96.1125 
        1.76714         69.2419          10.913         95.3179 
        1.77942         68.8251         10.7324         94.4816 
        1.79173         67.6384         10.5554         93.6808 
        1.80402          66.912         10.3828         92.9747 
         1.8163         66.0884         10.2142         92.0377 
         1.8286         65.1325          10.049         91.4036 
         1.8409         64.2164         9.88764         90.5903 
        1.85315         63.3166         9.73035         89.9431 
        1.86537         62.7042          9.5768          89.136 
        1.87765         61.9593         9.42599         88.2822 
        1.88995         61.1208         9.27807         87.6559 
        1.90221         60.4872         9.13385         86.9117 
        1.91445         59.3979         8.99293         86.2298 
        1.92674         58.8924         8.85449         85.5309 
        1.93902         58.1676         8.71897          84.768 
        1.95124         57.7306         8.58701         84.2015 
         1.9635         56.6345         8.45744         83.3702 
        1.97583         56.1069         8.32973         82.8275 
        1.98812         55.4143         8.20514         82.0853 
        2.00039          54.636         8.08335         81.4328 
        2.01264         53.9975         7.96415         80.7704 
        2.02492         53.2853         7.84718         80.1564 
        2.03717         52.5816         7.73276         79.4435 
        2.04942         51.9375         7.62077         78.9014 
        2.06171         51.2525         7.51062         78.2085 
        2.07397         50.6151         7.40288         77.6563 
        2.08629         50.0932         7.29682         76.9741 
        2.09857         49.5832         7.19308         76.4142 
        2.11081         48.5071         7.09179         75.7421 
        2.12309         48.2272         6.99221         75.2037 
        2.13538         47.6102          6.8944         74.6029 
        2.14763         47.1188         6.79878         74.0309 
        2.15986          46.467         6.70521         73.4397 
        2.17214         45.8176         6.61301         72.9202 
        2.18443         45.5403         6.52246         72.3375 
        2.19671         44.6889         6.43372         71.7339 
        2.20898         44.3732         6.34673         71.1864 
        2.22126         43.7841         6.26126         70.6154 
        2.23354         43.2032          6.1774         70.1278 
         2.2458         42.7992         6.09521         69.6036 
        2.25807         42.3687         6.01445         69.0197 
        2.27035         41.7839         5.93508         68.5018 
        2.28263         41.2161         5.85719         67.9712 
         2.2949         40.6986         5.78073         67.4762 
        2.30718         40.2874         5.70562         66.9862 
        2.31946         39.7104          5.6318         66.5022 
        2.33169         39.2915         5.55961         65.9794 
        2.34393         38.6829         5.48857         65.4776 
        2.35622         38.4092         5.41855         64.9866 
        2.36847          37.921         5.34994         64.5139 
        2.38076         37.5997         5.28232         64.0323 
        2.39305         37.1193         5.21588         63.5668 
        2.40534         36.7344         5.15059         63.0363 
        2.41762         36.3142         5.08642         62.5644 
        2.42989         35.7462         5.02344         62.1572 
        2.44216         35.5228         4.96154         61.6799 
         2.4544         35.1656         4.90082         61.2356 
        2.46667         34.6023         4.84097         60.7467 
        2.47897         34.2953         4.78199          60.325 
        2.49124          33.853         4.72415         59.8863 
        2.50349         33.4424         4.66735         59.4591 
        2.51578         33.0932         4.61131         59.0496 
        2.52805         32.9614          4.5563         58.5971 
        2.54029          32.528         4.50231         58.1747 
        2.55257         32.0979         4.44904           57.77 
        2.56487          31.768         4.39654         57.3636 
        2.57716         31.4516         4.34495         56.9815 
        2.58942          31.063          4.2943         56.5506 
        2.60167         30.6652         4.24451          56.118 
        2.61395         30.4406         4.19544           55.74 
        2.62624          30.196         4.14708         55.3432 
        2.63849         29.8891         4.09963         54.9557 
        2.65073         29.5435         4.05297         54.5404 
        2.66302          29.256         4.00688         54.1783 
         2.6753         28.9249         3.96153         53.8008 
        2.68756         28.5734         3.91697         53.4065 
        2.69983         28.3537         3.87307         53.0503 
        2.71213          27.998         3.82975         52.6956 
        2.72441         27.8843         3.78717         52.3037 
        2.73665          27.591         3.74534         51.9395 
         2.7489         27.3945         3.70416         51.5881 
        2.76118          27.084         3.66348         51.2215 
        2.77349         26.8693         3.62331         50.8862 
        2.78576         26.6813          3.5839         50.5212 
        2.79802          26.354          3.5451         50.1799 
        2.81031         26.1364         3.50678         49.8486 
        2.82259         25.9196         3.46905          49.489 
        2.83483         25.6745         3.43201         49.1499 
         2.8471         25.4621         3.39544         48.8255 
         2.8594         25.2557          3.3593         48.5116 
         2.8717         24.9862         3.32369         48.1734 
        2.88396         24.8831         3.28873         47.8286 
        2.89619         24.6918         3.25433         47.5107 
        2.90847          24.488          3.2203         47.1953 
        2.92072         24.3844         3.18682         46.8809 
        2.93299         24.2585         3.15379         46.5557 
        2.94526         24.0278          3.1212         46.2601 
        2.95753         23.8626         3.08908         45.9681 
        2.96982         23.8407         3.05736         45.6575 
        2.98209         23.6211         3.02615         45.3559 
        2.99436           23.44         2.99535          45.052 
        3.00666         23.3991         2.96492         44.7554 
        3.01894          23.272         2.93498         44.4437 
        3.03119         23.1013         2.90549         44.1529 
        3.04345         23.0024         2.87641         43.8784 
        3.05573         22.9331         2.84766         43.5954 
          3.068          22.873         2.81934          43.307 
        3.08026         22.7976         2.79143         43.0216 
        3.09254         22.6756         2.76385         42.7491 
        3.10483         22.6976         2.73664         42.4779 
         3.1171         22.5859         2.70983         42.2022 
        3.12933         22.6116         2.68345           41.93 
        3.14159         22.5229         2.65737         41.6568 
