# k  (h/Mpc)    Pcb(k)  (Mpc/h)^3    Pcb_linear(k) (Mpc/h)^3    Pcb_NL(k) (Mpc/h)^3   ShotnoiseSubtracted = false
      0.0156606         24089.3         24235.3         24034.8 
      0.0273761           20621         20951.8         20702.7 
      0.0384619         15579.7         15783.8         15559.4 
      0.0498308         12018.5         12414.5         12187.7 
      0.0625568           10158         10550.5         10350.2 
      0.0751274         9063.35         8963.63         8683.41 
      0.0867833         7011.39         7216.62         7128.85 
      0.0984825         5949.09         5710.97         5785.34 
       0.111151         5101.62         4768.52         4864.22 
       0.123864         4568.75         4297.38         4374.44 
       0.135742         4174.03         3864.39          3941.3 
        0.14762         3641.66         3304.24         3506.47 
       0.160083         3110.52         2754.26         3005.75 
       0.172465         2774.24         2403.94         2724.65 
       0.184281         2507.13         2216.14         2536.06 
       0.196406         2380.07          2046.6         2339.76 
       0.209011         2234.97         1820.95         2123.75 
       0.221538         2009.85         1591.33         1989.23 
       0.233611         1936.81         1423.83         1869.23 
       0.245665         1753.09         1314.14         1728.93 
       0.258103         1747.21         1223.35         1634.28 
       0.270422          1558.9         1124.12         1538.28 
       0.282519         1479.15          1020.2         1461.73 
       0.294636         1446.53         929.512         1387.26 
       0.306978         1329.19         859.954         1331.95 
       0.319417         1309.05         804.007          1256.7 
        0.33169         1228.97         750.454         1192.61 
       0.343948         1184.06         695.339         1157.32 
       0.356249          1126.8         643.651         1116.26 
       0.368458          1077.8         600.358         1070.18 
        0.38068          1066.2         564.153         1031.49 
       0.392856         1015.37         531.103         997.633 
       0.405069         960.647         498.787          964.27 
       0.417459         924.411         467.496         934.187 
       0.429752         926.062         439.407         902.091 
       0.441978         893.774         414.754         880.365 
       0.454294         856.756         392.367          845.88 
        0.46658         833.172         371.362          829.39 
       0.478753         819.547         351.546         805.585 
       0.490964         789.591         332.932          781.75 
       0.503334         757.308         315.751         765.703 
       0.515665         753.881         300.085         748.124 
       0.527909         722.044         285.622         734.059 
       0.540159         706.574         271.939         716.829 
        0.55248         691.958         258.956         698.892 
       0.564743         685.581         246.934          687.15 
        0.57686         665.694         235.885         669.751 
       0.589077          657.56         225.455         655.727 
       0.601441         639.307         215.537         643.677 
        0.61382         620.884         206.186         632.225 
       0.626067         615.589         197.461          621.36 
       0.638306         593.727         189.244         608.683 
       0.650632         588.311         181.458         595.542 
       0.662899         583.815         174.163         587.977 
       0.675076         567.503         167.326         580.785 
       0.687267         550.797         160.847         567.552 
       0.699615          551.31         154.631         558.585 
       0.711937         537.683         148.754         547.936 
       0.724148         521.557         143.232         541.247 
       0.736433         510.077         137.964         532.046 
       0.748747         503.896         132.953         522.984 
       0.761037         495.446         128.202         517.038 
       0.773197         486.676         123.733         508.101 
       0.785376         482.276         119.472         501.034 
       0.797761         468.142         115.346         494.398 
       0.810096         460.856         111.431         487.874 
       0.822371         450.912         107.716         480.192 
       0.834626         445.786         104.178         474.992 
       0.846916         440.696          100.79         467.619 
       0.859215         433.728         97.5523         460.708 
       0.871383         424.972         94.4894          454.82 
        0.88363         418.712         91.5405         450.282 
       0.895928         414.143         88.7068         443.469 
       0.908253         404.428         85.9883         436.079 
       0.920535         394.593         83.3936         431.903 
       0.932774          389.96         80.9153         425.178 
        0.94508         384.252         78.5259         421.176 
       0.957324         378.666          76.245         415.583 
        0.96953         374.064         74.0622         410.547 
       0.981769         365.798         71.9597         405.971 
       0.994071         364.667         69.9293          401.16 
         1.0064         358.258          67.974         395.369 
        1.01868         353.774         66.0995         390.494 
        1.03092         343.994         64.3045         387.119 
         1.0432         340.697         62.5699         382.457 
        1.05553         337.563         60.8929         377.162 
        1.06777         332.384         59.2897         372.766 
           1.08          325.16         57.7462         368.697 
        1.09227         325.071         56.2528         364.336 
         1.1046         318.026         54.8069         361.061 
         1.1169         312.314         53.4146         356.352 
        1.12915         307.319         52.0777         352.514 
        1.14142         301.428         50.7839          348.53 
        1.15365          297.92         49.5382           344.9 
        1.16585         293.638         48.3377         341.109 
        1.17807         290.735         47.1756         337.166 
        1.19037         284.653         46.0443         334.293 
        1.20276         282.273         44.9425         329.998 
        1.21504          276.79         43.8856         326.273 
        1.22728         272.693         42.8672         323.125 
        1.23954         270.924         41.8788          319.46 
        1.25184         264.869         40.9198         316.167 
        1.26414          260.19         39.9905         313.188 
        1.27632         257.074         39.0984         310.233 
         1.2886         254.237         38.2274         306.811 
        1.30093         249.335         37.3799         302.812 
        1.31316         244.404         36.5644         300.199 
        1.32541         243.188         35.7731          296.74 
        1.33772         238.528         35.0009         294.193 
        1.35005         235.714          34.251         290.852 
        1.36225         231.557         33.5308          288.15 
        1.37447         227.739           32.83         284.786 
        1.38676         225.602         32.1461          282.74 
        1.39907         222.341         31.4806         279.245 
        1.41133         218.278         30.8368         276.292 
        1.42358         215.423         30.2117          273.72 
        1.43591         212.438         29.5996         271.335 
        1.44818          208.47         29.0079         268.366 
        1.46037         206.825          28.436         265.519 
        1.47263          203.15         27.8763         262.819 
        1.48494         201.703         27.3296         259.773 
        1.49724         197.663          26.798         258.207 
        1.50952         194.678         26.2816         254.982 
        1.52178          191.76         25.7797         252.766 
        1.53409         188.954         25.2888         250.265 
        1.54637         185.831         24.8118         248.213 
        1.55858         183.804         24.3498         245.651 
        1.57081         180.755          23.899         243.104 
        1.58313         178.726         23.4567         240.666 
        1.59544         175.323         23.0259         238.538 
        1.60767          173.98         22.6088         236.444 
        1.61994         170.854         22.2005         233.964 
        1.63225          168.13         21.8015         231.608 
        1.64452         165.455         21.4134         229.566 
        1.65676         163.532         21.0359         227.648 
          1.669         161.606         20.6673         225.258 
        1.68133         158.407         20.3053         223.198 
        1.69363         155.836         19.9529         221.414 
        1.70585         153.551         19.6112         219.257 
        1.71809         151.505         19.2768          216.96 
        1.73038         149.223         18.9492         215.084 
        1.74268         147.985         18.6289             213 
        1.75493         145.197         18.3176         211.303 
        1.76714         144.071         18.0142         209.412 
        1.77942         141.393         17.7161         207.569 
        1.79173         139.596          17.424         205.488 
        1.80402         137.397         17.1391         203.673 
         1.8163         135.236         16.8607         202.073 
         1.8286         133.189          16.588         200.098 
         1.8409         131.446         16.3217         198.244 
        1.85315         129.166          16.062         196.596 
        1.86537         127.704         15.8085         194.909 
        1.87765         126.141         15.5596         193.234 
        1.88995         124.138         15.3154         191.399 
        1.90221         122.557         15.0774         189.904 
        1.91445         120.637         14.8447         188.137 
        1.92674          118.62         14.6162         186.416 
        1.93902         117.305         14.3925         184.738 
        1.95124         115.611         14.1747         183.204 
         1.9635         113.863         13.9608         181.615 
        1.97583         112.211           13.75         179.963 
        1.98812         110.546         13.5443         178.746 
        2.00039         109.393         13.3433             177 
        2.01264         107.989         13.1465         175.533 
        2.02492          106.12         12.9534         173.925 
        2.03717         104.771         12.7646         172.574 
        2.04942         103.406         12.5797         171.052 
        2.06171         101.769         12.3979         169.501 
        2.07397         100.304           12.22         168.252 
        2.08629         98.8656         12.0449         166.799 
        2.09857         97.7108         11.8737         165.465 
        2.11081         96.2273         11.7065         163.948 
        2.12309         94.9635         11.5421         162.658 
        2.13538         93.4998         11.3807          161.28 
        2.14763         92.0607         11.2228         159.941 
        2.15986         91.2019         11.0684          158.51 
        2.17214         89.8684         10.9162         157.362 
        2.18443         88.9259         10.7667         156.159 
        2.19671         87.7705         10.6202          154.79 
        2.20898         86.4057         10.4766         153.403 
        2.22126         85.3152         10.3355         152.279 
        2.23354           84.17         10.1971         151.112 
         2.2458          82.503         10.0614         149.783 
        2.25807           81.97         9.92813         148.606 
        2.27035         80.7884         9.79712          147.43 
        2.28263         79.7611         9.66854         146.303 
         2.2949         78.4959         9.54232         145.147 
        2.30718         77.2565         9.41833          143.95 
        2.31946         76.4194         9.29648          142.72 
        2.33169         75.2974         9.17731         141.655 
        2.34393         74.3992         9.06005         140.681 
        2.35622         73.4011         8.94446         139.448 
        2.36847         72.4415         8.83121         138.462 
        2.38076         71.2292         8.71959          137.31 
        2.39305         70.6374         8.60992         136.319 
        2.40534         69.4765         8.50214          135.19 
        2.41762         68.8945         8.39621         134.139 
        2.42989         67.6944         8.29226         133.137 
        2.44216         67.0917         8.19007         132.049 
         2.4544         66.3367         8.08984          131.11 
        2.46667         65.1484         7.99105         130.114 
        2.47897         64.7173         7.89368         129.015 
        2.49124         63.8197         7.79821         128.047 
        2.50349         62.6916         7.70445         127.116 
        2.51578          62.254         7.61195         126.221 
        2.52805         61.2287         7.52113         125.208 
        2.54029         60.6773         7.43202         124.272 
        2.55257         59.9276         7.34409         123.388 
        2.56487         59.3926         7.25742         122.475 
        2.57716         58.7045         7.17226          121.55 
        2.58942         57.8898         7.08866         120.668 
        2.60167           57.14         7.00647         119.808 
        2.61395         56.6588         6.92547         118.889 
        2.62624         55.9112         6.84563         117.961 
        2.63849         55.2331         6.76731         117.159 
        2.65073         54.4597         6.69029         116.264 
        2.66302         53.9909          6.6142         115.461 
         2.6753         53.2506         6.53934         114.632 
        2.68756         52.8311         6.46579         113.774 
        2.69983         52.2788         6.39332         112.954 
        2.71213         51.7092         6.32181         112.148 
        2.72441         51.1691         6.25152         111.324 
        2.73665         50.5653         6.18247         110.556 
         2.7489         50.0973          6.1145         109.784 
        2.76118         49.6338         6.04735         108.971 
        2.77349         49.1514         5.98104         108.219 
        2.78576         48.6447         5.91599          107.44 
        2.79802         48.2151         5.85194         106.736 
        2.81031         47.6996         5.78869         105.976 
        2.82259         47.2185          5.7264          105.18 
        2.83483         46.7184         5.66526          104.49 
         2.8471          46.229          5.6049         103.743 
         2.8594         45.8234         5.54523         103.021 
         2.8717         45.4712         5.48645         102.348 
        2.88396         44.9712         5.42874         101.641 
        2.89619         44.7506         5.37197          100.91 
        2.90847         44.2976         5.31579         100.171 
        2.92072         43.8846         5.26052         99.5585 
        2.93299          43.631           5.206         98.8895 
        2.94526          43.294          5.1522         98.1817 
        2.95753         43.0224         5.09918         97.5202 
        2.96982         42.5239         5.04682         96.8864 
        2.98209         42.2638          4.9953         96.2178 
        2.99436          42.112         4.94446         95.5465 
        3.00666         41.8459         4.89423         94.9061 
        3.01894         41.5669          4.8448         94.2773 
        3.03119         41.2994         4.79613         93.6783 
        3.04345         41.0508         4.74812         93.0701 
        3.05573         41.0185         4.70067          92.442 
          3.068         40.6638         4.65392         91.8372 
        3.08026         40.4248         4.60785         91.2293 
        3.09254         40.4776         4.56233         90.6357 
        3.10483         40.2256          4.5174         90.0444 
         3.1171         40.1081         4.47315         89.4445 
        3.12933         39.9659         4.42961         88.8534 
        3.14159         39.8531         4.38655         88.2726 
