# k  (h/Mpc)    Pcb(k)  (Mpc/h)^3    Pcb_linear(k) (Mpc/h)^3    Pcb_NL(k) (Mpc/h)^3   ShotnoiseSubtracted = false
      0.0156606         10690.9         10720.8         10655.1 
      0.0273761         9223.79         9271.78         9215.02 
      0.0384619         6999.89          6986.1         6943.57 
      0.0498308          5443.4          5495.4         5455.36 
      0.0625568         4594.71         4670.61         4632.66 
      0.0751274         4046.61         3968.29         3912.55 
      0.0867833          3164.1         3194.96         3180.61 
      0.0984825         2622.39         2528.43         2550.26 
       0.111151         2218.53         2111.21         2134.63 
       0.123864         1991.95         1902.64         1922.27 
       0.135742         1801.37         1710.95         1731.12 
        0.14762         1548.24         1462.95         1513.94 
       0.160083         1291.55         1219.46         1279.02 
       0.172465         1150.03         1064.36         1138.69 
       0.184281         1058.82         981.212         1058.46 
       0.196406         973.787         906.148         970.339 
       0.209011         895.233         806.241         875.064 
       0.221538         806.533          704.58         800.221 
       0.233611         749.114         630.416         737.826 
       0.245665         693.717          581.85         678.757 
       0.258103         653.054         541.653         637.945 
       0.270422         596.357         497.716         593.747 
       0.282519         548.702         451.706         552.541 
       0.294636         542.914         411.554         517.505 
       0.306978         483.201         380.757         490.835 
       0.319417         465.023         355.986         461.517 
        0.33169         437.124         332.275         434.147 
       0.343948         416.685         307.872         415.517 
       0.356249         389.781         284.986         396.677 
       0.368458         377.759         265.818          373.96 
        0.38068         361.087         249.787          356.71 
       0.392856         338.305         235.154         341.768 
       0.405069         324.769         220.846         329.396 
       0.417459         310.235         206.991         312.158 
       0.429752         299.526         194.555         300.278 
       0.441978         289.572         183.639         290.771 
       0.454294          271.12         173.727         277.122 
        0.46658          269.94         164.427         269.015 
       0.478753         257.419         155.653         259.375 
       0.490964         248.994         147.411         250.039 
       0.503334         235.138         139.804         242.553 
       0.515665         231.964         132.867         236.772 
       0.527909         224.929         126.464         228.143 
       0.540159         218.247         120.406         221.563 
        0.55248         213.557         114.657          214.66 
       0.564743         207.733         109.334         209.757 
        0.57686         200.537         104.442         203.071 
       0.589077         192.354          99.824         198.597 
       0.601441         189.107         95.4329         193.661 
        0.61382          187.07         91.2926         188.604 
       0.626067         181.559         87.4291         184.009 
       0.638306         173.583         83.7909         180.132 
       0.650632         168.557         80.3439          174.22 
       0.662899         168.594         77.1137          170.98 
       0.675076          162.52         74.0865         167.056 
       0.687267         158.359          71.218         163.373 
       0.699615         154.885         68.4654         160.044 
       0.711937         150.947         65.8634         156.538 
       0.724148         148.545         63.4187         154.278 
       0.736433          144.57          61.086         150.576 
       0.748747         141.345         58.8671         147.449 
       0.761037         139.089         56.7638         144.274 
       0.773197         136.115         54.7851         142.661 
       0.785376          134.23         52.8984         139.296 
       0.797761         131.766         51.0714         137.481 
       0.810096         128.126         49.3379         134.664 
       0.822371         124.541         47.6933          132.36 
       0.834626         122.622         46.1267         130.078 
       0.846916          121.38         44.6268         128.057 
       0.859215         119.488          43.193          125.81 
       0.871383         117.352         41.8369         123.697 
        0.88363          114.81         40.5312         122.171 
       0.895928         112.632         39.2765         120.402 
       0.908253         109.659         38.0729         118.176 
       0.920535         109.125          36.924         116.651 
       0.932774         106.206         35.8267         114.603 
        0.94508         105.249         34.7687         113.015 
       0.957324         103.596         33.7589         111.482 
        0.96953         103.361         32.7924         109.619 
       0.981769         99.9871         31.8615         108.568 
       0.994071         99.1694         30.9624         106.984 
         1.0064         96.8567         30.0967          105.43 
        1.01868         96.0136         29.2668         104.169 
        1.03092         94.1819          28.472         102.822 
         1.0432          92.604          27.704         101.423 
        1.05553         90.2678         26.9614         100.473 
        1.06777         90.1455         26.2516         99.2335 
           1.08         88.3772         25.5682         97.9111 
        1.09227         87.0227         24.9069         96.6185 
         1.1046         85.5381         24.2667          95.453 
         1.1169         84.5511         23.6503         94.1165 
        1.12915         83.4485         23.0583         93.1531 
        1.14142         81.9311         22.4855         92.0057 
        1.15365         80.3294         21.9339         90.9578 
        1.16585         79.3835         21.4024         89.8484 
        1.17807         78.1662         20.8879         88.9713 
        1.19037         78.0541         20.3869         88.0609 
        1.20276         76.3622         19.8991           87.03 
        1.21504          75.851         19.4311         85.9779 
        1.22728         74.1747         18.9802         85.1303 
        1.23954         73.5384         18.5426         84.0974 
        1.25184         72.1885          18.118         83.3483 
        1.26414         71.1142         17.7065         82.4465 
        1.27632         70.4424         17.3115         81.7831 
         1.2886         69.4313         16.9259         80.6803 
        1.30093         68.5169         16.5506         79.7343 
        1.31316         67.6625         16.1895         79.1908 
        1.32541         67.1242         15.8392         78.3461 
        1.33772         66.0133         15.4973         77.5329 
        1.35005         65.4076         15.1653         76.7925 
        1.36225         64.3343         14.8464          76.009 
        1.37447         62.8889         14.5361         75.2102 
        1.38676         62.9926         14.2333          74.422 
        1.39907         61.8736         13.9386         73.8767 
        1.41133         60.7354         13.6535         73.2944 
        1.42358         60.0303         13.3768         72.3727 
        1.43591         59.6157         13.1058         71.7791 
        1.44818         58.7479         12.8438         70.9853 
        1.46037         58.0886         12.5905         70.4788 
        1.47263         57.3043         12.3427         69.9046 
        1.48494         56.4937         12.1007         69.1756 
        1.49724         55.7462         11.8653         68.5093 
        1.50952         55.4013         11.6367          67.853 
        1.52178         54.6269         11.4144         67.3393 
        1.53409         54.1151         11.1971         66.7549 
        1.54637         52.9184         10.9859         66.1062 
        1.55858         52.2636         10.7813         65.4619 
        1.57081         51.9697         10.5817         65.0225 
        1.58313         51.1972         10.3859         64.4902 
        1.59544         50.4679         10.1952         63.8415 
        1.60767         49.9121         10.0104          63.314 
        1.61994         49.1402         9.82967         62.8254 
        1.63225         48.6819         9.65299         62.1852 
        1.64452         48.1575         9.48116         61.7426 
        1.65676         47.4444         9.31405         61.1553 
          1.669         47.0975         9.15085         60.7266 
        1.68133         46.6461         8.99053          60.148 
        1.69363         45.8509         8.83452         59.7179 
        1.70585         45.5874         8.68322         59.2557 
        1.71809         44.6852         8.53516         58.7193 
        1.73038         44.4262         8.39008         58.2888 
        1.74268         43.7151          8.2483         57.7491 
        1.75493         43.2886         8.11044         57.2971 
        1.76714         42.7327          7.9761          56.835 
        1.77942         42.4797         7.84411         56.4022 
        1.79173         41.7993         7.71478         55.8926 
        1.80402         41.3848         7.58864          55.546 
         1.8163         40.8858         7.46538         54.9962 
         1.8286         40.3505         7.34466         54.6791 
         1.8409         39.8759         7.22671         54.1415 
        1.85315         39.4743         7.11175          53.839 
        1.86537         38.9839         6.99952         53.4078 
        1.87765         38.6687          6.8893         52.9356 
        1.88995         38.0785         6.78119         52.4741 
        1.90221         37.7947         6.67577         52.0813 
        1.91445           37.16         6.57278         51.7488 
        1.92674         36.8511          6.4716         51.2987 
        1.93902          36.469         6.37255         50.9127 
        1.95124         35.9981          6.2761         50.5854 
         1.9635         35.5306          6.1814         50.1619 
        1.97583         35.2138         6.08806         49.8458 
        1.98812         34.6781           5.997         49.4243 
        2.00039         34.3615         5.90799         49.0425 
        2.01264         33.8839         5.82086         48.7304 
        2.02492         33.6081         5.73537         48.3592 
        2.03717         33.1523         5.65174          47.966 
        2.04942         32.7953         5.56989         47.6093 
        2.06171         32.4593         5.48938         47.2468 
        2.07397         32.0973         5.41064         46.9218 
        2.08629          31.719         5.33312          46.567 
        2.09857         31.4143          5.2573         46.2536 
        2.11081         30.9928         5.18327         45.8919 
        2.12309          30.761         5.11049         45.5453 
        2.13538         30.2248           5.039         45.2746 
        2.14763         30.0203         4.96912         44.9194 
        2.15986         29.7545         4.90072         44.5692 
        2.17214         29.3371         4.83334         44.3062 
        2.18443         29.0292         4.76716         43.9189 
        2.19671         28.6428          4.7023         43.6247 
        2.20898         28.2957         4.63872         43.2965 
        2.22126         28.2042         4.57625           42.98 
        2.23354         27.8157         4.51496         42.7342 
         2.2458         27.4843         4.45489         42.4053 
        2.25807         27.0898         4.39586         42.0873 
        2.27035         26.8101         4.33785         41.8161 
        2.28263         26.5551         4.28092         41.5331 
         2.2949         26.3033         4.22504          41.241 
        2.30718         26.0499         4.17014         40.9247 
        2.31946         25.8057         4.11619         40.6467 
        2.33169         25.4949         4.06342         40.3637 
        2.34393         25.1847          4.0115         40.0631 
        2.35622         24.9192         3.96032         39.8392 
        2.36847         24.6433         3.91018         39.5161 
        2.38076         24.4376         3.86076         39.2893 
        2.39305         24.1112          3.8122         39.0266 
        2.40534         23.9225         3.76448         38.7039 
        2.41762         23.6082         3.71758         38.4816 
        2.42989          23.502         3.67155         38.1896 
        2.44216         23.1697          3.6263         37.9533 
         2.4544         22.9809         3.58192         37.6985 
        2.46667         22.7187         3.53819         37.4382 
        2.47897         22.4654         3.49507         37.1857 
        2.49124         22.3059          3.4528         36.9369 
        2.50349         22.0273         3.41129         36.7016 
        2.51578         21.7714         3.37033         36.4607 
        2.52805         21.6027         3.33012         36.2041 
        2.54029         21.4222         3.29066           35.96 
        2.55257         21.2421         3.25173         35.7148 
        2.56487         20.9752         3.21335         35.4865 
        2.57716         20.8308         3.17565         35.2312 
        2.58942           20.61         3.13863         35.0317 
        2.60167         20.4147         3.10224         34.7877 
        2.61395         20.2254         3.06638         34.5549 
        2.62624         20.1113         3.03103         34.3325 
        2.63849         19.9076         2.99635         34.1141 
        2.65073         19.6523         2.96225         33.8769 
        2.66302         19.4462         2.92856         33.6728 
         2.6753         19.3764         2.89541         33.4575 
        2.68756         19.2523         2.86285          33.263 
        2.69983          19.046         2.83076         33.0093 
        2.71213         18.8351          2.7991         32.8027 
        2.72441         18.7194         2.76798         32.5786 
        2.73665         18.5677          2.7374          32.367 
         2.7489         18.3632         2.70731          32.168 
        2.76118          18.269         2.67757         31.9463 
        2.77349         18.1556         2.64821         31.7577 
        2.78576          17.938         2.61941         31.5702 
        2.79802         17.8199         2.59105         31.3575 
        2.81031         17.7093         2.56305         31.1663 
        2.82259          17.617         2.53547         30.9749 
        2.83483         17.4298          2.5084          30.766 
         2.8471         17.3841         2.48167         30.5564 
         2.8594         17.2345         2.45525         30.3675 
         2.8717         17.1255         2.42923         30.1738 
        2.88396          16.966         2.40368         29.9777 
        2.89619         16.9287         2.37854         29.7983 
        2.90847         16.8264         2.35367         29.6163 
        2.92072          16.693         2.32919         29.4272 
        2.93299         16.6234         2.30505         29.2602 
        2.94526         16.5696         2.28123         29.0774 
        2.95753         16.4984         2.25776         28.8866 
        2.96982         16.3901         2.23457         28.7126 
        2.98209         16.2884         2.21176         28.5404 
        2.99436         16.2498         2.18925         28.3621 
        3.00666         16.1505         2.16701         28.1811 
        3.01894         16.1125         2.14513         28.0072 
        3.03119         16.0005         2.12357         27.8356 
        3.04345         16.0209         2.10232         27.6679 
        3.05573         15.9969         2.08131         27.5003 
          3.068         15.8812         2.06061         27.3259 
        3.08026         15.8716         2.04021         27.1577 
        3.09254         15.8049         2.02005         26.9957 
        3.10483         15.7965         2.00016         26.8359 
         3.1171         15.8376         1.98057         26.6784 
        3.12933         15.7701         1.96129         26.5186 
        3.14159         15.6862         1.94223         26.3487 
