# k  (h/Mpc)    Pcb(k)  (Mpc/h)^3    Pcb_linear(k) (Mpc/h)^3    Pcb_NL(k) (Mpc/h)^3   ShotnoiseSubtracted = false
      0.0156606           13558         13605.7         13515.8 
      0.0273761         11675.2         11765.6         11677.7 
      0.0384619         8853.13         8864.69         8793.76 
      0.0498308         6870.45         6972.95         6904.04 
      0.0625568          5800.9         5926.29         5862.76 
      0.0751274         5128.32          5035.1         4943.61 
      0.0867833         3997.51         4053.85         4028.23 
      0.0984825         3332.66         3208.12         3239.51 
       0.111151         2828.58         2678.73          2713.8 
       0.123864         2538.48         2414.09         2443.17 
       0.135742         2300.56         2170.87         2200.57 
        0.14762         1985.49          1856.2         1933.48 
       0.160083          1663.2         1547.25         1639.14 
       0.172465         1482.67         1350.46         1466.09 
       0.184281         1359.47         1244.96         1363.68 
       0.196406         1258.05         1149.72         1251.11 
       0.209011         1162.88         1022.96         1130.12 
       0.221538         1049.02          893.97         1041.46 
       0.233611         984.094         799.871         965.747 
       0.245665         904.366         738.251         889.007 
       0.258103         866.101         687.248         836.846 
       0.270422         783.055         631.501         781.331 
       0.282519         726.059         573.123         730.869 
       0.294636         719.506         522.179         687.401 
       0.306978         644.708         483.103         654.475 
       0.319417         623.124         451.674         615.859 
        0.33169         587.055         421.589         580.287 
       0.343948         559.509         390.627         558.551 
       0.356249         525.351          361.59         534.889 
       0.368458         509.724         337.268          506.14 
        0.38068          490.67         316.929         484.123 
       0.392856         461.605         298.363         464.735 
       0.405069         442.761         280.208         449.786 
       0.417459         424.061          262.63         427.916 
       0.429752         411.686          246.85         412.256 
       0.441978         398.298         233.001          400.07 
       0.454294          375.47         220.424         382.275 
        0.46658         370.488         208.624         372.414 
       0.478753         357.233         197.491         359.629 
       0.490964         344.732         187.035         347.434 
       0.503334         325.432         177.383         337.872 
       0.515665         323.454         168.582          330.37 
       0.527909         312.684         160.457         320.182 
       0.540159         304.521          152.77         311.064 
        0.55248         298.606         145.476         302.204 
       0.564743         292.608         138.723         296.126 
        0.57686         281.621         132.516         287.204 
       0.589077         271.096         126.656         280.957 
       0.601441         267.904         121.085         274.347 
        0.61382         264.284         115.832         268.424 
       0.626067         258.776          110.93         262.314 
       0.638306         246.941         106.313         257.233 
       0.650632         241.675          101.94         249.442 
       0.662899         240.591         97.8415         245.815 
       0.675076         231.556         94.0005          240.67 
       0.687267         225.746          90.361         235.286 
       0.699615         221.898         86.8686         230.895 
       0.711937         217.551         83.5672         226.594 
       0.724148         212.304         80.4653         223.194 
       0.736433           207.7         77.5055         218.364 
       0.748747          203.62         74.6903         214.067 
       0.761037         200.445         72.0216         210.185 
       0.773197         196.986          69.511         207.607 
       0.785376         194.718         67.1172         203.362 
       0.797761         190.177         64.7991         200.654 
       0.810096         186.931         62.5996         197.276 
       0.822371         180.152          60.513          193.99 
       0.834626         179.075         58.5253         190.836 
       0.846916         176.287         56.6222         188.054 
       0.859215         175.178         54.8031         185.194 
       0.871383         170.908         53.0824         182.157 
        0.88363          168.72         51.4257         180.187 
       0.895928         165.075         49.8338         177.521 
       0.908253         160.586         48.3067          174.39 
       0.920535         160.046          46.849         172.104 
       0.932774         154.816         45.4567         169.507 
        0.94508         153.656         44.1144         167.625 
       0.957324         152.907         42.8331         165.094 
        0.96953         151.279         41.6068         162.539 
       0.981769         146.604         40.4256         161.093 
       0.994071         145.919          39.285         158.898 
         1.0064         142.362         38.1865         156.487 
        1.01868         140.729         37.1335         154.778 
        1.03092         138.506         36.1251         152.997 
         1.0432          135.94         35.1506         151.037 
        1.05553         133.375         34.2085          149.38 
        1.06777         133.168         33.3079         147.804 
           1.08         130.223         32.4407         145.822 
        1.09227         128.788         31.6018         144.346 
         1.1046          126.61         30.7895         142.593 
         1.1169         125.082         30.0073         140.671 
        1.12915         123.089         29.2563         139.229 
        1.14142         121.233         28.5295          137.44 
        1.15365         119.383         27.8296         135.976 
        1.16585         117.797         27.1552         134.264 
        1.17807         115.999         26.5024          133.27 
        1.19037          115.63         25.8668         131.848 
        1.20276         113.134         25.2479         130.249 
        1.21504         112.057         24.6541         128.803 
        1.22728         109.775          24.082         127.353 
        1.23954         109.041         23.5267         126.139 
        1.25184         106.726          22.988         124.796 
        1.26414         105.484         22.4659         123.523 
        1.27632         104.693         21.9648         122.861 
         1.2886          102.79         21.4755         121.035 
        1.30093         100.771         20.9994         119.737 
        1.31316         100.277         20.5412         118.615 
        1.32541         98.9423         20.0967         117.639 
        1.33772         97.7235         19.6629         116.397 
        1.35005          96.641         19.2416         115.149 
        1.36225         95.3678          18.837         114.098 
        1.37447         93.4079         18.4433         112.866 
        1.38676         93.1811         18.0591          111.64 
        1.39907          91.116         17.6852          110.76 
        1.41133         89.8183         17.3235         109.874 
        1.42358         88.7996         16.9724         108.683 
        1.43591         88.2081         16.6285         107.547 
        1.44818         87.1186         16.2961         106.627 
        1.46037         85.6919         15.9748         105.638 
        1.47263          84.319         15.6604         104.817 
        1.48494         83.7855         15.3533         103.737 
        1.49724         82.3379         15.0546         102.636 
        1.50952         81.2977         14.7645         101.732 
        1.52178         80.4103         14.4825         100.874 
        1.53409         79.7269         14.2068         99.9879 
        1.54637         77.8362         13.9388         99.0486 
        1.55858         77.1447         13.6793         98.1201 
        1.57081         76.2018          13.426         97.3036 
        1.58313         75.1444         13.1776         96.4498 
        1.59544         74.3458         12.9356         95.5534 
        1.60767         73.3937         12.7012         94.6998 
        1.61994         72.4514         12.4718         94.0818 
        1.63225         71.3584         12.2477         92.9635 
        1.64452         70.5378         12.0296         92.2736 
        1.65676         69.4853         11.8176         91.4482 
          1.669         69.0201         11.6105         90.7105 
        1.68133         68.2568         11.4071         89.8715 
        1.69363         67.2104         11.2092         89.2052 
        1.70585         66.6026         11.0172         88.3699 
        1.71809         65.2848         10.8294         87.7429 
        1.73038         64.6039         10.6453         86.8767 
        1.74268          63.711         10.4654         86.1966 
        1.75493         63.1452         10.2905         85.4233 
        1.76714         62.2167           10.12         84.7014 
        1.77942         61.8829         9.95257         83.9959 
        1.79173         60.7965         9.78847         83.2508 
        1.80402         60.1487         9.62842         82.6512 
         1.8163         59.4389         9.47203         81.8428 
         1.8286         58.5502         9.31886         81.3132 
         1.8409         57.6772         9.16921          80.561 
        1.85315         56.9662         9.02335          80.031 
        1.86537         56.4161         8.88095         79.3059 
        1.87765          55.721          8.7411         78.5456 
        1.88995         55.0452         8.60393         77.9792 
        1.90221         54.5685         8.47018         77.3339 
        1.91445         53.6543          8.3395         76.7599 
        1.92674         53.1547         8.21113         76.1254 
        1.93902         52.5015         8.08545         75.4609 
        1.95124         52.0946         7.96308         74.9757 
         1.9635         51.1147         7.84292         74.2567 
        1.97583         50.6247         7.72449         73.7708 
        1.98812         49.9282         7.60896         73.1125 
        2.00039         49.4469         7.49602          72.535 
        2.01264         48.6779         7.38548         71.9766 
        2.02492          48.171         7.27701         71.4369 
        2.03717         47.5258          7.1709         70.8054 
        2.04942          46.931         7.06705         70.3254 
        2.06171         46.3776          6.9649         69.6993 
        2.07397         45.7444         6.86499         69.2288 
        2.08629         45.2534         6.76663         68.6227 
        2.09857         44.9012         6.67043         68.1511 
        2.11081         44.0152          6.5765          67.558 
        2.12309         43.6662         6.48416         67.0651 
        2.13538         43.1517         6.39345         66.5595 
        2.14763         42.7487         6.30478         66.0542 
        2.15986         42.3799         6.21801         65.5287 
        2.17214         41.6183         6.13251         65.1025 
        2.18443         41.4331         6.04854         64.5477 
        2.19671         40.6697         5.96625         64.0263 
        2.20898         40.2678         5.88558         63.5401 
        2.22126         39.8527         5.80632          63.049 
        2.23354         39.3216         5.72855          62.633 
         2.2458         38.9975         5.65234         62.1539 
        2.25807         38.4667         5.57744         61.6466 
        2.27035         38.0139         5.50384         61.1968 
        2.28263         37.5352         5.43161         60.7395 
         2.2949         37.0364          5.3607         60.3024 
        2.30718         36.7341         5.29105         59.8632 
        2.31946          36.234         5.22259          59.436 
        2.33169         35.8971         5.15565         58.9696 
        2.34393         35.3463         5.08977         58.5206 
        2.35622           35.03         5.02484         58.1073 
        2.36847         34.5906         4.96122         57.6645 
        2.38076         34.3803         4.89851         57.2703 
        2.39305         33.9509          4.8369         56.8545 
        2.40534         33.5804         4.77635         56.3712 
        2.41762         33.1833         4.71684         55.9686 
        2.42989         32.7298         4.65844         55.6073 
        2.44216         32.4872         4.60103         55.1861 
         2.4544         32.1822         4.54472         54.8038 
        2.46667         31.6172         4.48923         54.3688 
        2.47897         31.4059         4.43453         54.0015 
        2.49124         31.0373         4.38089         53.6044 
        2.50349          30.678         4.32822         53.2482 
        2.51578         30.3174         4.27625         52.8756 
        2.52805         30.1109         4.22524         52.4713 
        2.54029         29.8689         4.17518         52.1091 
        2.55257         29.4754         4.12578         51.7493 
        2.56487         29.1968         4.07708         51.3832 
        2.57716         28.9176         4.02924         51.0423 
        2.58942         28.5319         3.98228         50.6738 
        2.60167         28.2092         3.93611         50.2807 
        2.61395         27.9719          3.8906         49.9489 
        2.62624         27.7054         3.84575         49.6059 
        2.63849         27.4841         3.80175         49.2571 
        2.65073         27.1675         3.75848         48.8921 
        2.66302         26.8424         3.71574         48.5806 
         2.6753         26.6024         3.67368         48.2408 
        2.68756         26.3152         3.63236         47.9053 
        2.69983         26.1286         3.59165          47.576 
        2.71213         25.7743         3.55148         47.2619 
        2.72441          25.667         3.51199         46.9132 
        2.73665         25.3892          3.4732         46.5961 
         2.7489         25.2083         3.43502         46.2853 
        2.76118         24.9691         3.39729          45.947 
        2.77349         24.7613         3.36004          45.661 
        2.78576         24.5846          3.3235         45.3418 
        2.79802         24.2552         3.28751          45.033 
        2.81031         24.1016         3.25198         44.7454 
        2.82259         23.9236         3.21699         44.4274 
        2.83483         23.6689         3.18264         44.1233 
         2.8471         23.5827         3.14873         43.8327 
         2.8594          23.316         3.11521          43.555 
         2.8717         23.0915         3.08219         43.2533 
        2.88396         22.9992         3.04977         42.9506 
        2.89619         22.8647         3.01788         42.6704 
        2.90847         22.6823         2.98632         42.3834 
        2.92072         22.5156         2.95526         42.1197 
        2.93299         22.4362         2.92464         41.8302 
        2.94526         22.2815         2.89441         41.5607 
        2.95753         22.0909         2.86463         41.3013 
        2.96982         22.0757         2.83521         41.0258 
        2.98209         21.8629         2.80627         40.7588 
        2.99436          21.777         2.77771         40.4947 
        3.00666         21.6298         2.74949         40.2282 
        3.01894         21.5831         2.72172         39.9527 
        3.03119         21.4026         2.69438         39.6876 
        3.04345         21.3129         2.66741         39.4402 
        3.05573         21.2386         2.64075         39.1924 
          3.068          21.211         2.61449         38.9312 
        3.08026         21.2046         2.58861          38.678 
        3.09254         21.0672         2.56303         38.4401 
        3.10483         21.0566          2.5378            38.2 
         3.1171         20.9783         2.51293         37.9536 
        3.12933         20.9564         2.48847          37.711 
        3.14159         20.9485         2.46429         37.4663 
