# k  (h/Mpc)    Pcb(k)  (Mpc/h)^3    Pcb_linear(k) (Mpc/h)^3    Pcb_NL(k) (Mpc/h)^3   ShotnoiseSubtracted = false
      0.0156606         11465.1         11499.4         11427.2 
      0.0273761          9886.6          9944.9         9879.59 
      0.0384619         7501.46          7493.2         7442.83 
      0.0498308         5830.27         5894.26         5846.24 
      0.0625568         4921.78         5009.59         4964.56 
      0.0751274         4339.57         4256.29         4190.66 
      0.0867833         3390.18         3426.83         3409.37 
      0.0984825         2814.58         2711.92         2736.44 
       0.111151         2383.35         2264.42         2291.06 
       0.123864         2139.76         2040.71         2062.98 
       0.135742         1936.19         1835.12         1857.95 
        0.14762         1666.12         1569.12         1627.47 
       0.160083         1391.44         1307.95         1376.53 
       0.172465         1239.45          1141.6         1227.44 
       0.184281         1139.97         1052.42         1141.25 
       0.196406         1050.14         971.905         1046.42 
       0.209011         966.972         864.749         944.231 
       0.221538         871.621          755.71         865.851 
       0.233611         811.886         676.164         799.933 
       0.245665         750.235         624.074         736.009 
       0.258103          709.74          580.96         692.132 
       0.270422         646.262         533.835         644.889 
       0.282519         595.859         484.485         601.166 
       0.294636         590.099          441.42         563.896 
       0.306978         526.127         408.387         535.573 
       0.319417         506.936         381.819         503.712 
        0.33169         476.918         356.387         474.089 
       0.343948         454.543         330.213         454.709 
       0.356249         425.697         305.667         434.567 
       0.368458         412.826         285.107         410.194 
        0.38068         395.339         267.914         391.645 
       0.392856         370.798         252.219          375.48 
       0.405069         356.049         236.872         362.517 
       0.417459         340.377         222.012          343.91 
       0.429752         329.052         208.673         331.029 
       0.441978         318.254         196.965           320.8 
       0.454294         298.538         186.334          306.03 
        0.46658         296.575         176.359         297.464 
       0.478753         283.759         166.948         286.952 
       0.490964         274.311         158.108         276.832 
       0.503334         258.906         149.949         268.789 
       0.515665          256.03         142.509         262.561 
       0.527909          248.14         135.641         253.531 
       0.540159         241.076         129.143         246.247 
        0.55248         236.155         122.977         238.825 
       0.564743         230.131         117.268         233.611 
        0.57686         221.972         112.021         226.294 
       0.589077         213.113         107.068         221.373 
       0.601441         209.865         102.358         215.977 
        0.61382         207.601         97.9175         210.686 
       0.626067          202.06         93.7736         205.667 
       0.638306         192.932         89.8714          201.49 
       0.650632         187.783         86.1742         195.063 
       0.662899         187.644         82.7096         191.714 
       0.675076          180.84         79.4627         187.424 
       0.687267         176.206         76.3861         183.312 
       0.699615         172.671         73.4338         179.653 
       0.711937         168.538          70.643         175.988 
       0.724148         165.513         68.0208         173.406 
       0.736433         161.443         65.5188           169.4 
       0.748747         157.896         63.1389         165.942 
       0.761037         155.505          60.883         162.557 
       0.773197         152.292         58.7607         160.699 
       0.785376         150.444         56.7371         157.064 
       0.797761         147.384         54.7775         155.058 
       0.810096         143.816         52.9182         152.059 
       0.822371         139.366         51.1543         149.499 
       0.834626          137.61          49.474         146.946 
       0.846916         136.123         47.8652         144.732 
       0.859215         134.321         46.3274         142.333 
       0.871383         131.674         44.8729         139.944 
        0.88363         129.165         43.4724         138.299 
       0.895928         126.656         42.1267         136.326 
       0.908253         123.297         40.8357         133.812 
       0.920535         122.728         39.6035         132.112 
       0.932774         119.215         38.4266         129.881 
        0.94508         118.269         37.2918         128.232 
       0.957324         116.816         36.2087         126.411 
        0.96953         116.285          35.172         124.352 
       0.981769         112.565         34.1736         123.212 
       0.994071         111.803         33.2093         121.448 
         1.0064          109.13         32.2807         119.662 
        1.01868         108.151         31.3906         118.294 
        1.03092         106.215         30.5381         116.828 
         1.0432         104.415         29.7144          115.28 
        1.05553         101.939         28.9179         114.141 
        1.06777         101.798         28.1566         112.817 
           1.08         99.8115         27.4236         111.311 
        1.09227         98.3927         26.7144         109.989 
         1.1046         96.6917         26.0277         108.634 
         1.1169         95.5778         25.3665         107.149 
        1.12915         94.2563         24.7316         106.032 
        1.14142         92.6746         24.1172         104.709 
        1.15365         90.8922         23.5256         103.538 
        1.16585         89.8381         22.9555         102.295 
        1.17807         88.4391         22.4036         101.394 
        1.19037         88.2989         21.8664         100.331 
        1.20276         86.3712         21.3431          99.137 
        1.21504          85.785         20.8412          97.964 
        1.22728         83.9066         20.3576         96.9761 
        1.23954         83.2661         19.8882         95.8724 
        1.25184         81.6511         19.4327         94.9664 
        1.26414         80.5725         18.9914         93.9921 
        1.27632         79.7959         18.5678         93.3337 
         1.2886         78.5291         18.1541         91.9983 
        1.30093         77.4569         17.7517          90.966 
        1.31316          76.635         17.3644         90.2828 
        1.32541         75.9331         16.9886         89.3948 
        1.33772         74.7311         16.6219         88.4693 
        1.35005         74.0624         16.2658         87.5925 
        1.36225         72.9123         15.9238         86.7274 
        1.37447           71.32         15.5909         85.8036 
        1.38676         71.3893         15.2661         84.8765 
        1.39907         70.0308         14.9501         84.2662 
        1.41133         68.8108         14.6444         83.6095 
        1.42358         68.0513         14.3475          82.574 
        1.43591         67.5779         14.0568         81.8438 
        1.44818         66.6125         13.7758         81.0158 
        1.46037         65.8182         13.5042         80.3942 
        1.47263         64.8485         13.2384          79.742 
        1.48494         64.1229         12.9788          78.931 
        1.49724         63.1338         12.7263         78.1302 
        1.50952         62.7047         12.4811         77.3899 
        1.52178          61.887         12.2427         76.7967 
        1.53409         61.3426         12.0096         76.1339 
        1.54637         59.9005         11.7831         75.3893 
        1.55858         59.2993         11.5637         74.6679 
        1.57081         58.8688         11.3496         74.1307 
        1.58313         57.9308         11.1396         73.5176 
        1.59544         57.1767          10.935         72.7864 
        1.60767         56.6137         10.7369          72.185 
        1.61994         55.7504          10.543         71.6603 
        1.63225         55.1001         10.3535         70.8761 
        1.64452         54.5149         10.1692         70.3787 
        1.65676          53.708         9.98994         69.7071 
          1.669         53.3461          9.8149         69.1844 
        1.68133         52.8026         9.64294         68.5468 
        1.69363         51.8925         9.47562         68.0645 
        1.70585         51.6029         9.31333          67.482 
        1.71809         50.5326         9.15453         66.9494 
        1.73038         50.1938         8.99893         66.3726 
        1.74268         49.4731         8.84686         65.8116 
        1.75493         48.9693           8.699          65.261 
        1.76714         48.3668          8.5549         64.7107 
        1.77942         48.0867         8.41334         64.2156 
        1.79173         47.2598         8.27462         63.6217 
        1.80402         46.8378         8.13932         63.2066 
         1.8163         46.2323         8.00713         62.6054 
         1.8286         45.6015         7.87764         62.2384 
         1.8409         45.0574         7.75113           61.62 
        1.85315          44.583         7.62783         61.2686 
        1.86537         44.0598         7.50746         60.7495 
        1.87765         43.6609         7.38924         60.1855 
        1.88995         43.0514         7.27328         59.6999 
        1.90221         42.7092         7.16022         59.2345 
        1.91445         42.0291         7.04975         58.8447 
        1.92674         41.6339         6.94123          58.333 
        1.93902         41.1905         6.83499         57.8643 
        1.95124         40.7649         6.73154         57.4981 
         1.9635          40.131         6.62997         56.9945 
        1.97583         39.7873         6.52985         56.6299 
        1.98812         39.1331         6.43219         56.1373 
        2.00039         38.8901         6.33671         55.6959 
        2.01264         38.2904         6.24327         55.3252 
        2.02492         37.9774         6.15157         54.9077 
        2.03717         37.4356         6.06188         54.4448 
        2.04942         37.0068         5.97408         54.0532 
        2.06171         36.6677         5.88773         53.5972 
        2.07397         36.1816         5.80328         53.2504 
        2.08629         35.7967         5.72013         52.8215 
        2.09857         35.4735         5.63881         52.4718 
        2.11081          34.974          5.5594         52.0412 
        2.12309          34.679         5.48134          51.646 
        2.13538         34.1692         5.40466         51.3149 
        2.14763         33.8726         5.32971         50.9177 
        2.15986         33.6623         5.25635         50.5162 
        2.17214         33.0769         5.18408         50.2212 
        2.18443         32.8063          5.1131         49.7704 
        2.19671         32.3248         5.04353         49.4144 
        2.20898         31.9086         4.97534         49.0419 
        2.22126         31.7801         4.90834         48.6779 
        2.23354         31.3672         4.84259         48.3851 
         2.2458         31.0228         4.77817         48.0079 
        2.25807         30.5279         4.71486         47.6399 
        2.27035         30.2315         4.65264         47.3181 
        2.28263         29.9026         4.59158         46.9891 
         2.2949         29.6554         4.53164         46.6564 
        2.30718         29.3405         4.47275         46.3046 
        2.31946         29.0428         4.41489         45.9806 
        2.33169         28.7406         4.35829          45.641 
        2.34393         28.3583         4.30261         45.2911 
        2.35622         28.0433         4.24771         45.0281 
        2.36847         27.7289         4.19393         44.6604 
        2.38076         27.4915         4.14092         44.3946 
        2.39305         27.1624         4.08884         44.0866 
        2.40534         26.9234         4.03766         43.7134 
        2.41762         26.5491         3.98735         43.4377 
        2.42989         26.3916         3.93798         43.1341 
        2.44216         26.0619         3.88945         42.8417 
         2.4544         25.8082         3.84185         42.5557 
        2.46667         25.4757         3.79494         42.2426 
        2.47897          25.258          3.7487         41.9661 
        2.49124         25.0476         3.70336         41.6653 
        2.50349         24.7305         3.65883         41.4065 
        2.51578         24.4024         3.61491         41.1251 
        2.52805         24.2439         3.57178         40.8228 
        2.54029         24.0401         3.52946          40.547 
        2.55257         23.8017          3.4877         40.2689 
        2.56487         23.5714         3.44654         39.9971 
        2.57716         23.3238          3.4061         39.7121 
        2.58942         23.0849          3.3664          39.475 
        2.60167         22.8703         3.32737          39.184 
        2.61395         22.6535          3.2889         38.9199 
        2.62624         22.4821         3.25098         38.6733 
        2.63849         22.3003         3.21379         38.4097 
        2.65073         22.0171         3.17721         38.1347 
        2.66302         21.7538         3.14107         37.9029 
         2.6753         21.6553         3.10552         37.6535 
        2.68756         21.5011         3.07059         37.4221 
        2.69983         21.2979         3.03618         37.1452 
        2.71213          21.095         3.00222         36.9072 
        2.72441         20.9402         2.96884         36.6456 
        2.73665         20.7329         2.93605         36.4049 
         2.7489         20.5173         2.90377         36.1715 
        2.76118          20.398         2.87188           35.91 
        2.77349         20.2918         2.84039         35.6986 
        2.78576         20.0456          2.8095         35.4743 
        2.79802         19.8725         2.77908         35.2351 
        2.81031         19.7657         2.74904         35.0234 
        2.82259         19.6686         2.71946         34.7901 
        2.83483         19.4162         2.69043         34.5486 
         2.8471         19.3693         2.66176         34.3171 
         2.8594         19.2093         2.63342         34.1067 
         2.8717         19.0411         2.60551         33.8783 
        2.88396         18.8691          2.5781         33.6513 
        2.89619         18.8403         2.55114         33.4455 
        2.90847         18.7018         2.52446         33.2289 
        2.92072         18.5541         2.49821         33.0288 
        2.93299         18.4917         2.47232         32.8245 
        2.94526         18.4096         2.44678         32.6099 
        2.95753         18.3224          2.4216         32.3997 
        2.96982         18.2456         2.39673         32.1998 
        2.98209         18.1037         2.37226         32.0003 
        2.99436         18.0676         2.34812         31.7977 
        3.00666         17.9476         2.32427          31.591 
        3.01894         17.8944         2.30079         31.3831 
        3.03119         17.7437         2.27768         31.1861 
        3.04345           17.79         2.25488         30.9995 
        3.05573          17.713         2.23234         30.8063 
          3.068         17.6253         2.21014         30.6015 
        3.08026         17.6152         2.18826         30.4141 
        3.09254         17.5417         2.16664         30.2322 
        3.10483         17.5103         2.14531         30.0481 
         3.1171         17.5317         2.12429         29.8644 
        3.12933          17.467         2.10362         29.6789 
        3.14159         17.3943         2.08317         29.4895 
