# k  (h/Mpc)    Pcb(k)  (Mpc/h)^3    Pcb_linear(k) (Mpc/h)^3    Pcb_NL(k) (Mpc/h)^3   ShotnoiseSubtracted = false
      0.0156606         17776.1         17857.3         17727.7 
      0.0273761         15268.5         15440.2         15297.7 
      0.0384619         11561.6         11632.5         11510.6 
      0.0498308         8947.81          9149.8          9028.6 
      0.0625568         7557.24          7776.2         7666.82 
      0.0751274         6709.89         6606.72         6451.63 
      0.0867833         5211.13         5319.13         5272.77 
      0.0984825         4377.12         4209.41         4256.06 
       0.111151         3730.92         3514.78         3569.87 
       0.123864         3345.19         3167.52         3212.56 
       0.135742         3041.28         2848.39         2893.96 
        0.14762            2638         2435.51         2556.37 
       0.160083         2225.32         2030.14         2176.85 
       0.172465         1984.96         1771.92         1957.96 
       0.184281         1808.61          1633.5         1821.93 
       0.196406         1690.38         1508.53         1674.62 
       0.209011         1573.11         1342.21         1515.46 
       0.221538         1418.69         1172.96          1407.5 
       0.233611         1347.72          1049.5         1313.27 
       0.245665         1227.52         968.645          1210.7 
       0.258103         1199.56         901.725          1141.6 
       0.270422         1073.93          828.58         1069.63 
       0.282519         1006.44         751.983         1007.15 
       0.294636         994.133          685.14         951.267 
       0.306978         900.059         633.869         909.176 
       0.319417         876.272         592.631         856.436 
        0.33169         825.358         553.157         809.015 
       0.343948         788.804         512.532         782.322 
       0.356249          744.16         474.433         751.632 
       0.368458         719.496         442.522         714.877 
        0.38068         700.853         415.835         685.928 
       0.392856          662.88         391.475         660.258 
       0.405069         632.357         367.655         639.838 
       0.417459         607.522          344.59           613.1 
       0.429752         597.083         323.886         591.317 
       0.441978         576.798         305.715          575.24 
       0.454294         548.441         289.213         550.915 
        0.46658         535.144          273.73         538.529 
       0.478753         521.757         259.124          521.16 
       0.490964          502.04         245.404         504.577 
       0.503334         477.054          232.74         492.113 
       0.515665         476.042         221.192         481.422 
       0.527909         457.745         210.531         469.282 
       0.540159         446.173         200.446         456.448 
        0.55248         437.431         190.876         444.258 
       0.564743         432.907         182.015          436.36 
        0.57686         416.365          173.87         424.145 
       0.589077         404.378         166.182         414.661 
       0.601441         398.994         158.872         405.763 
        0.61382         390.074          151.98         398.423 
       0.626067         384.588         145.548          390.14 
       0.638306         369.079         139.491         382.619 
       0.650632         364.236         133.753         372.196 
       0.662899         361.045         128.375         367.786 
       0.675076         347.338         123.336         361.471 
       0.687267         338.591          118.56         352.909 
       0.699615         334.475         113.978         347.141 
       0.711937         329.424         109.646         340.889 
       0.724148         318.573         105.577         335.855 
       0.736433         311.438         101.693         329.332 
       0.748747         307.074         97.9992         323.234 
       0.761037         301.275         94.4978          318.59 
       0.773197         297.648         91.2036          314.02 
       0.785376          293.06         88.0628         308.847 
       0.797761         285.556         85.0212         304.019 
       0.810096         282.882         82.1354         300.012 
       0.822371         272.724         79.3976         295.049 
       0.834626         271.728         76.7896         290.967 
       0.846916         265.811         74.2926         286.628 
       0.859215         265.709         71.9057         282.528 
       0.871383         258.586         69.6481          278.41 
        0.88363         257.008         67.4744          275.54 
       0.895928         251.342         65.3857         271.156 
       0.908253         244.758         63.3819         266.795 
       0.920535         243.154         61.4693         263.296 
       0.932774         236.298         59.6426         259.645 
        0.94508         233.757         57.8814         256.939 
       0.957324         232.922         56.2002         253.245 
        0.96953         229.532         54.5912          249.83 
       0.981769         222.689         53.0414         247.376 
       0.994071         221.783         51.5448         244.206 
         1.0064         216.917         50.1036         240.569 
        1.01868         214.084         48.7219         237.665 
        1.03092         209.249         47.3988         235.323 
         1.0432         205.667         46.1203         232.441 
        1.05553         202.955         44.8841         229.452 
        1.06777         202.451         43.7024           227.1 
           1.08         197.415         42.5647          224.31 
        1.09227         195.055         41.4639         221.804 
         1.1046         192.171         40.3981         219.522 
         1.1169         188.367         39.3718          216.51 
        1.12915          185.73         38.3864         214.553 
        1.14142         182.766         37.4328         211.779 
        1.15365         180.212         36.5146         209.551 
        1.16585         177.587         35.6297         206.881 
        1.17807         175.317         34.7731         205.229 
        1.19037          173.64         33.9392         203.233 
        1.20276         170.996         33.1271         200.669 
        1.21504         167.602         32.3481         198.508 
        1.22728         164.491         31.5974         195.969 
        1.23954         163.983         30.8688         194.559 
        1.25184         160.853         30.1619         192.339 
        1.26414         158.165         29.4769         190.352 
        1.27632         157.586         28.8194         189.069 
         1.2886         155.515         28.1774         186.569 
        1.30093         150.999         27.5527         184.505 
        1.31316          149.29         26.9516          182.42 
        1.32541         147.746         26.3683             181 
        1.33772         146.345         25.7991         179.069 
        1.35005         144.041         25.2464         177.059 
        1.36225         141.994         24.7156         175.457 
        1.37447         139.907          24.199         173.381 
        1.38676         138.193         23.6949         171.846 
        1.39907         135.754         23.2043         170.073 
        1.41133         133.741         22.7298         168.577 
        1.42358         131.927          22.269         166.995 
        1.43591         130.458         21.8179         165.169 
        1.44818         128.965         21.3817         163.722 
        1.46037         126.787         20.9601         162.015 
        1.47263         125.468         20.5476         160.767 
        1.48494         123.485         20.1446         158.859 
        1.49724         121.819         19.7528         157.474 
        1.50952         119.587         19.3722         155.989 
        1.52178         119.096         19.0022         154.353 
        1.53409         116.621         18.6404         153.083 
        1.54637         115.213         18.2888         151.775 
        1.55858         113.143         17.9482         150.178 
        1.57081         111.677         17.6159         148.911 
        1.58313         110.326         17.2899         147.423 
        1.59544          108.91         16.9724          146.15 
        1.60767         107.652         16.6649         144.746 
        1.61994          105.79          16.364         143.677 
        1.63225         104.485         16.0698         141.997 
        1.64452         102.573         15.7838          140.74 
        1.65676         101.101         15.5056         139.595 
          1.669         100.513         15.2339         138.444 
        1.68133         98.4166          14.967          137.15 
        1.69363         97.4508         14.7073          135.95 
        1.70585         95.6582         14.4554         134.727 
        1.71809         94.4945         14.2089         133.398 
        1.73038         93.7766         13.9674         132.296 
        1.74268         92.4987         13.7314         131.077 
        1.75493         90.8963         13.5019          129.92 
        1.76714         89.6627         13.2782         128.879 
        1.77942         88.5875         13.0585         127.599 
        1.79173         87.2454         12.8432         126.609 
        1.80402         86.5732         12.6332          125.53 
         1.8163         84.8492          12.428         124.318 
         1.8286         83.6794          12.227         123.268 
         1.8409         83.0339         12.0307         122.184 
        1.85315         81.6824         11.8393         121.214 
        1.86537         80.7078         11.6525         120.192 
        1.87765         80.0053          11.469         119.117 
        1.88995         78.6562          11.289         118.151 
        1.90221         77.6093         11.1135         117.134 
        1.91445         76.4521          10.942          116.08 
        1.92674         75.2655         10.7736          115.14 
        1.93902         74.3579         10.6087         114.106 
        1.95124         73.6665         10.4481         113.219 
         1.9635         72.5347         10.2905         112.135 
        1.97583         71.4717         10.1351         111.333 
        1.98812         70.5477         9.98352         110.379 
        2.00039         69.5833         9.83533         109.439 
        2.01264         68.9694          9.6903         108.521 
        2.02492         67.9753         9.54798         107.614 
        2.03717         66.8489         9.40875         106.674 
        2.04942         66.5419         9.27249         105.916 
        2.06171          65.075         9.13846          104.99 
        2.07397         64.3777         9.00738         104.172 
        2.08629         63.6476         8.87832         103.262 
        2.09857         62.6685          8.7521         102.446 
        2.11081         61.7102         8.62886         101.508 
        2.12309         61.1461         8.50769         100.823 
        2.13538         60.2723         8.38868         99.9549 
        2.14763         59.4507         8.27235         99.1542 
        2.15986         58.3683         8.15849         98.3242 
        2.17214         57.9633         8.04631         97.5118 
        2.18443         57.2563         7.93613         96.8626 
        2.19671         56.2151         7.82816         96.0299 
        2.20898         55.9909         7.72232         95.2423 
        2.22126          55.097         7.61832         94.4592 
        2.23354         54.3875         7.51628         93.7515 
         2.2458          53.671         7.41628         93.0391 
        2.25807         52.9488         7.31802         92.2477 
        2.27035         52.4156         7.22145         91.5107 
        2.28263         51.5917         7.12667         90.7863 
         2.2949          51.144         7.03364         90.0824 
        2.30718         50.1657         6.94225         89.4136 
        2.31946         49.7665         6.85243         88.7065 
        2.33169         48.9767         6.76459         88.0217 
        2.34393         48.3393         6.67816         87.3587 
        2.35622         47.9099         6.59296         86.6725 
        2.36847         47.3415         6.50948         86.0785 
        2.38076         46.5814          6.4272         85.3213 
        2.39305         46.0504         6.34637          84.728 
        2.40534         45.5718         6.26692         84.0319 
        2.41762         45.0664         6.18885         83.3487 
        2.42989         44.5349         6.11222         82.7973 
        2.44216         44.0335         6.03689         82.1299 
         2.4544         43.4728         5.96302          81.502 
        2.46667         42.9886          5.8902         80.8601 
        2.47897         42.5041         5.81843         80.2643 
        2.49124         41.9282         5.74805         79.6861 
        2.50349         41.5263         5.67894         79.0565 
        2.51578         40.9355         5.61076         78.5447 
        2.52805         40.5375         5.54382         77.9131 
        2.54029         40.0753         5.47814         77.2899 
        2.55257         39.4773         5.41332         76.7606 
        2.56487         39.1552         5.34944         76.2289 
        2.57716         38.6473         5.28667         75.6794 
        2.58942         38.1301         5.22505         75.0978 
        2.60167         37.8125         5.16447         74.5488 
        2.61395         37.2932         5.10476         74.0096 
        2.62624         37.0834         5.04591         73.4348 
        2.63849          36.643         4.98818         72.9249 
        2.65073         36.2629         4.93141         72.3775 
        2.66302         35.7439         4.87532         71.8488 
         2.6753         35.3326         4.82014         71.3427 
        2.68756         34.9204         4.76593         70.8005 
        2.69983           34.68         4.71251         70.3377 
        2.71213         34.3131          4.6598         69.8495 
        2.72441         33.9417         4.60799         69.3315 
        2.73665         33.5051          4.5571          68.829 
         2.7489         33.4302           4.507         68.3463 
        2.76118         32.9118          4.4575         67.8774 
        2.77349         32.7176         4.40862         67.3905 
        2.78576         32.4552         4.36067          66.891 
        2.79802         32.0232         4.31346         66.4756 
        2.81031         31.6865         4.26684         65.9921 
        2.82259         31.6035         4.22093         65.5058 
        2.83483         31.1709         4.17586         65.0769 
         2.8471         30.8313         4.13137         64.6287 
         2.8594         30.6866         4.08739         64.1656 
         2.8717         30.4615         4.04406         63.7306 
        2.88396         30.1433         4.00152         63.2768 
        2.89619         29.9456         3.95968         62.8158 
        2.90847         29.7104         3.91827          62.397 
        2.92072         29.4684         3.87752         61.9811 
        2.93299         29.2905         3.83734         61.5553 
        2.94526         29.0284         3.79769         61.1487 
        2.95753         28.8648         3.75861         60.7343 
        2.96982          28.764         3.72001         60.3182 
        2.98209         28.4611         3.68203         59.9168 
        2.99436          28.314         3.64456           59.49 
        3.00666         28.1978         3.60754         59.1034 
        3.01894         27.9738          3.5711         58.6919 
        3.03119         27.8423         3.53522         58.3094 
        3.04345         27.6731         3.49984         57.9446 
        3.05573         27.5578         3.46486         57.5596 
          3.068         27.5126          3.4304         57.1721 
        3.08026         27.3224         3.39645         56.7871 
        3.09254         27.2111         3.36289         56.4122 
        3.10483         27.2206         3.32978         56.0494 
         3.1171         27.0633         3.29716         55.6839 
        3.12933         27.0366         3.26506         55.3088 
        3.14159         26.8951         3.23333         54.9382 
