# k  (h/Mpc)    Pcb(k)  (Mpc/h)^3    Pcb_linear(k) (Mpc/h)^3    Pcb_NL(k) (Mpc/h)^3   ShotnoiseSubtracted = false
      0.0156606         20705.3         20814.6         20653.9 
      0.0273761         17755.1         17995.8         17807.8 
      0.0384619         13429.9         13557.5         13392.1 
      0.0498308         10375.8         10663.6         10497.7 
      0.0625568         8764.97         9062.65         8914.51 
      0.0751274         7800.57         7699.62          7491.1 
      0.0867833         6045.56            6199         6134.94 
      0.0984825         5101.53         4905.69         4964.32 
       0.111151         4360.17         4096.15         4168.18 
       0.123864         3906.47         3691.44         3749.86 
       0.135742         3559.35         3319.52         3378.22 
        0.14762         3096.08         2838.35         2994.23 
       0.160083         2625.61         2365.92          2557.5 
       0.172465         2341.81         2064.99         2308.74 
       0.184281         2124.85         1903.68         2148.66 
       0.196406         2000.03         1758.04         1978.11 
       0.209011         1868.82          1564.2         1792.44 
       0.221538          1683.3         1366.97          1671.9 
       0.233611         1610.57         1223.08         1565.52 
       0.245665         1461.02         1128.85         1445.23 
       0.258103         1442.55         1050.87         1364.27 
       0.270422         1287.15         965.623         1281.05 
       0.282519         1213.74         876.356         1211.46 
       0.294636         1193.62         798.458         1146.98 
       0.306978         1088.21         738.707         1098.63 
       0.319417         1064.94         690.648         1035.68 
        0.33169         1001.49         644.646         980.331 
       0.343948         960.202         597.302         949.833 
       0.356249         909.046         552.901         914.277 
       0.368458         874.657         515.712         872.825 
        0.38068         858.653         484.612         839.203 
       0.392856         814.532         456.222         809.509 
       0.405069         773.698         428.462         783.799 
       0.417459         744.003         401.583         755.006 
       0.429752         738.083         377.454         728.603 
       0.441978          712.24         356.277          709.91 
       0.454294         680.045         337.047         680.802 
        0.46658         661.119         319.003         666.635 
       0.478753         647.688         301.981         646.188 
       0.490964          622.44         285.992         626.347 
       0.503334          594.88         271.233         612.112 
       0.515665         593.072         257.775         598.541 
       0.527909         568.822         245.352         585.403 
       0.540159         554.498         233.598         570.291 
        0.55248         543.498         222.445         555.433 
       0.564743         539.054         212.118         545.986 
        0.57686         520.119         202.627         531.421 
       0.589077         509.027         193.668         519.631 
       0.601441         498.865         185.148         509.307 
        0.61382         485.548         177.116         500.455 
       0.626067          479.87          169.62         490.856 
       0.638306         461.966         162.562         481.067 
       0.650632         457.384         155.874         469.183 
       0.662899         453.384         149.608         463.646 
       0.675076         437.688         143.734         456.907 
       0.687267         425.635         138.169         446.031 
       0.699615         422.903         132.829         438.998 
       0.711937         415.189         127.781         430.881 
       0.724148         401.326         123.038         424.923 
       0.736433          391.88         118.512         417.222 
       0.748747         386.858         114.207         409.777 
       0.761037          379.68         110.127         404.622 
       0.773197          374.49         106.288         398.231 
       0.785376         369.074         102.628         392.349 
       0.797761         358.365          99.083         386.269 
       0.810096         355.223         95.7199         381.445 
       0.822371         344.511         92.5293         375.203 
       0.834626         341.784         89.4899         370.617 
       0.846916         335.469         86.5799          364.87 
       0.859215         333.087         83.7983         359.616 
       0.871383         324.985         81.1673          354.78 
        0.88363         322.214         78.6341         351.164 
       0.895928         316.611         76.1999         345.638 
       0.908253         308.654         73.8648         340.059 
       0.920535         304.085         71.6358         336.097 
       0.932774         298.273          69.507         331.163 
        0.94508         293.976         67.4545         327.761 
       0.957324           291.9         65.4952         323.334 
        0.96953          287.82         63.6201         319.357 
       0.981769         280.318          61.814         315.906 
       0.994071         279.252         60.0699         312.003 
         1.0064         273.514         58.3903         307.454 
        1.01868          270.45         56.7801          303.53 
        1.03092         262.419         55.2382         300.819 
         1.0432          259.48         53.7481         297.176 
        1.05553         256.416         52.3076         293.145 
        1.06777         254.042         50.9304         289.956 
           1.08         248.001         49.6045         286.679 
        1.09227         246.475         48.3217         283.243 
         1.1046         242.086         47.0796         280.498 
         1.1169         236.508         45.8836         276.724 
        1.12915         233.449         44.7352         274.093 
        1.14142         229.059         43.6239         270.735 
        1.15365          226.25         42.5538          267.88 
        1.16585         222.226         41.5225         264.757 
        1.17807          219.91         40.5243         262.175 
        1.19037         216.798         39.5525         259.878 
        1.20276         213.752          38.606         256.488 
        1.21504         209.142         37.6981         253.655 
        1.22728         205.897         36.8233         250.613 
        1.23954         204.838         35.9743         248.476 
        1.25184         200.385         35.1505         245.782 
        1.26414         196.417         34.3522         243.397 
        1.27632         195.313         33.5859         241.313 
         1.2886          193.78         32.8377         238.445 
        1.30093         188.637         32.1097         235.559 
        1.31316         184.869         31.4092         233.084 
        1.32541         183.737         30.7294         230.887 
        1.33772         181.156         30.0661         228.642 
        1.35005         178.621          29.422         226.073 
        1.36225         175.276         28.8033         223.968 
        1.37447         172.728         28.2013         221.219 
        1.38676         170.864         27.6138         219.581 
        1.39907         168.282         27.0421         217.015 
        1.41133         165.217         26.4891         214.853 
        1.42358         163.273         25.9521         212.828 
        1.43591         161.266         25.4263         210.784 
        1.44818         158.294         24.9181         208.687 
        1.46037         156.697         24.4268         206.467 
        1.47263         153.936          23.946         204.687 
        1.48494         152.108         23.4763         202.176 
        1.49724         149.824         23.0197         200.783 
        1.50952         147.034         22.5762         198.643 
        1.52178         146.038          22.145         196.497 
        1.53409         143.009         21.7233         194.826 
        1.54637          141.13         21.3136         193.217 
        1.55858         139.197         20.9167         191.111 
        1.57081         136.891         20.5294         189.398 
        1.58313         135.049         20.1495         187.467 
        1.59544         132.601         19.7795         185.796 
        1.60767         131.535         19.4211         184.121 
        1.61994         129.127         19.0704         182.433 
        1.63225         127.337         18.7277         180.501 
        1.64452         125.133         18.3943         178.888 
        1.65676         123.404         18.0701         177.349 
          1.669         122.241         17.7534         175.728 
        1.68133         119.744         17.4424         174.125 
        1.69363         117.786         17.1397         172.594 
        1.70585         115.848         16.8462         171.057 
        1.71809         114.389          16.559          169.21 
        1.73038         113.348         16.2775         167.852 
        1.74268         112.189         16.0024         166.225 
        1.75493         109.239          15.735         164.838 
        1.76714          108.75         15.4743         163.453 
        1.77942         106.637         15.2183         161.831 
        1.79173         104.941         14.9674         160.443 
        1.80402         103.933         14.7226         159.018 
         1.8163         101.762         14.4835         157.671 
         1.8286         100.492         14.2493         156.185 
         1.8409         99.6892         14.0205         154.732 
        1.85315         97.5284         13.7974         153.478 
        1.86537         96.7519         13.5797         152.206 
        1.87765         95.5366         13.3658         150.906 
        1.88995         93.8145         13.1561         149.505 
        1.90221         92.6008         12.9516         148.303 
        1.91445         91.4001         12.7518         146.878 
        1.92674         89.9185         12.5555         145.625 
        1.93902            88.7         12.3633         144.317 
        1.95124         87.5974         12.1762         143.103 
         1.9635         86.1473         11.9925          141.84 
        1.97583         84.8201         11.8114          140.66 
        1.98812         83.7188         11.6347         139.584 
        2.00039         82.7237          11.462         138.283 
        2.01264         81.6572          11.293         137.147 
        2.02492         80.7688         11.1271         135.913 
        2.03717         79.3596         10.9649          134.82 
        2.04942         78.6572         10.8061         133.728 
        2.06171         76.9599         10.6499         132.564 
        2.07397         76.1685         10.4971         131.517 
        2.08629         75.1822         10.3467         130.374 
        2.09857         74.1298         10.1996         129.323 
        2.11081         72.8469          10.056         128.129 
        2.12309         71.8392         9.91479         127.201 
        2.13538         70.8751          9.7761         126.079 
        2.14763         69.9835         9.64052         125.073 
        2.15986         68.9818         9.50783         123.969 
        2.17214         68.1873          9.3771         122.978 
        2.18443         67.2638          9.2487          122.14 
        2.19671         66.2358         9.12287         121.088 
        2.20898         65.5676         8.99952         120.015 
        2.22126         64.5728         8.87833         119.102 
        2.23354         63.8385         8.75941         118.155 
         2.2458           62.63         8.64287         117.204 
        2.25807         61.9362         8.52836         116.242 
        2.27035         61.0667         8.41581         115.293 
        2.28263         60.2526         8.30536         114.401 
         2.2949          59.312         8.19694         113.503 
        2.30718         58.4411         8.09043          112.61 
        2.31946         58.0196         7.98576         111.645 
        2.33169         56.9744          7.8834         110.799 
        2.34393         56.5317         7.78267         109.999 
        2.35622         55.4451         7.68338         109.101 
        2.36847         55.0383         7.58609         108.356 
        2.38076         54.0987         7.49021          107.37 
        2.39305         53.4972           7.396         106.647 
        2.40534         52.7788         7.30342         105.764 
        2.41762         52.1712         7.21243         104.904 
        2.42989         51.3397         7.12312         104.161 
        2.44216         50.8369         7.03534         103.292 
         2.4544          50.023         6.94925         102.533 
        2.46667         49.4491         6.86439         101.743 
        2.47897         48.9013         6.78075         100.926 
        2.49124         48.3933         6.69873         100.198 
        2.50349         47.8623         6.61819         99.4298 
        2.51578         47.1389         6.53873         98.7715 
        2.52805         46.5754         6.46072         97.9386 
        2.54029         46.1073         6.38418         97.1712 
        2.55257          45.502         6.30864         96.5065 
        2.56487         45.2288         6.23419         95.8142 
        2.57716         44.5149         6.16104         95.0899 
        2.58942         43.8967         6.08922         94.3799 
        2.60167         43.3917         6.01862         93.6915 
        2.61395         42.9461         5.94904         92.9997 
        2.62624         42.3364         5.88046         92.2574 
        2.63849         41.8728         5.81318         91.6011 
        2.65073         41.4507         5.74702         90.9348 
        2.66302         40.9711         5.68166         90.2441 
         2.6753         40.5517         5.61735         89.6221 
        2.68756         40.1359         5.55417         88.9432 
        2.69983         39.6075         5.49192         88.3308 
        2.71213         39.2267         5.43049         87.6966 
        2.72441         38.8162         5.37011         87.0523 
        2.73665         38.3427          5.3108         86.4499 
         2.7489         37.9441         5.25241         85.8386 
        2.76118          37.601         5.19473         85.2123 
        2.77349         37.1611         5.13777         84.6104 
        2.78576         36.8126         5.08189         83.9775 
        2.79802          36.496         5.02687         83.4613 
        2.81031         35.9916         4.97254         82.8485 
        2.82259          35.803         4.91903         82.2332 
        2.83483         35.3344         4.86651         81.7062 
         2.8471         35.0409         4.81466         81.1129 
         2.8594         34.7118          4.7634         80.5266 
         2.8717         34.5378         4.71291         80.0032 
        2.88396         34.1452         4.66334         79.4384 
        2.89619         33.9311         4.61457         78.8414 
        2.90847          33.557         4.56632         78.2758 
        2.92072         33.3683         4.51883         77.7885 
        2.93299         33.2116           4.472         77.2733 
        2.94526         32.8296         4.42579         76.7339 
        2.95753         32.6163         4.38025         76.1925 
        2.96982         32.3117         4.33527         75.6829 
        2.98209         32.1334         4.29101         75.1839 
        2.99436         31.8735         4.24733         74.6377 
        3.00666         31.8215         4.20419         74.1389 
        3.01894         31.4856         4.16173         73.6384 
        3.03119         31.4408         4.11992         73.1642 
        3.04345         31.2869         4.07868         72.6903 
        3.05573         30.9781         4.03792          72.196 
          3.068         30.9108         3.99776         71.7151 
        3.08026         30.7427         3.95819         71.2317 
        3.09254         30.6758         3.91908         70.7688 
        3.10483         30.6486         3.88049         70.3081 
         3.1171         30.4835         3.84248         69.8383 
        3.12933         30.3404         3.80507         69.3713 
        3.14159         30.2291         3.76809         68.9001 
