# k  (h/Mpc)    Pcb(k)  (Mpc/h)^3    Pcb_linear(k) (Mpc/h)^3    Pcb_NL(k) (Mpc/h)^3   ShotnoiseSubtracted = false
      0.0156606         1193.51         1194.14         1188.56 
      0.0273761         1039.34         1033.59         1031.35 
      0.0384619         789.575         779.065         778.823 
      0.0498308         620.532         612.943         613.169 
      0.0625568         523.661          521.01         520.649 
      0.0751274         450.059         442.696          441.78 
      0.0867833         359.062          356.44          356.36 
      0.0984825         288.863         282.088         282.746 
       0.111151         241.482         235.545         236.153 
       0.123864          216.83         212.278         212.618 
       0.135742         194.573         190.894          191.18 
        0.14762         165.344         163.226         164.061 
       0.160083         137.507          136.06         137.071 
       0.172465         120.606         118.755         119.945 
       0.184281         111.679         109.479         110.712 
       0.196406         102.069         101.104         102.012 
       0.209011         91.4911         89.9569         91.0196 
       0.221538         80.7544         78.6142         80.1329 
       0.233611         72.4189         70.3395         72.0228 
       0.245665         67.7032         64.9208         66.4048 
       0.258103         61.2376         60.4358         61.9046 
       0.270422         57.2926         55.5336         56.9438 
       0.282519         51.9632            50.4         51.9333 
       0.294636         48.6435           45.92         47.5376 
       0.306978         43.4731         42.4838         44.1479 
       0.319417         41.2662         39.7199         41.3329 
        0.33169         38.3632         37.0743          38.629 
       0.343948         36.1038         34.3516         35.9056 
       0.356249         33.0366         31.7981         33.5578 
       0.368458         31.2641         29.6593         31.2337 
        0.38068         29.1753         27.8707         29.4365 
       0.392856         27.3996          26.238         27.8188 
       0.405069          25.874         24.6415         26.1447 
       0.417459         23.9393         23.0956         24.6579 
       0.429752         22.8148          21.708         23.2529 
       0.441978         21.6679         20.4901         22.1153 
       0.454294         20.2304         19.3841         20.9209 
        0.46658         19.7185         18.3464         19.8559 
       0.478753         18.4216         17.3674         18.8728 
       0.490964         17.6959         16.4479         18.0215 
       0.503334         16.8767         15.5991         17.0887 
       0.515665          15.898         14.8251         16.3872 
       0.527909         15.2334         14.1106         15.5519 
       0.540159         14.4664         13.4346         14.8596 
        0.55248         13.5714         12.7932         14.1701 
       0.564743         13.3158         12.1993         13.6478 
        0.57686         12.7587         11.6535         13.0584 
       0.589077           11.99         11.1382         12.5771 
       0.601441         11.5063         10.6482         12.0606 
        0.61382          11.053         10.1863         11.5489 
       0.626067         10.5761         9.75518          11.112 
       0.638306         10.1913         9.34924         10.6756 
       0.650632         9.90378         8.96463         10.3047 
       0.662899         9.43129         8.60421         9.90473 
       0.675076         8.96714         8.26644         9.55403 
       0.687267         8.70715         7.94638         9.18804 
       0.699615         8.44793         7.63926         8.87166 
       0.711937         8.01467         7.34893         8.58996 
       0.724148         7.89134         7.07615         8.30088 
       0.736433         7.46746         6.81587         8.00147 
       0.748747         7.25048         6.56829         7.77246 
       0.761037         7.04538         6.33361         7.51432 
       0.773197         6.73504         6.11283         7.29874 
       0.785376         6.50747         5.90231         7.06239 
       0.797761         6.30208         5.69846         6.82863 
       0.810096         6.13203         5.50504         6.65775 
       0.822371         5.97401         5.32154         6.43402 
       0.834626          5.7677         5.14674         6.24643 
       0.846916         5.55899         4.97938         6.08196 
       0.859215         5.34213         4.81941         5.91777 
       0.871383         5.19429         4.66809         5.75329 
        0.88363         5.05712          4.5224         5.59212 
       0.895928         4.94258         4.38241         5.43245 
       0.908253         4.78973         4.24811         5.29032 
       0.920535         4.62652         4.11992         5.14164 
       0.932774         4.51333         3.99749         4.99122 
        0.94508         4.37707         3.87944         4.87767 
       0.957324         4.26547         3.76676         4.76829 
        0.96953         4.11802         3.65892         4.64496 
       0.981769          4.0052         3.55505         4.51466 
       0.994071         3.92933         3.45474         4.41994 
         1.0064         3.79663         3.35814          4.3103 
        1.01868         3.68194         3.26554         4.20429 
        1.03092         3.62214         3.17686         4.09746 
         1.0432         3.49092         3.09117         4.00647 
        1.05553         3.41652         3.00831         3.92183 
        1.06777         3.30726         2.92911          3.8369 
           1.08         3.25036         2.85286         3.74341 
        1.09227         3.14941         2.77908          3.6567 
         1.1046         3.07689         2.70765          3.5802 
         1.1169         2.98531         2.63886         3.50213 
        1.12915         2.93771         2.57281         3.43191 
        1.14142          2.8515          2.5089          3.3516 
        1.15365         2.78958         2.44735         3.28783 
        1.16585         2.73324         2.38804         3.21966 
        1.17807         2.68063         2.33064         3.15097 
        1.19037         2.58202         2.27474         3.08417 
        1.20276         2.52808         2.22031         3.01684 
        1.21504         2.47742          2.1681         2.96896 
        1.22728         2.42012         2.11778         2.89992 
        1.23954         2.37525         2.06895         2.85741 
        1.25184         2.31869         2.02158         2.79151 
        1.26414         2.27207         1.97566         2.73443 
        1.27632          2.2036          1.9316         2.69257 
         1.2886         2.17507         1.88856         2.63574 
        1.30093         2.10919          1.8467           2.594 
        1.31316         2.05056         1.80641          2.5422 
        1.32541         2.02619         1.76731         2.50069 
        1.33772          1.9919         1.72916         2.45407 
        1.35005          1.9488         1.69212         2.41187 
        1.36225         1.90578         1.65654         2.36534 
        1.37447         1.86567         1.62192         2.33036 
        1.38676         1.82599         1.58813         2.28353 
        1.39907         1.78126         1.55525         2.25046 
        1.41133          1.7477         1.52344         2.21185 
        1.42358         1.72656         1.49256         2.16798 
        1.43591         1.69044         1.46232         2.14448 
        1.44818         1.65282         1.43309         2.10633 
        1.46037         1.61469         1.40483         2.06733 
        1.47263         1.58296         1.37718         2.03761 
        1.48494         1.55734         1.35017         2.00463 
        1.49724         1.52296         1.32391         1.97191 
        1.50952          1.5059          1.2984         1.93872 
        1.52178         1.46723          1.2736         1.91258 
        1.53409         1.44085         1.24935         1.87879 
        1.54637         1.40806         1.22579         1.84874 
        1.55858          1.3894         1.20296         1.82057 
        1.57081         1.36713         1.18069          1.7932 
        1.58313         1.33688         1.15884         1.77049 
        1.59544         1.31569         1.13756          1.7424 
        1.60767         1.29455         1.11695         1.71682 
        1.61994         1.26697         1.09678         1.69316 
        1.63225         1.24985         1.07707         1.66961 
        1.64452         1.22692         1.05789         1.64341 
        1.65676         1.20094         1.03925         1.62111 
          1.669         1.18341         1.02104         1.59595 
        1.68133         1.15951         1.00315         1.57753 
        1.69363         1.14798        0.985743         1.55395 
        1.70585         1.12601         0.96886         1.53329 
        1.71809         1.10991         0.95234         1.51146 
        1.73038         1.08635        0.936153         1.49132 
        1.74268         1.06584        0.920333         1.47041 
        1.75493         1.05686        0.904951         1.45325 
        1.76714         1.03528        0.889961         1.43106 
        1.77942         1.01422        0.875235         1.41295 
        1.79173         1.00244        0.860804         1.39426 
        1.80402        0.986129        0.846729         1.37626 
         1.8163         0.97032        0.832976         1.35723 
         1.8286        0.948792        0.819506         1.34435 
         1.8409        0.944659        0.806346           1.326 
        1.85315        0.929938        0.793519         1.30726 
        1.86537        0.908314        0.780996         1.29284 
        1.87765        0.897376        0.768698         1.27594 
        1.88995        0.884717        0.756635         1.26088 
        1.90221        0.869467        0.744873         1.24471 
        1.91445        0.856311        0.733381         1.23096 
        1.92674        0.843305        0.722092         1.21538 
        1.93902        0.827547        0.711039         1.19984 
        1.95124        0.817134        0.700278         1.18575 
         1.9635        0.805393        0.689711         1.17132 
        1.97583         0.79185        0.679297         1.15666 
        1.98812        0.779871        0.669136         1.14569 
        2.00039        0.768206        0.659204          1.1311 
        2.01264        0.757884        0.649483          1.1187 
        2.02492        0.748759        0.639945         1.10723 
        2.03717        0.740877        0.630613         1.09428 
        2.04942        0.726533         0.62148         1.08048 
        2.06171        0.717097        0.612497         1.06854 
        2.07397        0.706675        0.603712         1.05788 
        2.08629        0.698447        0.595062         1.04621 
        2.09857        0.686947        0.586602         1.03489 
        2.11081        0.676246        0.578342          1.0228 
        2.12309        0.667826        0.570221         1.01275 
        2.13538        0.660745        0.562244         1.00071 
        2.14763        0.652469        0.554447        0.990689 
        2.15986        0.643682        0.546815        0.981435 
        2.17214        0.631202        0.539297        0.968994 
        2.18443        0.625469        0.531912        0.959861 
        2.19671           0.618        0.524675        0.950143 
        2.20898        0.608897        0.517582        0.939971 
        2.22126        0.599424        0.510611        0.930513 
        2.23354        0.591378        0.503772        0.921432 
         2.2458        0.586074         0.49707        0.910995 
        2.25807        0.576957        0.490484        0.902257 
        2.27035        0.571344        0.484011        0.893097 
        2.28263        0.561952        0.477659        0.884865 
         2.2949        0.555949        0.471424        0.875674 
        2.30718        0.549805        0.465298         0.86754 
        2.31946        0.542226        0.459278        0.859336 
        2.33169        0.534353        0.453391        0.850704 
        2.34393         0.53011        0.447598         0.84237 
        2.35622        0.522649        0.441887        0.833903 
        2.36847        0.517356        0.436292        0.826235 
        2.38076        0.509764        0.430778        0.818387 
        2.39305        0.504635         0.42536         0.81103 
        2.40534        0.497592        0.420035         0.80336 
        2.41762        0.492471        0.414802         0.79507 
        2.42989        0.485337        0.409666        0.788072 
        2.44216         0.48172        0.404618        0.781451 
         2.4544        0.477551        0.399666        0.774118 
        2.46667        0.471265        0.394786         0.76664 
        2.47897        0.465808        0.389975        0.760156 
        2.49124        0.459371        0.385258        0.752878 
        2.50349        0.455054        0.380626        0.745813 
        2.51578        0.449805        0.376056        0.739202 
        2.52805        0.446099         0.37157        0.732961 
        2.54029        0.440666        0.367167        0.726339 
        2.55257        0.435877        0.362823        0.720596 
        2.56487        0.431917        0.358541        0.714073 
        2.57716        0.427406        0.354334        0.707565 
        2.58942        0.423956        0.350204        0.701973 
        2.60167        0.419666        0.346144         0.69528 
        2.61395        0.414155        0.342142        0.689563 
        2.62624        0.410465        0.338198        0.684345 
        2.63849        0.406414        0.334328        0.678283 
        2.65073        0.402845        0.330523         0.67241 
        2.66302        0.399123        0.326764        0.666661 
         2.6753        0.395557        0.323066        0.661238 
        2.68756        0.392331        0.319432        0.655972 
        2.69983        0.387742        0.315852        0.650432 
        2.71213        0.382833        0.312319        0.645185 
        2.72441        0.381383        0.308847         0.64005 
        2.73665        0.377985        0.305435        0.635247 
         2.7489        0.375929        0.302077        0.630153 
        2.76118        0.371671         0.29876        0.624737 
        2.77349        0.369509        0.295484        0.620136 
        2.78576        0.366569         0.29227        0.614753 
        2.79802        0.363567        0.289106        0.609626 
        2.81031        0.360572        0.285981        0.605586 
        2.82259        0.358606        0.282904        0.600242 
        2.83483        0.355608        0.279883         0.59563 
         2.8471        0.353247        0.276901        0.591226 
         2.8594         0.35155        0.273953        0.586983 
         2.8717        0.348165         0.27105        0.582509 
        2.88396        0.346022        0.268199        0.577873 
        2.89619        0.344422        0.265394        0.573776 
        2.90847        0.342118        0.262619        0.569651 
        2.92072        0.340714        0.259888        0.564989 
        2.93299        0.338003        0.257194        0.560598 
        2.94526         0.33643        0.254537        0.556607 
        2.95753        0.335734        0.251917        0.552616 
        2.96982        0.333449         0.24933        0.548402 
        2.98209        0.332676        0.246785        0.544266 
        2.99436        0.329697        0.244273        0.540443 
        3.00666        0.329632        0.241792         0.53681 
        3.01894        0.328936         0.23935        0.532839 
        3.03119        0.327732        0.236945        0.528783 
        3.04345        0.326228        0.234573         0.52516 
        3.05573        0.326255        0.232229        0.521776 
          3.068        0.323757         0.22992           0.518 
        3.08026        0.324146        0.227644        0.513884 
        3.09254        0.323166        0.225395        0.510252 
        3.10483        0.322427        0.223175        0.507003 
         3.1171         0.32312        0.220989        0.503639 
        3.12933        0.322463        0.218838        0.500151 
        3.14159        0.321549        0.216711        0.496669 
