# k  (h/Mpc)    P(k)  (Mpc/h)^3    P_linear(k)  (Mpc/h)^3     P_NL(k)  ShotnoiseSubtracted = false
      0.0156606         22348.4         22452.6         22272.8 
      0.0273761           19116         19379.1         19162.2 
      0.0384619         14436.9         14586.4         14393.2 
      0.0498308         11137.9         11466.4         11271.8 
      0.0625568         9406.55         9740.86         9568.22 
      0.0751274         8379.93         8273.64         8031.55 
      0.0867833         6486.84            6660         6584.78 
      0.0984825            5488         5269.85         5335.69 
       0.111151         4697.69         4399.76         4482.64 
       0.123864         4207.16         3964.75         4031.69 
       0.135742         3838.23         3565.09         3632.09 
        0.14762         3343.61         3048.19         3225.47 
       0.160083         2845.26         2540.74         2760.02 
       0.172465         2537.48         2217.51         2496.88 
       0.184281         2297.21         2044.23         2323.87 
       0.196406         2171.53          1887.8         2141.68 
       0.209011         2033.93         1679.63         1942.28 
       0.221538         1830.41         1467.81         1815.76 
       0.233611          1757.9         1313.29         1703.45 
       0.245665         1592.28          1212.1         1574.06 
       0.258103         1580.06         1128.35         1486.89 
       0.270422         1409.02         1036.82         1397.94 
       0.282519         1332.99         940.961         1325.36 
       0.294636          1307.1         857.313         1256.42 
       0.306978         1196.43         793.154         1204.96 
       0.319417         1174.55          741.55         1136.42 
        0.33169          1103.5         692.154         1077.11 
       0.343948         1060.42         641.317         1044.51 
       0.356249         1006.35         593.643         1006.47 
       0.368458         965.279         553.711         962.999 
        0.38068         951.506         520.321         927.078 
       0.392856         904.286         489.837         895.487 
       0.405069         857.017         460.028         866.299 
       0.417459         824.328         431.169         837.039 
       0.429752         822.023         405.262         808.027 
       0.441978         793.105         382.524         787.982 
       0.454294         758.801         361.876         756.368 
        0.46658         737.374         342.501         741.206 
       0.478753         723.914         324.224          719.22 
       0.490964         696.081         307.056         697.558 
       0.503334         666.843         291.211         682.524 
       0.515665         664.172         276.762         667.117 
       0.527909         636.398         263.423         653.633 
       0.540159         621.215         250.803         637.521 
        0.55248         608.653         238.829         621.204 
       0.564743         603.484         227.741          610.75 
        0.57686         583.998         217.551         594.904 
       0.589077         574.292         207.931         582.009 
       0.601441         560.287         198.784         570.932 
        0.61382         544.477          190.16         560.963 
       0.626067          538.86         182.112         550.789 
       0.638306          519.32         174.534         539.616 
       0.650632         514.505         167.354         527.164 
       0.662899         510.318         160.625          520.74 
       0.675076         494.174          154.32         513.874 
       0.687267         479.888         148.345         501.831 
       0.699615         478.664         142.611         493.939 
       0.711937         468.372         137.191         484.631 
       0.724148         453.324         132.099          478.32 
       0.736433         442.754          127.24         469.964 
       0.748747         437.146         122.618         461.772 
       0.761037         429.445         118.237         456.302 
       0.773197         422.734         114.115         448.721 
       0.785376         417.503         110.185         442.348 
       0.797761         405.002          106.38         435.928 
       0.810096         400.355         102.769         430.381 
       0.822371         389.965         99.3431         423.449 
       0.834626         386.037         96.0799         418.617 
       0.846916          380.29         92.9555         412.069 
       0.859215         375.586         89.9691         406.044 
       0.871383          367.25         87.1443         400.763 
        0.88363         362.873         84.4245         396.731 
       0.895928         357.839         81.8111         390.599 
       0.908253         348.988          79.304         384.185 
       0.920535          341.96         76.9109         380.139 
       0.932774         336.975         74.6253         374.352 
        0.94508         331.801         72.4216         370.643 
       0.957324         328.269          70.318          365.72 
        0.96953         324.082         68.3048         361.314 
       0.981769         316.311         66.3658         357.298 
       0.994071         315.092         64.4931         352.978 
         1.0064         309.174         62.6899         347.857 
        1.01868         305.586         60.9611         343.453 
        1.03092         296.486         59.3056         340.468 
         1.0432         293.694         57.7059         336.356 
        1.05553         290.601         56.1592         331.722 
        1.06777         286.603         54.6807         327.971 
           1.08         280.059         53.2571         324.366 
        1.09227          279.39         51.8798         320.476 
         1.1046         273.797         50.5463         317.461 
         1.1169         267.955         49.2622         313.263 
        1.12915         264.215         48.0292         310.077 
        1.14142         258.859         46.8361         306.436 
        1.15365         255.965         45.6871         303.226 
        1.16585         251.538         44.5799         299.844 
        1.17807         249.095         43.5082         296.592 
        1.19037         244.694         42.4648         294.088 
        1.20276         241.699         41.4487          290.25 
        1.21504         236.671          40.474         286.996 
        1.22728         233.207         39.5347         283.882 
        1.23954         231.833         38.6231         281.039 
        1.25184         226.491         37.7387         278.079 
        1.26414         221.968         36.8816         275.453 
        1.27632          220.11         36.0589         272.925 
         1.2886         218.099         35.2556         269.832 
        1.30093          213.16          34.474         266.412 
        1.31316         208.644         33.7219         263.869 
        1.32541         207.546         32.9921         261.066 
        1.33772         203.856         32.2799         258.703 
        1.35005         201.451         31.5884          255.78 
        1.36225         197.557         30.9241         253.391 
        1.37447         194.444         30.2778         250.322 
        1.38676         192.578         29.6471         248.561 
        1.39907         189.757         29.0332         245.525 
        1.41133         186.085         28.4395         242.961 
        1.42358         183.832          27.863         240.678 
        1.43591         181.409         27.2985         238.525 
        1.44818         177.913         26.7528         236.011 
        1.46037         176.434         26.2253         233.477 
        1.47263         172.947         25.7092         231.274 
        1.48494         171.496         25.2049         228.502 
        1.49724         168.466         24.7147          227.07 
        1.50952         165.454         24.2385         224.439 
        1.52178         163.657         23.7755         222.201 
        1.53409         160.706         23.3228         220.179 
        1.54637          158.23         22.8829          218.36 
        1.55858         156.501         22.4568         216.036 
        1.57081         153.743          22.041         213.946 
        1.58313         151.756         21.6332         211.772 
        1.59544         148.954         21.2359         209.886 
        1.60767         147.565         20.8511         208.023 
        1.61994         145.057         20.4746         205.937 
        1.63225         142.739         20.1066         203.848 
        1.64452         140.456         19.7487         202.042 
        1.65676         138.674         19.4006          200.31 
          1.669         137.066         19.0606         198.318 
        1.68133         134.372         18.7267         196.508 
        1.69363         132.046         18.4017         194.874 
        1.70585         129.989         18.0866          193.06 
        1.71809         128.299         17.7782         190.993 
        1.73038         126.682          17.476         189.402 
        1.74268         125.514         17.1807         187.548 
        1.75493         122.603         16.8935         186.034 
        1.76714         122.004         16.6137         184.408 
        1.77942         119.433         16.3388         182.687 
        1.79173         117.655         16.0694         180.971 
        1.80402         116.096         15.8066         179.361 
         1.8163         113.997         15.5499         177.932 
         1.8286         112.486         15.2985         176.185 
         1.8409         111.142         15.0528         174.552 
        1.85315         108.922         14.8133         173.121 
        1.86537         107.883         14.5796          171.66 
        1.87765          106.52           14.35         170.191 
        1.88995         104.558         14.1248         168.563 
        1.90221          103.29         13.9052         167.254 
        1.91445         101.726         13.6907         165.644 
        1.92674         100.098         13.4799         164.183 
        1.93902         98.8942         13.2736         162.703 
        1.95124         97.5163         13.0727         161.336 
         1.9635         95.9007         12.8755         159.933 
        1.97583         94.4334          12.681         158.519 
        1.98812         93.0739         12.4914         157.396 
        2.00039         92.0291          12.306         155.876 
        2.01264         90.8861         12.1245         154.594 
        2.02492          89.615         11.9464         153.176 
        2.03717         88.2419         11.7722         151.977 
        2.04942         87.1169         11.6017         150.675 
        2.06171          85.576          11.434         149.336 
        2.07397         84.5756           11.27         148.203 
        2.08629         83.2778         11.1085         146.908 
        2.09857         82.2857         10.9506         145.735 
        2.11081         80.9464         10.7964          144.39 
        2.12309         79.9329         10.6448          143.29 
        2.13538         78.6232         10.4959         142.037 
        2.14763         77.5523         10.3503         140.884 
        2.15986         76.6856         10.2079         139.626 
        2.17214         75.5888         10.0675         138.555 
        2.18443         74.6564         9.92968         137.565 
        2.19671         73.7039         9.79458         136.365 
        2.20898         72.7362         9.66215         135.139 
        2.22126         71.6652         9.53203         134.151 
        2.23354         70.7871         9.40436         133.081 
         2.2458         69.4106         9.27924         131.955 
        2.25807         68.7273         9.15629         130.902 
        2.27035         67.7321         9.03547         129.839 
        2.28263         66.9038         8.91688         128.852 
         2.2949         65.6075         8.80048         127.834 
        2.30718          64.729         8.68613         126.783 
        2.31946          64.143         8.57375           125.7 
        2.33169         63.1243         8.46385         124.759 
        2.34393         62.6024          8.3557         123.883 
        2.35622         61.5002          8.2491         122.824 
        2.36847         60.8906         8.14465         121.975 
        2.38076         59.7956         8.04171         120.901 
        2.39305         59.2296         7.94057         120.067 
        2.40534         58.3376         7.84116         119.066 
        2.41762         57.7143         7.74347         118.117 
        2.42989         56.8008         7.64759          117.26 
        2.44216         56.2869         7.55335          116.28 
         2.4544         55.3927         7.46091         115.443 
        2.46667         54.6158         7.36981         114.562 
        2.47897         54.1017         7.28001         113.613 
        2.49124         53.4723         7.19195         112.768 
        2.50349         52.5753         7.10548         111.934 
        2.51578         52.1991         7.02017         111.172 
        2.52805         51.3841         6.93642         110.244 
        2.54029         50.8743         6.85424         109.405 
        2.55257         50.2086         6.77314         108.648 
        2.56487         49.8842          6.6932         107.838 
        2.57716         49.3106         6.61467         107.033 
        2.58942         48.5044         6.53757         106.246 
        2.60167         47.9758         6.46177         105.476 
        2.61395         47.6287         6.38706         104.676 
        2.62624         46.8256         6.31343         103.846 
        2.63849          46.332          6.2412         103.124 
        2.65073         45.7126         6.17017         102.367 
        2.66302          45.329         6.09999         101.614 
         2.6753         44.7388         6.03095         100.902 
        2.68756         44.4166         5.96312         100.134 
        2.69983           43.86         5.89629         99.4208 
        2.71213         43.3636         5.83033          98.713 
        2.72441         42.9721         5.76551         97.9869 
        2.73665         42.4962         5.70183         97.3169 
         2.7489         42.0365         5.63914         96.6346 
        2.76118         41.6437         5.57721          95.913 
        2.77349         41.1918         5.51606         95.2511 
        2.78576         40.8062         5.45606         94.5522 
        2.79802         40.4527         5.39699         93.9478 
        2.81031         39.9124         5.33866         93.2618 
        2.82259         39.5339         5.28121         92.5692 
        2.83483         39.1085         5.22483         91.9672 
         2.8471         38.7408         5.16916          91.299 
         2.8594         38.3437         5.11413         90.6522 
         2.8717         38.0796         5.05992         90.0681 
        2.88396         37.7587          5.0067         89.4389 
        2.89619         37.4503         4.95434         88.7741 
        2.90847         37.0881         4.90253         88.1279 
        2.92072         36.8033         4.85155          87.586 
        2.93299          36.657         4.80127         87.0047 
        2.94526         36.2836         4.75166         86.3883 
        2.95753         36.0476         4.70276         85.7861 
        2.96982         35.6722         4.65447         85.2181 
        2.98209         35.5445         4.60695         84.6456 
        2.99436         35.2544         4.56006         84.0403 
        3.00666         35.1162         4.51374         83.4786 
        3.01894         34.8891         4.46816         82.9278 
        3.03119          34.655         4.42326         82.3955 
        3.04345         34.4494         4.37899         81.8532 
        3.05573         34.3534         4.33523         81.2958 
          3.068         34.1382         4.29211         80.7604 
        3.08026         33.9464         4.24963         80.2207 
        3.09254         33.8765         4.20764         79.6983 
        3.10483          33.874         4.16621         79.1768 
         3.1171         33.6923         4.12539         78.6466 
        3.12933          33.459         4.08524         78.1243 
        3.14159         33.4663         4.04553         77.6038 
