# k  (h/Mpc)    P(k)  (Mpc/h)^3    P_linear(k)  (Mpc/h)^3     P_NL(k)  ShotnoiseSubtracted = false
      0.0156606         5802.25         5811.98         5780.63 
      0.0273761         5017.59         5020.13         4999.76 
      0.0384619          3809.2         3780.31          3768.5 
      0.0498308         2973.72         2972.65         2962.87 
      0.0625568         2508.51         2525.92         2515.43 
      0.0751274         2189.72          2145.8         2129.26 
      0.0867833         1724.41         1727.49         1724.22 
      0.0984825         1412.17         1367.02         1375.54 
       0.111151          1187.7         1141.39         1150.03 
       0.123864         1066.98         1028.59         1035.78 
       0.135742         961.272         924.942          932.32 
        0.14762         819.966         790.859         808.436 
       0.160083         681.004         659.217         679.227 
       0.172465         603.744         575.365         599.862 
       0.184281         558.962         530.414         556.337 
       0.196406         510.326         489.832         510.431 
       0.209011         464.078         435.823         458.592 
       0.221538         415.547         380.866         412.698 
       0.233611         378.903         340.775         376.347 
       0.245665         355.214         314.521         346.305 
       0.258103         324.249         292.791         324.445 
       0.270422         302.096          269.04         300.222 
       0.282519         275.046         244.168         277.024 
       0.294636         268.099         222.464         257.119 
       0.306978         236.684         205.816         241.808 
       0.319417          226.63         192.426         227.052 
        0.33169         211.519         179.609         213.048 
       0.343948         201.849         166.418         201.208 
       0.356249         186.997         154.047         190.894 
       0.368458         179.889         143.685         178.709 
        0.38068         170.203         135.021         169.636 
       0.392856         158.715         127.111          161.86 
       0.405069         151.209         119.376          154.08 
       0.417459         143.547         111.887          145.81 
       0.429752         137.968         105.165         139.377 
       0.441978         132.305         99.2642         134.269 
       0.454294         123.104         93.9062         127.338 
        0.46658         123.224         88.8788         122.542 
       0.478753         115.194         84.1361         117.783 
       0.490964         111.687         79.6809         113.157 
       0.503334         106.671         75.5694         108.875 
       0.515665         103.047         71.8199         105.816 
       0.527909         99.3934         68.3584         100.706 
       0.540159         95.9266         65.0833          97.575 
        0.55248          91.565          61.976         93.9766 
       0.564743         89.4085          59.099          91.224 
        0.57686         86.6363         56.4546         88.1387 
       0.589077         82.4219         53.9584         85.7388 
       0.601441         80.3648         51.5848         83.1763 
        0.61382         78.3767         49.3468         80.3571 
       0.626067         75.1281         47.2584         78.2318 
       0.638306         72.8432         45.2919         75.9421 
       0.650632         70.2995         43.4286         73.2873 
       0.662899         69.3284         41.6826         71.3442 
       0.675076         66.6388         40.0463         69.4806 
       0.687267         65.5088         38.4957         67.6225 
       0.699615         63.2386         37.0079         66.1946 
       0.711937         60.9625         35.6014          64.037 
       0.724148         60.5885         34.2799         63.0282 
       0.736433         57.5446          33.019         61.2092 
       0.748747         56.7455         31.8196         59.7307 
       0.761037         55.2225         30.6827         58.3219 
       0.773197         54.0033         29.6131         57.3576 
       0.785376         52.2983         28.5933         55.8645 
       0.797761         51.7823         27.6058         54.8306 
       0.810096         50.2573         26.6687         53.5144 
       0.822371          49.215         25.7798         52.2983 
       0.834626         47.9365          24.933         51.4302 
       0.846916         46.9098         24.1222         50.3385 
       0.859215         45.6295         23.3472         49.2499 
       0.871383         45.0172         22.6142         48.3882 
        0.88363         43.8456         21.9084         47.5997 
       0.895928         42.8344         21.2302         46.5659 
       0.908253         41.9415         20.5796         45.8227 
       0.920535         41.4326         19.9586           44.94 
       0.932774         40.6734         19.3655         44.1485 
        0.94508         39.9497         18.7936         43.2549 
       0.957324         38.9973         18.2477          42.602 
        0.96953         38.5095         17.7253         41.7911 
       0.981769         37.4997         17.2221         41.2211 
       0.994071         36.8662         16.7362         40.5335 
         1.0064         36.0686         16.2682          39.862 
        1.01868         35.3626         15.8196         39.2763 
        1.03092         35.0236           15.39         38.6152 
         1.0432         34.2721         14.9749         37.9069 
        1.05553         33.5491         14.5735         37.5961 
        1.06777         32.8591         14.1898          36.872 
           1.08         32.1125         13.8204         36.3047 
        1.09227         31.7652          13.463         35.8673 
         1.1046         31.3035         13.1169         35.2657 
         1.1169         30.8591         12.7837         34.7721 
        1.12915         30.3906         12.4638         34.3105 
        1.14142         29.6451         12.1541         33.8226 
        1.15365         29.3205          11.856         33.3909 
        1.16585         28.9025         11.5687         32.9318 
        1.17807         28.3509         11.2906         32.3944 
        1.19037         28.1631         11.0198         32.1368 
        1.20276          27.743         10.7561         31.6637 
        1.21504         27.1772         10.5032         31.3291 
        1.22728         26.7145         10.2594         30.8879 
        1.23954         26.4022         10.0229         30.4363 
        1.25184          25.901         9.79335         30.1148 
        1.26414         25.5965         9.57093         29.7057 
        1.27632         25.3057         9.35744         29.3517 
         1.2886         25.0363         9.14898         29.0326 
        1.30093         24.4603         8.94616         28.7042 
        1.31316         24.1731         8.75097         28.3591 
        1.32541         23.9291         8.56159         28.0653 
        1.33772         23.5006         8.37678         27.7456 
        1.35005         23.1885         8.19732         27.4599 
        1.36225         22.8811         8.02495         27.1595 
        1.37447         22.3954         7.85722         26.8174 
        1.38676         22.2673         7.69354         26.5774 
        1.39907         21.9209         7.53425          26.295 
        1.41133         21.5556         7.38018         25.9817 
        1.42358         21.3362         7.23056         25.7064 
        1.43591         21.0009         7.08408         25.4803 
        1.44818         20.7807         6.94248         25.2131 
        1.46037         20.6175         6.80559         24.9131 
        1.47263         20.3081         6.67164         24.7224 
        1.48494         20.0932         6.54079         24.4336 
        1.49724         19.9347         6.41356         24.2179 
        1.50952         19.5453         6.28999         24.0156 
        1.52178         19.3292         6.16985         23.7371 
        1.53409          19.042         6.05238         23.5217 
        1.54637         18.9398         5.93821         23.2607 
        1.55858         18.5543         5.82764         23.0697 
        1.57081          18.433         5.71974         22.8692 
        1.58313         18.2473          5.6139         22.6408 
        1.59544         17.9232          5.5108         22.4592 
        1.60767          17.758         5.41096         22.2197 
        1.61994         17.4674         5.31325         22.0479 
        1.63225         17.4089         5.21775         21.8886 
        1.64452         17.1354         5.12486         21.6978 
        1.65676         16.9577         5.03454         21.4751 
          1.669         16.8101         4.94632          21.299 
        1.68133         16.4975         4.85966          21.108 
        1.69363          16.339         4.77534         20.8691 
        1.70585         16.1497         4.69355         20.7708 
        1.71809          15.964         4.61352          20.576 
        1.73038            15.8          4.5351         20.4259 
        1.74268         15.6769         4.45846         20.2181 
        1.75493         15.4015         4.38395         20.0669 
        1.76714         15.3954         4.31133         19.9041 
        1.77942         15.2115         4.23999         19.7214 
        1.79173         14.8935         4.17008          19.586 
        1.80402         14.7772          4.1019         19.4537 
         1.8163         14.6637         4.03527         19.2705 
         1.8286           14.46         3.97002         19.1374 
         1.8409         14.3076         3.90627         18.9874 
        1.85315         14.1938         3.84413         18.8326 
        1.86537         14.0201         3.78346         18.6957 
        1.87765         13.9149         3.72388         18.5479 
        1.88995         13.6973         3.66545         18.4062 
        1.90221         13.6091         3.60847         18.2541 
        1.91445         13.4588         3.55279         18.1253 
        1.92674         13.3166          3.4981         17.9873 
        1.93902         13.1684         3.44456         17.8815 
        1.95124         12.9933         3.39243         17.7705 
         1.9635         12.8779         3.34124         17.6039 
        1.97583         12.7569         3.29079         17.4543 
        1.98812          12.647         3.24157         17.3501 
        2.00039         12.5695         3.19345          17.227 
        2.01264         12.4324         3.14636         17.1177 
        2.02492         12.3031         3.10015         16.9699 
        2.03717         12.1518         3.05495          16.857 
        2.04942         12.0258          3.0107         16.7325 
        2.06171         11.9655         2.96718         16.6176 
        2.07397         11.8338         2.92462         16.5109 
        2.08629         11.7332         2.88272         16.4053 
        2.09857         11.6353         2.84174         16.2844 
        2.11081         11.5086         2.80172         16.1876 
        2.12309         11.3619         2.76238         16.0568 
        2.13538         11.2442         2.72374         15.9456 
        2.14763         11.1633         2.68596         15.8477 
        2.15986         11.1294         2.64899         15.7591 
        2.17214         10.9961         2.61257         15.6304 
        2.18443         10.8496          2.5768         15.5374 
        2.19671         10.8116         2.54174         15.4273 
        2.20898         10.6777         2.50737         15.3372 
        2.22126          10.556         2.47361         15.2332 
        2.23354         10.5176         2.44048         15.1215 
         2.2458         10.3841         2.40801         15.0507 
        2.25807         10.2985          2.3761         14.9252 
        2.27035          10.223         2.34475         14.8376 
        2.28263         10.1374         2.31397         14.7377 
         2.2949         10.0304         2.28377         14.6545 
        2.30718         9.96035         2.25409         14.5761 
        2.31946          9.8588         2.22493         14.4753 
        2.33169         9.77656         2.19641         14.3872 
        2.34393         9.69676         2.16834         14.2941 
        2.35622         9.61774         2.14068         14.2091 
        2.36847         9.54113         2.11358         14.1181 
        2.38076         9.46393         2.08686         14.0314 
        2.39305         9.34139         2.06062         13.9361 
        2.40534         9.29836         2.03482         13.8431 
        2.41762         9.22911         2.00947         13.7815 
        2.42989         9.16511         1.98459         13.6927 
        2.44216          9.0819         1.96013         13.5987 
         2.4544         9.00536         1.93614         13.5214 
        2.46667         8.96464          1.9125         13.4459 
        2.47897         8.88976          1.8892         13.3519 
        2.49124         8.78459         1.86635         13.2762 
        2.50349         8.73613         1.84391         13.2017 
        2.51578         8.66686         1.82177         13.1322 
        2.52805         8.61257         1.80004         13.0552 
        2.54029         8.53471         1.77871         12.9809 
        2.55257         8.50616         1.75766         12.8995 
        2.56487         8.38141         1.73692         12.8165 
        2.57716         8.34685         1.71654         12.7466 
        2.58942          8.3142         1.69653         12.6819 
        2.60167         8.25883         1.67686         12.6084 
        2.61395         8.18848         1.65747         12.5341 
        2.62624         8.12552         1.63837         12.4627 
        2.63849         8.08627         1.61962         12.3984 
        2.65073         8.03394         1.60119         12.3189 
        2.66302         7.96967         1.58298         12.2475 
         2.6753         7.93732         1.56506         12.1772 
        2.68756          7.8955         1.54746         12.1215 
        2.69983         7.82644         1.53012         12.0401 
        2.71213         7.78955           1.513         11.9705 
        2.72441         7.72719         1.49618         11.9082 
        2.73665         7.73076         1.47965         11.8351 
         2.7489         7.67102         1.46339         11.7687 
        2.76118         7.59689         1.44731         11.7145 
        2.77349         7.57344         1.43144         11.6474 
        2.78576         7.55056         1.41588         11.5843 
        2.79802         7.49889         1.40055         11.5179 
        2.81031          7.4747         1.38541         11.4586 
        2.82259         7.42016          1.3705         11.3952 
        2.83483         7.38254         1.35587         11.3316 
         2.8471          7.3679         1.34142         11.2757 
         2.8594         7.35489         1.32714         11.2157 
         2.8717         7.30626         1.31307         11.1475 
        2.88396         7.26894         1.29926         11.0903 
        2.89619         7.21863         1.28568         11.0374 
        2.90847         7.21179         1.27223          10.972 
        2.92072         7.21776           1.259         10.9105 
        2.93299         7.17064         1.24595         10.8605 
        2.94526         7.15692         1.23308         10.8017 
        2.95753         7.12973         1.22039         10.7418 
        2.96982         7.10116         1.20786         10.6859 
        2.98209         7.09216         1.19553         10.6242 
        2.99436         7.09197         1.18336         10.5697 
        3.00666         7.07958         1.17134         10.5189 
        3.01894         7.04525         1.15951         10.4648 
        3.03119         7.04628         1.14786         10.4076 
        3.04345         7.03372         1.13637         10.3514 
        3.05573         7.03751         1.12501         10.2987 
          3.068         7.02591         1.11383         10.2479 
        3.08026           7.049          1.1028         10.1935 
        3.09254         7.03776          1.0919         10.1405 
        3.10483         7.01384         1.08115          10.093 
         3.1171          7.0288         1.07056         10.0426 
        3.12933         7.04755         1.06014         9.98738 
        3.14159         7.01695         1.04984         9.93884 
