# k  (h/Mpc)    Pcb(k)  (Mpc/h)^3    Pcb_linear(k) (Mpc/h)^3    Pcb_NL(k) (Mpc/h)^3   ShotnoiseSubtracted = false
      0.0156606           19782           19882         19731.5 
      0.0273761           16972         17189.9         17017.2 
      0.0384619           12842         12950.5         12799.7 
      0.0498308         9926.69         10186.3         10035.4 
      0.0625568         8384.95         8657.01         8521.86 
      0.0751274         7457.06         7355.01         7164.35 
      0.0867833         5782.86         5921.57         5863.44 
      0.0984825         4872.83         4686.14         4740.82 
       0.111151         4161.14         3912.83         3979.16 
       0.123864         3728.96         3526.24         3580.16 
       0.135742         3395.26         3170.96         3225.27 
        0.14762         2950.83         2711.33         2855.61 
       0.160083          2498.1         2260.04         2436.69 
       0.172465         2228.17         1972.58         2197.13 
       0.184281         2024.32         1818.49          2044.7 
       0.196406         1901.11         1679.36         1881.39 
       0.209011         1774.15          1494.2         1704.05 
       0.221538         1598.72         1305.79         1587.39 
       0.233611         1526.39         1168.34         1484.77 
       0.245665         1386.13         1078.34         1370.04 
       0.258103         1364.53         1003.84         1292.82 
       0.270422         1218.44         922.411         1213.12 
       0.282519         1146.82          837.14         1145.65 
       0.294636         1129.49         762.727         1083.87 
       0.306978         1027.52          705.65         1037.48 
       0.319417         1003.89         659.742         977.792 
        0.33169         944.583         615.798         924.911 
       0.343948         904.635         570.573         895.646 
       0.356249         855.449         528.159         861.619 
       0.368458         824.419         492.634         821.559 
        0.38068         807.433         462.926         789.389 
       0.392856         765.239         435.806         760.922 
       0.405069         727.833         409.289         737.032 
       0.417459         699.749         383.612         708.763 
       0.429752         692.172         360.564         683.855 
       0.441978         668.102         340.334         665.984 
       0.454294         637.141         321.964         638.394 
        0.46658         619.882         304.728         624.799 
       0.478753          606.48         288.467         605.309 
       0.490964         582.946         273.194         586.519 
       0.503334         556.196         259.095         572.818 
       0.515665         554.778          246.24         560.223 
       0.527909         532.447         234.372         547.364 
       0.540159         518.905         223.145          532.93 
        0.55248         508.674         212.491         518.936 
       0.564743         504.388         202.626         510.018 
        0.57686         486.042          193.56         496.202 
       0.589077         474.489         185.001         485.123 
       0.601441         466.115         176.863         475.245 
        0.61382         454.206          169.19         466.936 
       0.626067         448.587          162.03         457.727 
       0.638306         431.512         155.287         448.704 
       0.650632           426.9         148.899         437.237 
       0.662899         423.091         142.913         432.119 
       0.675076         407.883         137.302         425.488 
       0.687267         396.998         131.986         415.334 
       0.699615          393.65         126.885         408.744 
       0.711937         387.025         122.063         401.263 
       0.724148         373.989         117.532         395.568 
       0.736433         365.267         113.209         388.243 
       0.748747         360.522         109.097         381.232 
       0.761037         353.712         105.199         376.246 
       0.773197          349.16         101.532         370.475 
       0.785376         343.887         98.0351         364.842 
       0.797761         334.245         94.6492         359.091 
       0.810096         331.472         91.4365         354.585 
       0.822371         320.791         88.3887         348.753 
       0.834626         318.683         85.4853          344.32 
       0.846916         312.305         82.7055         339.038 
       0.859215         310.938         80.0484         334.183 
       0.871383         303.058         77.5351         329.584 
        0.88363         300.887         75.1153         326.206 
       0.895928         295.121         72.7901         321.038 
       0.908253         287.654         70.5594         315.888 
       0.920535         284.201         68.4302          312.03 
       0.932774         277.942         66.3966         307.546 
        0.94508          274.23         64.4359         304.357 
       0.957324         272.663         62.5643         300.177 
        0.96953         268.709         60.7732         296.398 
       0.981769          261.38         59.0479         293.277 
       0.994071         260.379         57.3818         289.611 
         1.0064         254.848         55.7774         285.369 
        1.01868         251.901         54.2393         281.757 
        1.03092         244.789         52.7663         279.176 
         1.0432         241.624          51.343         275.787 
        1.05553         238.681         49.9668         272.093 
        1.06777         237.103         48.6513         269.196 
           1.08         231.327         47.3847         266.084 
        1.09227          229.38         46.1593         262.932 
         1.1046         225.588         44.9728         260.349 
         1.1169         220.441         43.8303         256.814 
        1.12915         217.563         42.7333         254.442 
        1.14142         213.751         41.6717         251.258 
        1.15365         210.923         40.6495         248.608 
        1.16585         207.342         39.6644         245.619 
        1.17807         205.016         38.7109         243.376 
        1.19037         202.438         37.7825         241.174 
        1.20276         199.558         36.8784         238.052 
        1.21504         195.237         36.0112         235.447 
        1.22728         192.026         35.1755         232.521 
        1.23954         191.183         34.3644         230.688 
        1.25184         187.212         33.5775         228.142 
        1.26414         183.676         32.8149         225.883 
        1.27632         182.806          32.083         224.061 
         1.2886         181.234         31.3682         221.311 
        1.30093         176.159         30.6728         218.713 
        1.31316         172.963         30.0036         216.325 
        1.32541         171.755         29.3543         214.421 
        1.33772         169.699         28.7207         212.259 
        1.35005         167.095         28.1054         209.878 
        1.36225         164.165         27.5144         207.938 
        1.37447         161.868         26.9393         205.396 
        1.38676         159.995         26.3781         203.794 
        1.39907         157.474          25.832         201.495 
        1.41133         154.766         25.3037         199.562 
        1.42358         152.916         24.7908         197.682 
        1.43591         151.067         24.2885         195.696 
        1.44818         148.539          23.803         193.822 
        1.46037         146.773         23.3337         191.777 
        1.47263         144.537         22.8744         190.196 
        1.48494         142.542         22.4258         187.863 
        1.49724          140.51         21.9896         186.473 
        1.50952         137.923         21.5659         184.567 
        1.52178         137.173          21.154         182.552 
        1.53409         134.208         20.7512         181.034 
        1.54637         132.588         20.3598         179.531 
        1.55858         130.471         19.9807         177.575 
        1.57081         128.491         19.6107         176.035 
        1.58313         126.769         19.2479          174.24 
        1.59544         124.623         18.8944         172.704 
        1.60767         123.626         18.5521         171.116 
        1.61994         121.316          18.217         169.647 
        1.63225         119.772         17.8896         167.788 
        1.64452         117.596         17.5712         166.285 
        1.65676         115.922         17.2615         164.874 
          1.669         115.017          16.959         163.429 
        1.68133         112.565         16.6619         161.934 
        1.69363         110.938         16.3728         160.488 
        1.70585         109.009         16.0923          159.07 
        1.71809         107.692          15.818         157.375 
        1.73038         106.877         15.5491         156.119 
        1.74268           105.7         15.2863         154.625 
        1.75493         103.009         15.0308         153.308 
        1.76714         102.323         14.7819         152.047 
        1.77942         100.537         14.5373         150.511 
        1.79173         99.0258         14.2976         149.279 
        1.80402         98.1707         14.0638         147.961 
         1.8163         96.0716         13.8354         146.651 
         1.8286         94.8315         13.6116         145.312 
         1.8409         94.1624         13.3931         143.972 
        1.85315         92.2849           13.18         142.818 
        1.86537         91.3807          12.972         141.633 
        1.87765         90.3651         12.7677         140.417 
        1.88995           88.78         12.5674         139.157 
        1.90221         87.5641          12.372         138.007 
        1.91445         86.4843         12.1811           136.7 
        1.92674         85.0318         11.9936         135.553 
        1.93902         83.8977         11.8101         134.339 
        1.95124         82.9368         11.6313          133.22 
         1.9635         81.5677         11.4558         132.025 
        1.97583         80.3253         11.2828         130.973 
        1.98812         79.3133         11.1141         129.926 
        2.00039         78.3626         10.9491         128.749 
        2.01264         77.3842         10.7876         127.687 
        2.02492         76.5313         10.6292         126.561 
        2.03717         75.1979         10.4742         125.514 
        2.04942         74.6957         10.3225         124.543 
        2.06171         72.9871         10.1733         123.461 
        2.07397         72.2177         10.0274         122.476 
        2.08629         71.3575         9.88371         121.413 
        2.09857         70.2947          9.7432         120.438 
        2.11081         69.1117           9.606         119.324 
        2.12309         68.1695         9.47111         118.488 
        2.13538         67.3321         9.33862         117.446 
        2.14763         66.4712         9.20911         116.511 
        2.15986         65.4196         9.08236         115.495 
        2.17214         64.7603         8.95748         114.554 
        2.18443          63.929         8.83483         113.786 
        2.19671         62.7862         8.71463         112.811 
        2.20898         62.2881          8.5968          111.83 
        2.22126         61.3575         8.48103         110.953 
        2.23354         60.6608         8.36743         110.087 
         2.2458         59.5909         8.25611         109.219 
        2.25807         58.8577         8.14672          108.31 
        2.27035         58.1012         8.03921         107.426 
        2.28263         57.3182          7.9337         106.587 
         2.2949         56.5497         7.83014         105.753 
        2.30718         55.6257          7.7284         104.941 
        2.31946         55.2761         7.62841         104.052 
        2.33169         54.2592         7.53062          103.26 
        2.34393         53.7769          7.4344         102.502 
        2.35622         52.8428         7.33955         101.683 
        2.36847         52.4515         7.24662         100.989 
        2.38076         51.5407         7.15503         100.069 
        2.39305         50.9587         7.06504         99.3917 
        2.40534         50.3402          6.9766         98.5729 
        2.41762         49.7576         6.88968         97.7685 
        2.42989         49.0076         6.80437         97.0867 
        2.44216          48.493         6.72052         96.2854 
         2.4544         47.7763         6.63827         95.5691 
        2.46667         47.2352         6.55721         94.8234 
        2.47897          46.715         6.47732         94.0794 
        2.49124         46.1601         6.39897         93.4084 
        2.50349         45.8088         6.32203         92.6794 
        2.51578         45.0167         6.24613         92.0726 
        2.52805         44.5116         6.17161          91.302 
        2.54029         44.0732         6.09849          90.574 
        2.55257         43.4675         6.02634         89.9561 
        2.56487         43.1497         5.95521         89.3255 
        2.57716         42.4721         5.88533         88.6562 
        2.58942         41.8929         5.81674         87.9803 
        2.60167         41.5122          5.7493         87.3427 
        2.61395         40.9537         5.68283         86.7058 
        2.62624         40.5566         5.61732         86.0086 
        2.63849         40.0448         5.55305         85.4005 
        2.65073         39.6951         5.48985         84.7736 
        2.66302         39.1868         5.42741         84.1356 
         2.6753         38.7745         5.36598         83.5524 
        2.68756         38.3595         5.30563         82.9231 
        2.69983          37.901         5.24616         82.3607 
        2.71213         37.5388         5.18748         81.7727 
        2.72441         37.1582         5.12981         81.1702 
        2.73665         36.6428         5.07315         80.5986 
         2.7489         36.3669         5.01737          80.028 
        2.76118         35.9672         4.96227         79.4576 
        2.77349         35.5858         4.90786         78.8913 
        2.78576         35.2857         4.85448         78.2961 
        2.79802         34.9383         4.80192         77.8226 
        2.81031         34.4959         4.75002         77.2495 
        2.82259         34.3847         4.69891         76.6767 
        2.83483         33.9094         4.64874         76.1856 
         2.8471         33.6083         4.59921         75.6377 
         2.8594         33.3186         4.55025         75.0875 
         2.8717          33.166         4.50201         74.5929 
        2.88396         32.7553         4.45466          74.066 
        2.89619          32.606         4.40807         73.5132 
        2.90847         32.2116         4.36198         72.9941 
        2.92072         32.0386         4.31662         72.5336 
        2.93299         31.8686         4.27188         72.0469 
        2.94526         31.5165         4.22774         71.5512 
        2.95753         31.3153         4.18423         71.0501 
        2.96982         31.0856         4.14127         70.5705 
        2.98209         30.8488         4.09899         70.1061 
        2.99436         30.6182         4.05727         69.5954 
        3.00666         30.5868         4.01606         69.1353 
        3.01894         30.2596          3.9755         68.6618 
        3.03119         30.2163         3.93556         68.2188 
        3.04345          30.091         3.89616         67.7838 
        3.05573         29.7428         3.85723         67.3252 
          3.068         29.7463         3.81886         66.8745 
        3.08026         29.5677         3.78106         66.4243 
        3.09254          29.502         3.74371         65.9922 
        3.10483         29.4656         3.70684         65.5636 
         3.1171         29.2676         3.67053         65.1274 
        3.12933         29.1872          3.6348           64.69 
        3.14159         29.0695         3.59947         64.2482 
