# k  (h/Mpc)    Pcb(k)  (Mpc/h)^3    Pcb_linear(k) (Mpc/h)^3    Pcb_NL(k) (Mpc/h)^3   ShotnoiseSubtracted = false
      0.0156606         18681.9         18771.4         18632.1 
      0.0273761         16038.5         16230.1         16073.6 
      0.0384619         12141.1         12227.6         12092.2 
      0.0498308          9391.9         9617.77         9482.72 
      0.0625568         7933.35         8173.88         8052.48 
      0.0751274         7049.73         6944.57         6772.91 
      0.0867833         5471.59         5591.13         5539.26 
      0.0984825         4603.27         4424.65            4475 
       0.111151         3927.39          3694.5         3754.77 
       0.123864         3520.91         3329.48         3378.61 
       0.135742         3203.38         2994.03         3043.62 
        0.14762         2781.41         2560.04         2691.75 
       0.160083          2350.5         2133.94         2294.54 
       0.172465         2096.71         1862.52         2066.43 
       0.184281         1908.11         1717.02         1922.99 
       0.196406         1787.51         1585.66         1768.44 
       0.209011         1665.97         1410.83         1601.06 
       0.221538         1502.13         1232.94         1489.32 
       0.233611         1430.54         1103.16         1391.39 
       0.245665         1301.15         1018.17         1283.29 
       0.258103         1276.17          947.83         1210.51 
       0.270422         1141.24         870.945         1135.06 
       0.282519         1071.79         790.431         1070.38 
       0.294636          1057.5         720.171         1011.86 
       0.306978         959.681         666.279         967.843 
       0.319417         936.016         622.932         911.934 
        0.33169         881.383          581.44         862.025 
       0.343948         843.204         538.738         834.214 
       0.356249         796.513         498.691         802.023 
       0.368458         769.125         465.148         763.779 
        0.38068         751.241         437.097         733.369 
       0.392856         711.295         411.491         706.423 
       0.405069         677.763         386.452         684.448 
       0.417459         651.534         362.209         657.039 
       0.429752         642.375         340.446         633.826 
       0.441978         620.357         321.345         616.937 
       0.454294          590.86             304         591.118 
        0.46658         575.704         287.726         578.201 
       0.478753         562.403         272.372         559.859 
       0.490964         540.988         257.951         542.273 
       0.503334         515.124         244.639         529.246 
       0.515665         514.068         232.501         517.692 
       0.527909         493.968         221.296         505.245 
       0.540159         481.508         210.695         491.661 
        0.55248         472.155         200.635         478.647 
       0.564743         467.928         191.321           470.3 
        0.57686          450.43          182.76         457.354 
       0.589077         438.565         174.679         447.116 
       0.601441         432.064         166.995         437.773 
        0.61382         421.773          159.75         430.019 
       0.626067          416.34          152.99         421.306 
       0.638306         400.084         146.623         413.098 
       0.650632         395.417         140.591         402.189 
       0.662899         391.972         134.939          397.48 
       0.675076         377.467         129.642          391.03 
       0.687267         367.844         124.622         381.713 
       0.699615         364.036         119.806         375.585 
       0.711937         358.448         115.252         368.774 
       0.724148         346.498         110.975         363.423 
       0.736433         338.634         106.893         356.536 
       0.748747         334.172          103.01         350.018 
       0.761037         327.907         99.3293         345.232 
       0.773197         323.988         95.8667         340.105 
       0.785376         319.041         92.5653         334.741 
       0.797761          310.58         89.3683         329.447 
       0.810096         308.019         86.3349          325.24 
       0.822371         297.502         83.4571         319.873 
       0.834626         296.115         80.7158         315.633 
       0.846916         289.856         78.0911         310.857 
       0.859215         289.422         75.5822         306.417 
       0.871383         281.881         73.2091         302.085 
        0.88363         280.221         70.9243         298.976 
       0.895928         274.411         68.7288          294.22 
       0.908253          267.42         66.6226         289.509 
       0.920535         265.119         64.6122         285.827 
       0.932774         258.426         62.6921         281.804 
        0.94508         255.433         60.8408         278.869 
       0.957324         254.347         59.0736         274.956 
        0.96953         250.665         57.3824         271.384 
       0.981769          243.53         55.7534         268.619 
       0.994071         242.652         54.1802         265.218 
         1.0064         237.436         52.6653         261.307 
        1.01868          234.56          51.213         258.061 
        1.03092         228.665         49.8222         255.617 
         1.0432         225.252         48.4783         252.502 
        1.05553         222.445          47.179         249.178 
        1.06777         221.605         45.9369          246.58 
           1.08         216.191         44.7409         243.647 
        1.09227         213.909         43.5839         240.827 
         1.1046         210.698         42.4636         238.417 
         1.1169         206.213         41.3849         235.156 
        1.12915         203.464         40.3491         233.025 
        1.14142         200.163         39.3467         230.054 
        1.15365         197.441         38.3815         227.631 
        1.16585         194.402         37.4514         224.807 
        1.17807         192.106          36.551         222.889 
        1.19037         190.055         35.6745         220.799 
        1.20276         187.336         34.8208         217.974 
        1.21504          183.44          34.002          215.61 
        1.22728          180.26         33.2129          212.87 
        1.23954         179.675         32.4471         211.294 
        1.25184         176.175         31.7041         208.918 
        1.26414         173.096         30.9841         206.803 
        1.27632         172.437         30.2929         205.265 
         1.2886         170.666         29.6181         202.652 
        1.30093         165.747         28.9615         200.345 
        1.31316          163.33         28.3296         198.101 
        1.32541         161.995         27.7165         196.471 
        1.33772         160.365         27.1182         194.425 
        1.35005         157.822         26.5372         192.244 
        1.36225         155.379         25.9792         190.485 
        1.37447         153.262         25.4363         188.185 
        1.38676         151.412         24.9064         186.623 
        1.39907         148.911         24.3907         184.604 
        1.41133         146.616         23.8919          182.91 
        1.42358         144.773         23.4076         181.191 
        1.43591         143.102         22.9334         179.285 
        1.44818         141.142          22.475         177.641 
        1.46037         139.118         22.0318          175.78 
        1.47263         137.437         21.5982         174.386 
        1.48494         135.353         21.1746         172.269 
        1.49724         133.533         20.7627         170.887 
        1.50952         131.108         20.3627          169.21 
        1.52178          130.57         19.9737         167.382 
        1.53409         127.769         19.5934         166.007 
        1.54637         126.314         19.2238         164.611 
        1.55858         124.094         18.8659          162.84 
        1.57081         122.436         18.5166         161.457 
        1.58313         120.893          18.174         159.819 
        1.59544         119.148         17.8402         158.429 
        1.60767         118.031          17.517         156.937 
        1.61994         115.933         17.2006         155.686 
        1.63225          114.53         16.8915          153.92 
        1.64452         112.432         16.5908         152.542 
        1.65676         110.797         16.2984         151.277 
          1.669          110.14         16.0128         149.997 
        1.68133         107.769         15.7322         148.613 
        1.69363         106.532         15.4593         147.288 
        1.70585         104.613         15.1945          145.98 
        1.71809         103.419         14.9354         144.469 
        1.73038         102.695         14.6815         143.306 
        1.74268         101.467         14.4334         141.956 
        1.75493         99.2593         14.1922         140.723 
        1.76714         98.2288         13.9571         139.586 
        1.77942         96.8385         13.7262         138.174 
        1.79173          95.458         13.4999         137.083 
        1.80402         94.6974         13.2791         135.889 
         1.8163          92.729         13.0634          134.63 
         1.8286         91.4983         12.8522         133.443 
         1.8409         90.8573         12.6458         132.239 
        1.85315         89.2882         12.4446         131.186 
        1.86537         88.2518         12.2482         130.091 
        1.87765         87.4429         12.0554         128.955 
        1.88995          85.961         11.8662         127.851 
        1.90221         84.8084         11.6817         126.769 
        1.91445         83.7158         11.5015         125.592 
        1.92674         82.3217         11.3245         124.558 
        1.93902         81.3079         11.1511         123.443 
        1.95124         80.4892         10.9824          122.44 
         1.9635         79.2229         10.8166         121.312 
        1.97583         78.0463         10.6533         120.394 
        1.98812          77.056          10.494         119.392 
        2.00039          76.113         10.3382         118.345 
        2.01264         75.3138         10.1857         117.361 
        2.02492          74.356         10.0362         116.352 
        2.03717          73.108         9.88981         115.359 
        2.04942         72.7742         9.74658         114.509 
        2.06171         71.1126          9.6057          113.51 
        2.07397         70.3332         9.46792         112.609 
        2.08629         69.5276         9.33226         111.628 
        2.09857         68.4701         9.19959         110.739 
        2.11081         67.4227         9.07004         109.718 
        2.12309          66.643         8.94268         108.968 
        2.13538         65.8158         8.81758         108.018 
        2.14763         64.9216          8.6953         107.154 
        2.15986         63.8094         8.57562         106.237 
        2.17214         63.2938         8.45771         105.359 
        2.18443         62.5312          8.3419          104.66 
        2.19671          61.356          8.2284         103.764 
        2.20898         61.0318         8.11715         102.885 
        2.22126          60.098         8.00784         102.054 
        2.23354         59.3958         7.90058         101.276 
         2.2458         58.4985         7.79547         100.491 
        2.25807         57.7189         7.69218         99.6447 
        2.27035         57.0974         7.59067         98.8359 
        2.28263         56.2969         7.49105         98.0586 
         2.2949          55.697         7.39326         97.2939 
        2.30718         54.6661          7.2972         96.5609 
        2.31946          54.337         7.20279         95.7662 
        2.33169         53.3873         7.11046         95.0319 
        2.34393         52.8171          7.0196         94.3241 
        2.35622         52.1336         6.93005          93.579 
        2.36847         51.6528          6.8423         92.9406 
        2.38076         50.7472         6.75582         92.1032 
        2.39305           50.19         6.67085         91.4712 
        2.40534         49.6573         6.58734         90.7202 
        2.41762         49.0628         6.50527         89.9786 
        2.42989         48.4749         6.42473         89.3671 
        2.44216         47.9185         6.34555         88.6381 
         2.4544         47.2925          6.2679         87.9671 
        2.46667         46.7526         6.19136         87.2749 
        2.47897         46.2553         6.11592         86.6106 
        2.49124         45.6446         6.04194         85.9944 
        2.50349         45.3254          5.9693         85.3148 
        2.51578         44.5919         5.89763         84.7614 
        2.52805         44.0998         5.82727         84.0631 
        2.54029         43.6535         5.75823          83.387 
        2.55257         43.0221          5.6901         82.8201 
        2.56487         42.6668         5.62295         82.2442 
        2.57716         42.0817         5.55697         81.6393 
        2.58942         41.5087          5.4922         81.0115 
        2.60167         41.1992         5.42852         80.4239 
        2.61395         40.5946         5.36576         79.8416 
        2.62624         40.3527          5.3039         79.2037 
        2.63849         39.8236         5.24322         78.6495 
        2.65073         39.4622         5.18355         78.0671 
        2.66302         38.9285         5.12459         77.4874 
         2.6753         38.4864         5.06659         76.9446 
        2.68756          38.082          5.0096         76.3649 
        2.69983         37.7207         4.95346         75.8559 
        2.71213         37.3384         4.89805         75.3216 
        2.72441         36.9599         4.84359         74.7646 
        2.73665         36.4299          4.7901         74.2277 
         2.7489         36.3055         4.73743         73.7043 
        2.76118         35.7908          4.6854         73.1914 
        2.77349         35.5048         4.63403         72.6646 
        2.78576         35.2373         4.58363         72.1208 
        2.79802         34.8284           4.534         71.6819 
        2.81031         34.4266           4.485         71.1556 
        2.82259         34.3643         4.43674         70.6292 
        2.83483         33.8846         4.38937          70.174 
         2.8471         33.5379          4.3426         69.6797 
         2.8594         33.2942         4.29637         69.1717 
         2.8717         33.1105         4.25083         68.7093 
        2.88396         32.7358         4.20612         68.2245 
        2.89619         32.5897         4.16213         67.7193 
        2.90847         32.2439         4.11861         67.2534 
        2.92072         32.0399         4.07578         66.8196 
        2.93299         31.8505         4.03354         66.3635 
        2.94526         31.5312         3.99186         65.9158 
        2.95753         31.3352         3.95078         65.4623 
        2.96982         31.1958         3.91021         65.0157 
        2.98209         30.8976         3.87029         64.5846 
        2.99436         30.7024          3.8309          64.118 
        3.00666          30.636         3.79199         63.6997 
        3.01894         30.3661         3.75369          63.259 
        3.03119         30.2278         3.71598         62.8483 
        3.04345         30.1045         3.67878         62.4523 
        3.05573         29.8471         3.64202         62.0337 
          3.068         29.8466         3.60579         61.6161 
        3.08026         29.6761          3.5701         61.2016 
        3.09254         29.5473         3.53483            60.8 
        3.10483         29.5394         3.50002         60.4069 
         3.1171         29.3269         3.46574         60.0087 
        3.12933         29.3116           3.432         59.6027 
        3.14159         29.1747         3.39864         59.1985 
