# k  (h/Mpc)    Pcb(k)  (Mpc/h)^3    Pcb_linear(k) (Mpc/h)^3    Pcb_NL(k) (Mpc/h)^3   ShotnoiseSubtracted = false
      0.0156606         17688.4         17768.8         17639.8 
      0.0273761         15194.1         15363.7         15221.9 
      0.0384619         11505.9         11574.9         11453.6 
      0.0498308         8905.65          9104.5          8983.9 
      0.0625568         7521.94         7737.71         7628.87 
      0.0751274         6678.31         6574.02         6419.69 
      0.0867833         5187.11         5292.81         5246.68 
      0.0984825         4356.69         4188.57            4235 
       0.111151         3713.42         3497.38          3552.2 
       0.123864          3329.8         3151.84         3196.66 
       0.135742         3027.18         2834.29         2879.64 
        0.14762         2625.67         2423.46         2543.72 
       0.160083         2214.84         2020.09         2166.08 
       0.172465         1975.66         1763.15         1948.27 
       0.184281         1800.49         1625.42         1812.92 
       0.196406         1682.58         1501.07         1666.33 
       0.209011         1565.83         1335.57         1507.96 
       0.221538         1412.27         1167.16         1400.53 
       0.233611         1341.42          1044.3         1306.77 
       0.245665            1222         963.851         1204.71 
       0.258103         1193.86         897.263         1135.95 
       0.270422         1069.12          824.48         1064.34 
       0.282519          1001.8         748.262         1002.17 
       0.294636         989.731         681.749          946.56 
       0.306978         895.958         630.733         904.678 
       0.319417         872.261         589.698         852.198 
        0.33169         821.678          550.42         805.011 
       0.343948         785.276         509.996         778.451 
       0.356249         740.858         472.086         747.913 
       0.368458         716.439         440.333          711.34 
        0.38068         697.791         413.778         682.534 
       0.392856         659.966         389.538         656.991 
       0.405069          629.73         365.835         636.672 
       0.417459         605.048         342.885         610.066 
       0.429752         594.567         322.283         588.391 
       0.441978          574.42         304.202         572.394 
       0.454294         546.184         287.782         548.189 
        0.46658         533.055         272.376         535.865 
       0.478753         519.709         257.841         518.581 
       0.490964         500.166         244.189         502.081 
       0.503334         475.234         231.588         489.678 
       0.515665         474.259         220.097          479.04 
       0.527909         456.133          209.49          466.96 
       0.540159         444.655         199.454          454.19 
        0.55248         435.995         189.931          442.06 
       0.564743           431.5         181.114           434.2 
        0.57686         415.022          173.01         422.046 
       0.589077         403.035          165.36         412.609 
       0.601441         397.801         158.086         403.755 
        0.61382         388.985         151.228         396.452 
       0.626067         383.558         144.828         388.209 
       0.638306         368.076         138.801         380.725 
       0.650632         363.251         133.091         370.354 
       0.662899          360.12          127.74         365.966 
       0.675076          346.47         122.725         359.682 
       0.687267         337.813         117.974         351.162 
       0.699615         333.706         113.414         345.423 
       0.711937          328.72         109.104         339.203 
       0.724148         317.957         105.054         334.193 
       0.736433         310.885          101.19         327.703 
       0.748747         306.545         97.5143         321.635 
       0.761037         300.809         94.0302         317.013 
       0.773197         297.229         90.7523         312.466 
       0.785376         292.688          87.627         307.318 
       0.797761         285.248         84.6005         302.515 
       0.810096           282.6          81.729         298.527 
       0.822371         272.456         79.0047         293.589 
       0.834626         271.528         76.4096         289.527 
       0.846916         265.633         73.9249          285.21 
       0.859215         265.594         71.5499          281.13 
       0.871383         258.504         69.3034         277.032 
        0.88363         256.972         67.1405         274.176 
       0.895928         251.311         65.0622         269.814 
       0.908253         244.751         63.0683         265.475 
       0.920535         243.225         61.1652         261.993 
       0.932774         236.348         59.3475         258.361 
        0.94508         233.872          57.595         255.668 
       0.957324         233.082         55.9221         251.991 
        0.96953         229.722         54.3211         248.594 
       0.981769         222.893          52.779         246.152 
       0.994071         222.018         51.2897         242.998 
         1.0064         217.169         49.8557         239.379 
        1.01868         214.349         48.4808         236.489 
        1.03092         209.596         47.1643         234.159 
         1.0432          206.01          45.892         231.291 
        1.05553         203.306          44.662         228.316 
        1.06777         202.849         43.4862         225.977 
           1.08         197.845          42.354           223.2 
        1.09227         195.477         41.2587         220.707 
         1.1046         192.628         40.1982         218.436 
         1.1169         188.877          39.177         215.439 
        1.12915         186.245         38.1965         213.491 
        1.14142         183.296         37.2476         210.731 
        1.15365          180.77         36.3339         208.514 
        1.16585          178.18         35.4534         205.857 
        1.17807         175.925          34.601         204.213 
        1.19037         174.286         33.7713         202.227 
        1.20276         171.636         32.9632         199.676 
        1.21504         168.285          32.188         197.526 
        1.22728         165.181          31.441             195 
        1.23954         164.691         30.7161         193.596 
        1.25184         161.577         30.0127         191.387 
        1.26414         158.909         29.3311          189.41 
        1.27632         158.351         28.6768         188.133 
         1.2886         156.273          28.038         185.646 
        1.30093         151.747         27.4164         183.592 
        1.31316         150.106         26.8182         181.517 
        1.32541         148.554         26.2379         180.104 
        1.33772         147.164         25.6715         178.183 
        1.35005         144.881         25.1215         176.183 
        1.36225         142.865         24.5933         174.589 
        1.37447         140.773         24.0793         172.523 
        1.38676         139.076         23.5776         170.995 
        1.39907         136.616         23.0895         169.231 
        1.41133         134.634         22.6173         167.743 
        1.42358         132.813         22.1588         166.169 
        1.43591          131.37         21.7099         164.351 
        1.44818         129.906         21.2759         162.912 
        1.46037         127.702         20.8564         161.214 
        1.47263         126.408         20.4459         159.972 
        1.48494         124.432         20.0449         158.073 
        1.49724         122.769          19.655         156.695 
        1.50952         120.528         19.2763         155.217 
        1.52178         120.053         18.9081          153.59 
        1.53409           117.6         18.5481         152.325 
        1.54637         116.185         18.1983         151.024 
        1.55858         114.116         17.8594         149.435 
        1.57081         112.661         17.5287         148.174 
        1.58313         111.315         17.2044         146.694 
        1.59544         109.921         16.8884         145.427 
        1.60767          108.64         16.5824          144.03 
        1.61994         106.791          16.283         142.966 
        1.63225         105.482         15.9903         141.294 
        1.64452         103.575         15.7057         140.044 
        1.65676         102.099         15.4289         138.904 
          1.669         101.519         15.1585         137.759 
        1.68133         99.4366         14.8929         136.471 
        1.69363          98.479         14.6345         135.277 
        1.70585         96.6843         14.3839          134.06 
        1.71809         95.5151         14.1386         132.738 
        1.73038         94.7993         13.8983         131.642 
        1.74268         93.5155         13.6634         130.429 
        1.75493         91.9381         13.4351         129.277 
        1.76714         90.6805         13.2125         128.241 
        1.77942         89.6261         12.9939         126.968 
        1.79173         88.2722         12.7796         125.982 
        1.80402         87.6062         12.5707         124.909 
         1.8163         85.8824         12.3665         123.703 
         1.8286         84.7098         12.1665         122.658 
         1.8409         84.0596         11.9712          121.58 
        1.85315         82.7092         11.7807         120.614 
        1.86537         81.7322         11.5948         119.597 
        1.87765         81.0279         11.4122         118.528 
        1.88995         79.6728         11.2331         117.567 
        1.90221         78.6324         11.0585         116.554 
        1.91445         77.4492         10.8879         115.505 
        1.92674          76.281         10.7203         114.571 
        1.93902         75.3656         10.5562         113.541 
        1.95124         74.6842         10.3964         112.659 
         1.9635         73.5429         10.2396          111.58 
        1.97583         72.4799          10.085         110.783 
        1.98812          71.554         9.93412         109.833 
        2.00039         70.5727         9.78667         108.897 
        2.01264         69.9713         9.64235         107.984 
        2.02492         68.9613         9.50073         107.081 
        2.03717          67.826          9.3622         106.147 
        2.04942         67.5216         9.22661         105.392 
        2.06171         66.0471         9.09324         104.471 
        2.07397         65.3489         8.96281         103.656 
        2.08629         64.6204         8.83439         102.751 
        2.09857         63.6363          8.7088         101.939 
        2.11081         62.6653         8.58616         101.006 
        2.12309         62.1155          8.4656         100.324 
        2.13538         61.2216         8.34717         99.4604 
        2.14763         60.3971         8.23141         98.6636 
        2.15986          59.306         8.11812         97.8377 
        2.17214         58.8973         8.00649         97.0293 
        2.18443         58.1892         7.89686         96.3833 
        2.19671         57.1409         7.78942         95.5547 
        2.20898         56.9213         7.68411          94.771 
        2.22126         56.0162         7.58063         93.9918 
        2.23354         55.2988         7.47909         93.2876 
         2.2458         54.5827         7.37959         92.5787 
        2.25807         53.8567         7.28181         91.7913 
        2.27035         53.3284         7.18572         91.0579 
        2.28263         52.4813         7.09141         90.3371 
         2.2949         52.0395         6.99884         89.6367 
        2.30718         51.0501          6.9079         88.9711 
        2.31946         50.6415         6.81852         88.2675 
        2.33169         49.8541         6.73112         87.5862 
        2.34393         49.1973         6.64511         86.9264 
        2.35622         48.7829         6.56033         86.2437 
        2.36847          48.197         6.47727         85.6525 
        2.38076         47.4355          6.3954         84.8991 
        2.39305         46.8998         6.31497         84.3087 
        2.40534          46.415         6.23591         83.6161 
        2.41762         45.9128         6.15822         82.9363 
        2.42989         45.3689         6.08197         82.3876 
        2.44216         44.8634         6.00702         81.7235 
         2.4544         44.3015         5.93351         81.0987 
        2.46667         43.8101         5.86106         80.4599 
        2.47897          43.318         5.78964         79.8671 
        2.49124         42.7345         5.71961         79.2918 
        2.50349         42.3176         5.65084         78.6654 
        2.51578          41.726           5.583         78.1561 
        2.52805         41.3349         5.51639         77.5276 
        2.54029         40.8583         5.45103         76.9075 
        2.55257         40.2519         5.38654         76.3808 
        2.56487         39.9304         5.32297         75.8517 
        2.57716          39.414         5.26051          75.305 
        2.58942         38.8928         5.19919         74.7262 
        2.60167         38.5643         5.13891         74.1799 
        2.61395         38.0426          5.0795         73.6434 
        2.62624         37.8287         5.02094         73.0715 
        2.63849         37.3888          4.9635          72.564 
        2.65073         37.0043         4.90701         72.0193 
        2.66302         36.4724          4.8512         71.4933 
         2.6753         36.0574         4.79629         70.9897 
        2.68756         35.6333         4.74235         70.4501 
        2.69983         35.3958         4.68919         69.9896 
        2.71213         35.0248         4.63674         69.5039 
        2.72441         34.6526         4.58519         68.9885 
        2.73665         34.2099         4.53455         68.4884 
         2.7489         34.1336         4.48469         68.0081 
        2.76118         33.6043         4.43544         67.5416 
        2.77349         33.4126         4.38681          67.057 
        2.78576         33.1473          4.3391         66.5601 
        2.79802         32.7028         4.29212         66.1467 
        2.81031         32.3618         4.24573         65.6655 
        2.82259         32.2755         4.20004         65.1817 
        2.83483         31.8407          4.1552         64.7549 
         2.8471         31.4915         4.11092         64.3089 
         2.8594          31.353         4.06716         63.8481 
         2.8717         31.1168         4.02405         63.4152 
        2.88396         30.7972         3.98172         62.9637 
        2.89619         30.5906         3.94008          62.505 
        2.90847         30.3562         3.89888         62.0882 
        2.92072         30.1042         3.85834         61.6744 
        2.93299          29.929         3.81835         61.2507 
        2.94526         29.6641         3.77889         60.8461 
        2.95753         29.4992         3.74001         60.4338 
        2.96982            29.4          3.7016         60.0197 
        2.98209         29.0872         3.66381         59.6203 
        2.99436         28.9398         3.62652         59.1956 
        3.00666         28.8213         3.58969         58.8109 
        3.01894         28.5949         3.55343         58.4015 
        3.03119         28.4624         3.51773         58.0209 
        3.04345         28.2858         3.48252         57.6579 
        3.05573         28.1783         3.44772         57.2748 
          3.068         28.1255         3.41343         56.8892 
        3.08026          27.932         3.37964         56.5062 
        3.09254         27.8217         3.34625         56.1331 
        3.10483         27.8301          3.3133          55.772 
         3.1171         27.6777         3.28084         55.4084 
        3.12933         27.6442         3.24891         55.0351 
        3.14159         27.4992         3.21733         54.6664 
