# k  (h/Mpc)    Pcb(k)  (Mpc/h)^3    Pcb_linear(k) (Mpc/h)^3    Pcb_NL(k) (Mpc/h)^3   ShotnoiseSubtracted = false
      0.0156606         803.707          804.28         800.569 
      0.0273761         700.448         696.225          694.81 
      0.0384619         532.035         524.799          524.76 
      0.0498308         418.515         412.904         413.169 
      0.0625568         353.226         350.978         350.815 
      0.0751274         302.841         298.224         297.729 
      0.0867833         242.113         240.118         240.077 
      0.0984825         194.293         190.031         190.387 
       0.111151         162.352         158.677         158.997 
       0.123864          145.75         143.004         143.141 
       0.135742         130.767         128.598          128.69 
        0.14762         111.192         109.959         110.324 
       0.160083         92.5459         91.6583         92.1284 
       0.172465         81.0539         80.0008         80.5478 
       0.184281          74.999         73.7517         74.3041 
       0.196406         68.6259         68.1098         68.5023 
       0.209011         61.4213         60.6007         61.0697 
       0.221538         54.1082         52.9595         53.6461 
       0.233611         48.4705         47.3851         48.1471 
       0.245665         45.2099         43.7348         44.4014 
       0.258103         41.0386         40.7134         41.3689 
       0.270422         38.2945          37.411         38.0379 
       0.282519         34.7388         33.9527         34.6412 
       0.294636         32.3311         30.9347         31.6626 
       0.306978         29.0374         28.6198         29.3676 
       0.319417         27.4994         26.7579         27.4819 
        0.33169         25.5857         24.9757         25.6719 
       0.343948         23.9941         23.1414         23.8344 
       0.356249         21.9709         21.4212         22.2161 
       0.368458         20.7298         19.9804          20.684 
        0.38068           19.34         18.7755         19.4756 
       0.392856         18.1857         17.6756         18.3823 
       0.405069         17.1673         16.6001         17.2679 
       0.417459         15.8538         15.5587         16.2605 
       0.429752         15.0788         14.6239         15.3148 
       0.441978          14.314         13.8034         14.5344 
       0.454294         13.3916         13.0584         13.7486 
        0.46658         12.9631         12.3593         13.0341 
       0.478753         12.1436         11.6998         12.3707 
       0.490964         11.6379         11.0803         11.7894 
       0.503334         11.0866         10.5085         11.1733 
       0.515665         10.4306         9.98715         10.6868 
       0.527909         10.0023         9.50582         10.1506 
       0.540159         9.47832         9.05044         9.68516 
        0.55248          8.9244         8.61834         9.22708 
       0.564743         8.71495         8.21824         8.86844 
        0.57686         8.33183         7.85052         8.47642 
       0.589077         7.83861          7.5034         8.14926 
       0.601441          7.5223         7.17334         7.80503 
        0.61382         7.21289         6.86213         7.47043 
       0.626067         6.89293         6.57172         7.17485 
       0.638306         6.64008         6.29826         6.88839 
       0.650632         6.44011         6.03916         6.63748 
       0.662899         6.14374         5.79636         6.37457 
       0.675076         5.83976         5.56881         6.14385 
       0.687267         5.63936          5.3532         5.90212 
       0.699615         5.48268          5.1463         5.68998 
       0.711937         5.21325         4.95072         5.50448 
       0.724148         5.10313         4.76695         5.30977 
       0.736433         4.84651         4.59161         5.11386 
       0.748747         4.68928         4.42483         4.96225 
       0.761037         4.54448         4.26673         4.78909 
       0.773197         4.35019           4.118         4.64567 
       0.785376         4.19837         3.97618         4.48998 
       0.797761         4.06165         3.83885           4.336 
       0.810096         3.95817         3.70855         4.22022 
       0.822371         3.85095         3.58494         4.07532 
       0.834626         3.71632         3.46718         3.94902 
       0.846916         3.58056         3.35444         3.84466 
       0.859215         3.43848         3.24667         3.73547 
       0.871383         3.33627         3.14473         3.62312 
        0.88363         3.24533         3.04658         3.51972 
       0.895928         3.16664         2.95228         3.41551 
       0.908253          3.0673          2.8618         3.32189 
       0.920535          2.9719         2.77545          3.2244 
       0.932774         2.88566         2.69297         3.12892 
        0.94508          2.8032         2.61344         3.05006 
       0.957324         2.72996         2.53753           2.978 
        0.96953         2.63735         2.46489         2.89755 
       0.981769         2.55458         2.39491         2.81319 
       0.994071         2.50186         2.32734         2.75267 
         1.0064         2.42331         2.26226         2.67886 
        1.01868         2.34339         2.19988         2.61137 
        1.03092         2.31124         2.14014         2.54116 
         1.0432         2.23232         2.08241         2.48166 
        1.05553         2.17654          2.0266         2.42612 
        1.06777         2.11055         1.97324          2.3697 
           1.08         2.06988         1.92187         2.30992 
        1.09227         2.00115         1.87217         2.25391 
         1.1046          1.9556         1.82405         2.20558 
         1.1169         1.90237         1.77771         2.15402 
        1.12915          1.8602         1.73321         2.10607 
        1.14142         1.81503         1.69016         2.05722 
        1.15365         1.77339          1.6487         2.01451 
        1.16585         1.73149         1.60874         1.96857 
        1.17807         1.70321         1.57007          1.9277 
        1.19037          1.6364         1.53242         1.88331 
        1.20276          1.6029         1.49575         1.83979 
        1.21504         1.57164         1.46057         1.80949 
        1.22728         1.53873         1.42668         1.76455 
        1.23954         1.50349         1.39378         1.73591 
        1.25184         1.47311         1.36186         1.69446 
        1.26414         1.43862         1.33094         1.65891 
        1.27632         1.39595         1.30125         1.62888 
         1.2886         1.37232         1.27226         1.59274 
        1.30093         1.33193         1.24405         1.56692 
        1.31316         1.29471         1.21691           1.534 
        1.32541         1.27757         1.19058         1.50659 
        1.33772         1.25576         1.16488         1.47751 
        1.35005         1.23131         1.13992         1.45041 
        1.36225         1.20232         1.11595         1.42078 
        1.37447         1.17809         1.09263         1.39767 
        1.38676         1.15206         1.06987         1.36849 
        1.39907         1.12699         1.04772         1.34625 
        1.41133         1.09946         1.02629         1.32149 
        1.42358         1.08918         1.00548         1.29419 
        1.43591         1.06371        0.985115         1.27783 
        1.44818         1.04225        0.965423         1.25455 
        1.46037          1.0171        0.946388         1.22943 
        1.47263        0.996086        0.927761         1.21042 
        1.48494        0.980455        0.909565         1.19005 
        1.49724        0.960251        0.891873         1.16986 
        1.50952        0.942926        0.874688         1.14675 
        1.52178        0.920737        0.857982         1.12959 
        1.53409        0.907242        0.841646         1.11026 
        1.54637        0.883615         0.82577         1.09078 
        1.55858        0.872417        0.810395         1.07364 
        1.57081        0.860244         0.79539          1.0551 
        1.58313        0.840941        0.780672         1.04105 
        1.59544         0.82651        0.766335         1.02267 
        1.60767        0.812543        0.752451         1.00675 
        1.61994        0.794516        0.738862        0.992226 
        1.63225        0.781568        0.725582        0.977239 
        1.64452        0.769442        0.712666        0.960604 
        1.65676        0.754452        0.700105        0.946559 
          1.669        0.742304        0.687837        0.930899 
        1.68133        0.727799        0.675787        0.918593 
        1.69363        0.719554         0.66406        0.904151 
        1.70585        0.704093        0.652687        0.891205 
        1.71809        0.693258        0.641558        0.877495 
        1.73038        0.679123        0.630654         0.86493 
        1.74268         0.66594        0.619996        0.851426 
        1.75493        0.660924        0.609634        0.840949 
        1.76714        0.646712        0.599536        0.827859 
        1.77942        0.633548        0.589615        0.816221 
        1.79173          0.6263        0.579893        0.803852 
        1.80402         0.61615        0.570412        0.792972 
         1.8163        0.605864        0.561147        0.780462 
         1.8286        0.591861        0.552073        0.772893 
         1.8409        0.587309        0.543207        0.760742 
        1.85315        0.578881        0.534566        0.749885 
        1.86537        0.565426         0.52613        0.740359 
        1.87765        0.557878        0.517845        0.729715 
        1.88995        0.550276        0.509718        0.720982 
        1.90221        0.540641        0.501795        0.710704 
        1.91445        0.533832        0.494053        0.701766 
        1.92674        0.523927        0.486448        0.692704 
        1.93902        0.514755        0.479002        0.682805 
        1.95124        0.507841        0.471753        0.673969 
         1.9635        0.501905        0.464634        0.665092 
        1.97583        0.492577        0.457618        0.656093 
        1.98812        0.485611        0.450774        0.649492 
        2.00039         0.47874        0.444083        0.640156 
        2.01264        0.472526        0.437534        0.632499 
        2.02492        0.465618        0.431108        0.624924 
        2.03717          0.4583        0.424822        0.617119 
        2.04942        0.451744         0.41867        0.608968 
        2.06171        0.445795        0.412618        0.601552 
        2.07397        0.438006        0.406699        0.594744 
        2.08629        0.434134        0.400872        0.587202 
        2.09857        0.426357        0.395173        0.580377 
        2.11081        0.419474        0.389609        0.572722 
        2.12309        0.414375        0.384138        0.566901 
        2.13538        0.408187        0.378764         0.55965 
        2.14763        0.403821        0.373511        0.553478 
        2.15986        0.398199         0.36837         0.54747 
        2.17214         0.39176        0.363305        0.540498 
        2.18443        0.387748        0.358331        0.534077 
        2.19671        0.382452        0.353455        0.528503 
        2.20898        0.377085        0.348677        0.522058 
        2.22126        0.371247        0.343981        0.516477 
        2.23354        0.367458        0.339374        0.511076 
         2.2458        0.363851        0.334859        0.504151 
        2.25807        0.358426        0.330422        0.499486 
        2.27035          0.3535        0.326062        0.493644 
        2.28263        0.348611        0.321782        0.488547 
         2.2949        0.344907        0.317582        0.482848 
        2.30718        0.340521        0.313455         0.47787 
        2.31946        0.337233          0.3094        0.472877 
        2.33169        0.331389        0.305434        0.467445 
        2.34393        0.327944        0.301531         0.46288 
        2.35622        0.323968        0.297684        0.457366 
        2.36847        0.320868        0.293915        0.452732 
        2.38076        0.316504          0.2902        0.448045 
        2.39305         0.31229         0.28655        0.443499 
        2.40534        0.308814        0.282963        0.439008 
        2.41762        0.305989        0.279438        0.434179 
        2.42989        0.301344        0.275978        0.429537 
        2.44216        0.298827        0.272577        0.425491 
         2.4544        0.295787        0.269241        0.421268 
        2.46667        0.292636        0.265953        0.416607 
        2.47897        0.288748        0.262713        0.412605 
        2.49124        0.285503        0.259535        0.408388 
        2.50349         0.28162        0.256415        0.404192 
        2.51578        0.279158        0.253336        0.400194 
        2.52805        0.277333        0.250314        0.396381 
        2.54029         0.27403        0.247348        0.392565 
        2.55257        0.270327        0.244421        0.388945 
        2.56487        0.268261        0.241537        0.384989 
        2.57716        0.265486        0.238703        0.381231 
        2.58942        0.263254         0.23592        0.377529 
        2.60167        0.259899        0.233185        0.373737 
        2.61395        0.257295        0.230489        0.370462 
        2.62624        0.254605        0.227832        0.367099 
        2.63849         0.25319        0.225225        0.363524 
        2.65073        0.249952        0.222662        0.359997 
        2.66302         0.24817         0.22013        0.356609 
         2.6753        0.245547        0.217638        0.353311 
        2.68756          0.2439         0.21519        0.350137 
        2.69983        0.240997        0.212778          0.3466 
        2.71213        0.238389        0.210398        0.343613 
        2.72441        0.237094        0.208059        0.340709 
        2.73665        0.235192        0.205761        0.337583 
         2.7489        0.233595        0.203499        0.334467 
        2.76118        0.231937        0.201264        0.331495 
        2.77349        0.229108        0.199057        0.328653 
        2.78576        0.227961        0.196892        0.325689 
        2.79802        0.226221        0.194761        0.322452 
        2.81031        0.224459        0.192656        0.319976 
        2.82259        0.222988        0.190582        0.316871 
        2.83483        0.220897        0.188548        0.314051 
         2.8471        0.219574        0.186539        0.311721 
         2.8594        0.218172        0.184553        0.309081 
         2.8717         0.21724        0.182597        0.306265 
        2.88396         0.21601        0.180676        0.303717 
        2.89619        0.214228        0.178787        0.301249 
        2.90847        0.213284        0.176917        0.298728 
        2.92072        0.211331        0.175077        0.295975 
        2.93299        0.210463        0.173263        0.293408 
        2.94526        0.209401        0.171472        0.291084 
        2.95753        0.208704        0.169708        0.288756 
        2.96982        0.207348        0.167965        0.286219 
        2.98209        0.206805        0.166251        0.283704 
        2.99436        0.205221        0.164558        0.281433 
        3.00666        0.205064        0.162887        0.279195 
        3.01894        0.204248        0.161242        0.277013 
        3.03119        0.203561        0.159622        0.274686 
        3.04345        0.202522        0.158024        0.272525 
        3.05573        0.202388        0.156445        0.270482 
          3.068        0.201468        0.154889        0.268134 
        3.08026        0.200882        0.153356        0.265924 
        3.09254        0.201317        0.151841        0.263894 
        3.10483        0.200535        0.150345        0.261891 
         3.1171        0.200114        0.148873        0.259748 
        3.12933         0.20004        0.147423        0.257595 
        3.14159        0.199361        0.145991        0.255743 
