# k  (h/Mpc)    Pcb(k)  (Mpc/h)^3    Pcb_linear(k) (Mpc/h)^3    Pcb_NL(k) (Mpc/h)^3   ShotnoiseSubtracted = false
      0.0156606         14747.5         14803.9         14703.6 
      0.0273761           12690         12801.1         12699.8 
      0.0384619         9618.77         9644.74         9561.44 
      0.0498308         7458.28         7586.44         7504.94 
      0.0625568         6297.57         6447.65         6372.99 
      0.0751274          5574.7         5478.02         5371.02 
      0.0867833         4340.44         4410.44         4379.86 
      0.0984825         3626.35         3490.31         3525.67 
       0.111151         3081.56         2914.35          2954.4 
       0.123864          2764.7         2626.43         2659.51 
       0.135742         2507.74         2361.81         2395.53 
        0.14762         2167.53         2019.47          2107.8 
       0.160083         1818.92         1683.35         1788.96 
       0.172465         1621.92         1469.24         1602.45 
       0.184281         1484.41         1354.46         1490.72 
       0.196406         1377.32         1250.84         1368.21 
       0.209011         1275.59         1112.93         1236.49 
       0.221538          1150.8         972.598            1142 
       0.233611          1083.6         870.223         1060.78 
       0.245665         992.943         803.183         976.801 
       0.258103         956.895         747.694         919.908 
       0.270422         862.125         687.044         859.702 
       0.282519         801.866         623.531         805.548 
       0.294636         794.245         568.106         758.541 
       0.306978         713.704         525.594         722.988 
       0.319417         691.076           491.4         680.508 
        0.33169          651.23         458.669         641.584 
       0.343948          620.91         424.983         618.444 
       0.356249         583.706         393.392         592.787 
       0.368458         566.093         366.932          561.63 
        0.38068         546.624         344.804          537.65 
       0.392856         515.081         324.604          516.46 
       0.405069         493.371         304.853         500.205 
       0.417459         472.961         285.729         476.685 
       0.429752          460.51         268.561         459.393 
       0.441978         445.409         253.494         446.101 
       0.454294          420.96         239.811         426.547 
        0.46658         413.817         226.973         415.951 
       0.478753          400.43         214.861         401.882 
       0.490964         386.044         203.485         388.497 
       0.503334         364.831         192.984         378.084 
       0.515665         363.284         183.409         369.798 
       0.527909         350.571         174.569         358.972 
       0.540159         341.635         166.207         348.815 
        0.55248         334.971         158.271         339.095 
       0.564743          329.28         150.924          332.52 
        0.57686         316.629         144.171         322.694 
       0.589077         305.373         137.796         315.623 
       0.601441         302.018         131.734         308.341 
        0.61382         297.165         126.019         302.054 
       0.626067         291.681         120.686         295.325 
       0.638306         278.624         115.664         289.671 
       0.650632           273.4         110.906         281.109 
       0.662899         271.632         106.447         277.314 
       0.675076         261.245         102.268         271.752 
       0.687267         254.737         98.3084          265.57 
       0.699615         250.666         94.5089         260.804 
       0.711937         246.275         90.9171         256.055 
       0.724148         239.505         87.5424         252.196 
       0.736433         234.357         84.3223         246.891 
       0.748747         230.157         81.2595         242.117 
       0.761037         226.289         78.3561         237.986 
       0.773197          222.86         75.6246         234.946 
       0.785376         220.003         73.0203         230.403 
       0.797761         214.758         70.4983         227.191 
       0.810096         211.647         68.1054         223.633 
       0.822371         203.692         65.8352         219.916 
       0.834626         202.946         63.6728         216.465 
       0.846916         199.158         61.6022         213.321 
       0.859215         198.579         59.6231         210.161 
       0.871383         193.372         57.7511         206.795 
        0.88363         191.443         55.9487         204.615 
       0.895928         187.082         54.2168         201.502 
       0.908253          181.94         52.5553         198.056 
       0.920535         181.371         50.9694         195.411 
       0.932774         175.321         49.4548         192.601 
        0.94508         173.852         47.9943          190.54 
       0.957324         173.355         46.6003         187.648 
        0.96953         171.129         45.2662         184.828 
       0.981769         165.818         43.9811         183.168 
       0.994071         165.053         42.7402         180.722 
         1.0064         161.129         41.5451         177.966 
        1.01868         159.061         40.3995         176.007 
        1.03092         156.462         39.3024         174.053 
         1.0432         153.431         38.2422         171.856 
        1.05553         150.847         37.2172         169.873 
        1.06777         150.668         36.2374         168.132 
           1.08         147.055          35.294         165.897 
        1.09227         145.446         34.3812         164.238 
         1.1046          143.06         33.4975         162.318 
         1.1169         141.136         32.6465         160.118 
        1.12915         138.891         31.8294         158.534 
        1.14142         136.721         31.0387         156.474 
        1.15365         134.897         30.2773         154.827 
        1.16585         132.992         29.5436         152.829 
        1.17807         131.066         28.8333         151.737 
        1.19037          130.41         28.1419         150.129 
        1.20276         127.767         27.4685           148.3 
        1.21504         126.182         26.8225         146.691 
        1.22728         123.675         26.2001         144.948 
        1.23954         122.968          25.596         143.703 
        1.25184         120.431         25.0098          142.11 
        1.26414         118.825         24.4418         140.635 
        1.27632          118.21         23.8966         139.902 
         1.2886         115.998         23.3643         137.853 
        1.30093         113.211         22.8463         136.385 
        1.31316         112.866         22.3478         134.996 
        1.32541         111.188         21.8642         133.955 
        1.33772         110.002         21.3923         132.517 
        1.35005         108.605          20.934         131.062 
        1.36225         107.264         20.4938         129.888 
        1.37447         105.167         20.0654         128.468 
        1.38676          104.59         19.6474         127.113 
        1.39907         102.235         19.2407         126.031 
        1.41133         100.883         18.8472         125.009 
        1.42358         99.5613         18.4651         123.744 
        1.43591         98.9143          18.091         122.382 
        1.44818          97.828         17.7294         121.375 
        1.46037          95.988         17.3798         120.179 
        1.47263         94.6691         17.0378         119.266 
        1.48494         93.8517         16.7036         117.992 
        1.49724         92.3313         16.3787         116.763 
        1.50952         90.8746         16.0631          115.75 
        1.52178         90.0889         15.7563         114.713 
        1.53409         89.0724         15.4563         113.711 
        1.54637         87.2587         15.1648         112.673 
        1.55858         86.2762         14.8824         111.599 
        1.57081         85.0523         14.6068          110.64 
        1.58313         84.0304         14.3366         109.639 
        1.59544         83.1297         14.0733         108.651 
        1.60767         81.8845         13.8183         107.635 
        1.61994         80.7953         13.5688         106.946 
        1.63225         79.5998         13.3249         105.651 
        1.64452         78.5274         13.0877         104.826 
        1.65676         77.4328          12.857         103.929 
          1.669         76.8878         12.6317         103.091 
        1.68133         75.8808         12.4104         102.119 
        1.69363         74.9109         12.1951         101.326 
        1.70585         73.9748         11.9862         100.375 
        1.71809         72.6957         11.7818         99.6158 
        1.73038         71.9397         11.5816         98.6506 
        1.74268         70.8071         11.3858         97.8517 
        1.75493         70.2402         11.1956          96.968 
        1.76714         69.0586         11.0101         96.1664 
        1.77942         68.6225         10.8279         95.3227 
        1.79173         67.4332         10.6494         94.5147 
        1.80402         66.7074         10.4753         93.8024 
         1.8163         65.8634         10.3051          92.857 
         1.8286         64.9076         10.1385         92.2173 
         1.8409         64.0063         9.97566         91.3967 
        1.85315         63.0903         9.81697         90.7437 
        1.86537         62.4673         9.66205         89.9295 
        1.87765         61.7317          9.5099         89.0681 
        1.88995         60.8745         9.36066         88.4361 
        1.90221         60.2211         9.21515         87.6853 
        1.91445         59.1246         9.07298         86.9974 
        1.92674         58.6119         8.93331         86.2922 
        1.93902         57.8821         8.79658         85.5226 
        1.95124          57.443         8.66345          84.951 
         1.9635         56.3526         8.53272         84.1124 
        1.97583         55.8192         8.40388         83.5648 
        1.98812         55.1275         8.27818          82.816 
        2.00039         54.3263         8.15531         82.1577 
        2.01264         53.7093         8.03505         81.4894 
        2.02492         52.9822         7.91704           80.87 
        2.03717         52.2734          7.8016         80.1507 
        2.04942         51.6371         7.68861         79.6038 
        2.06171          50.937         7.57747         78.9047 
        2.07397         50.3091         7.46878         78.3476 
        2.08629         49.7903         7.36177         77.6593 
        2.09857         49.2559         7.25711         77.0944 
        2.11081         48.1815         7.15492         76.4164 
        2.12309         47.9092         7.05445         75.8732 
        2.13538         47.2837         6.95577          75.267 
        2.14763         46.7865          6.8593         74.6899 
        2.15986         46.1102         6.76489         74.0934 
        2.17214         45.4814         6.67188         73.5694 
        2.18443         45.1872         6.58052         72.9814 
        2.19671         44.3386         6.49099         72.3725 
        2.20898         44.0374         6.40323         71.8201 
        2.22126         43.4349           6.317          71.244 
        2.23354         42.8513         6.23239          70.752 
         2.2458         42.4402         6.14947         70.2232 
        2.25807         42.0213         6.06799          69.634 
        2.27035         41.4339         5.98792         69.1116 
        2.28263          40.859         5.90933         68.5763 
         2.2949         40.3525         5.83219         68.0768 
        2.30718         39.9284         5.75641         67.5825 
        2.31946         39.3517         5.68193         67.0942 
        2.33169         38.9271          5.6091         66.5668 
        2.34393         38.3208         5.53743         66.0605 
        2.35622         38.0505         5.46678         65.5651 
        2.36847         37.5653         5.39756         65.0882 
        2.38076         37.2323         5.32934         64.6023 
        2.39305         36.7472         5.26231         64.1327 
        2.40534         36.3691         5.19644         63.5974 
        2.41762         35.9538          5.1317         63.1214 
        2.42989         35.3835         5.06816         62.7105 
        2.44216         35.1616          5.0057         62.2289 
         2.4544         34.7981         4.94444         61.7807 
        2.46667         34.2538         4.88407         61.2874 
        2.47897          33.935         4.82455          60.862 
        2.49124         33.4908          4.7662         60.4194 
        2.50349         33.0763          4.7089         59.9884 
        2.51578          32.733         4.65236         59.5752 
        2.52805         32.6077         4.59685         59.1187 
        2.54029         32.1625         4.54239         58.6926 
        2.55257         31.7313         4.48865         58.2843 
        2.56487         31.4061         4.43567         57.8743 
        2.57716         31.0853         4.38362         57.4887 
        2.58942         30.7024         4.33253          57.054 
        2.60167         30.3017          4.2823         56.6176 
        2.61395         30.0789         4.23279         56.2362 
        2.62624           29.84         4.18399         55.8359 
        2.63849         29.5306         4.13612         55.4449 
        2.65073         29.1903         4.08905         55.0259 
        2.66302         28.9057         4.04254         54.6606 
         2.6753         28.5691         3.99679         54.2797 
        2.68756          28.217         3.95184         53.8819 
        2.69983         27.9981         3.90754         53.5225 
        2.71213         27.6555         3.86384         53.1646 
        2.72441         27.5345         3.82088         52.7693 
        2.73665         27.2449         3.77867         52.4019 
         2.7489         27.0475         3.73713         52.0473 
        2.76118         26.7318         3.69609         51.6775 
        2.77349         26.5273         3.65556         51.3392 
        2.78576         26.3403          3.6158         50.9709 
        2.79802         26.0161         3.57666         50.6266 
        2.81031         25.7975           3.538         50.2923 
        2.82259         25.5782         3.49993         49.9296 
        2.83483          25.337         3.46256         49.5875 
         2.8471         25.1116         3.42567         49.2601 
         2.8594         24.9206          3.3892         48.9435 
         2.8717         24.6493         3.35327         48.6022 
        2.88396         24.5421           3.318         48.2543 
        2.89619         24.3488          3.2833         47.9336 
        2.90847         24.1461         3.24897         47.6154 
        2.92072          24.049         3.21518         47.2983 
        2.93299         23.9196         3.18186         46.9701 
        2.94526         23.6867         3.14898         46.6719 
        2.95753         23.5273         3.11658         46.3773 
        2.96982         23.5016         3.08458         46.0639 
        2.98209         23.2843         3.05309         45.7596 
        2.99436         23.0985         3.02201          45.453 
        3.00666         23.0703         2.99131         45.1538 
        3.01894         22.9346          2.9611         44.8393 
        3.03119         22.7694         2.93135          44.546 
        3.04345         22.6742         2.90201          44.269 
        3.05573          22.607         2.87301         43.9835 
          3.068         22.5426         2.84444         43.6925 
        3.08026         22.4562         2.81628         43.4046 
        3.09254         22.3425         2.78846         43.1296 
        3.10483         22.3621           2.761         42.8561 
         3.1171         22.2564         2.73395         42.5779 
        3.12933         22.2773         2.70734         42.3032 
        3.14159         22.1821         2.68103         42.0276 
