# k  (h/Mpc)    Pcb(k)  (Mpc/h)^3    Pcb_linear(k) (Mpc/h)^3    Pcb_NL(k) (Mpc/h)^3   ShotnoiseSubtracted = false
      0.0156606         19757.6         19857.4           19707 
      0.0273761         16951.4         17168.6         16996.1 
      0.0384619         12826.6         12934.5         12783.8 
      0.0498308         9915.22         10173.7           10023 
      0.0625568         8375.42         8646.29          8511.3 
      0.0751274         7448.59          7345.9         7155.48 
      0.0867833         5776.48         5914.24         5856.18 
      0.0984825         4867.45         4680.34         4734.95 
       0.111151         4156.57         3907.99         3974.24 
       0.123864            3725         3521.88         3575.73 
       0.135742         3391.65         3167.04         3221.27 
        0.14762          2947.7         2707.97         2852.07 
       0.160083         2495.48         2257.25         2433.68 
       0.172465         2225.87         1970.14         2194.41 
       0.184281         2022.35         1816.23         2042.17 
       0.196406         1899.24         1677.29         1879.06 
       0.209011         1772.44         1492.36         1701.94 
       0.221538         1597.26         1304.18         1585.43 
       0.233611         1524.96          1166.9         1482.93 
       0.245665          1384.9            1077         1368.35 
       0.258103         1363.28          1002.6         1291.22 
       0.270422         1217.42         921.269         1211.62 
       0.282519         1145.84         836.104         1144.23 
       0.294636         1128.61         761.783         1082.53 
       0.306978         1026.71         704.777         1036.19 
       0.319417         1003.12         658.925         976.582 
        0.33169         943.906         615.036         923.766 
       0.343948         903.992         569.866         894.538 
       0.356249         854.873         527.506         860.552 
       0.368458         823.927         492.025         820.542 
        0.38068         806.945         462.353         788.412 
       0.392856         764.788         435.267         759.981 
       0.405069         727.469         408.782         736.119 
       0.417459         699.438         383.138         707.886 
       0.429752         691.858         360.117         683.009 
       0.441978         667.825         339.913          665.16 
       0.454294         636.905         321.566         637.604 
        0.46658         619.685         304.351         624.026 
       0.478753         606.309          288.11          604.56 
       0.490964         582.828         272.855         585.793 
       0.503334         556.086         258.775         572.109 
       0.515665         554.695         245.935          559.53 
       0.527909         532.409         234.082         546.687 
       0.540159         518.899         222.869          532.27 
        0.55248         508.699         212.228         518.294 
       0.564743         504.445         202.375         509.387 
        0.57686         486.102          193.32         495.588 
       0.589077         474.547         184.772         484.523 
       0.601441         466.237         176.644         474.657 
        0.61382         454.354         168.981         466.358 
       0.626067          448.77         161.829         457.161 
       0.638306         431.696         155.095         448.148 
       0.650632         427.101         148.715         436.695 
       0.662899         423.315         142.736         431.584 
       0.675076         408.114         137.132         424.961 
       0.687267         397.259         131.823          414.82 
       0.699615          393.92         126.728         408.238 
       0.711937          387.33         121.912         400.766 
       0.724148         374.306         117.387         395.078 
       0.736433         365.597         113.069         387.762 
       0.748747         360.869         108.962          380.76 
       0.761037         354.077         105.069          375.78 
       0.773197         349.553         101.406         370.017 
       0.785376         344.291         97.9138          364.39 
       0.797761         334.663          94.532         358.647 
       0.810096         331.915         91.3234         354.147 
       0.822371         321.229         88.2793         348.322 
       0.834626         319.151         85.3795         343.893 
       0.846916         312.768         82.6032         338.618 
       0.859215          311.44         79.9494         333.769 
       0.871383          303.56         77.4391         329.176 
        0.88363         301.422         75.0223         325.802 
       0.895928          295.65            72.7         320.641 
       0.908253         288.183         70.4721         315.497 
       0.920535         284.767         68.3455         311.644 
       0.932774         278.497         66.3145         307.166 
        0.94508         274.807         64.3562          303.98 
       0.957324         273.263         62.4869         299.805 
        0.96953         269.316         60.6979         296.031 
       0.981769         261.985         58.9748         292.914 
       0.994071         261.001         57.3108         289.252 
         1.0064         255.473         55.7083         285.016 
        1.01868         252.531         54.1721         281.409 
        1.03092         245.433          52.701          278.83 
         1.0432         242.273         51.2794         275.446 
        1.05553         239.331          49.905         271.756 
        1.06777         237.777         48.5911         268.863 
           1.08         232.005         47.3261         265.755 
        1.09227         230.055         46.1022         262.607 
         1.1046         226.275         44.9172         260.027 
         1.1169         221.132         43.7761         256.496 
        1.12915         218.255         42.6805         254.127 
        1.14142         214.446         41.6202         250.947 
        1.15365         211.627         40.5992           248.3 
        1.16585         208.054         39.6153         245.315 
        1.17807         205.732         38.6629         243.074 
        1.19037         203.168         37.7358         240.876 
        1.20276         200.289         36.8328         237.757 
        1.21504         195.968         35.9666         235.156 
        1.22728         192.758          35.132         232.233 
        1.23954         191.926         34.3219         230.403 
        1.25184         187.955          33.536          227.86 
        1.26414         184.421         32.7743         225.603 
        1.27632         183.562         32.0433         223.784 
         1.2886         181.996         31.3294         221.037 
        1.30093         176.905         30.6349         218.442 
        1.31316         173.719         29.9665         216.057 
        1.32541         172.516          29.318         214.156 
        1.33772         170.463         28.6851         211.996 
        1.35005         167.859         28.0706         209.618 
        1.36225         164.934         27.4803         207.681 
        1.37447         162.639          26.906         205.142 
        1.38676         160.767         26.3455         203.542 
        1.39907         158.236            25.8         201.245 
        1.41133         155.537         25.2724         199.315 
        1.42358         153.683         24.7601         197.438 
        1.43591          151.84         24.2585         195.453 
        1.44818         149.312         23.7736         193.582 
        1.46037          147.54         23.3048         191.539 
        1.47263          145.31         22.8461         189.961 
        1.48494          143.31          22.398          187.63 
        1.49724         141.278         21.9624         186.243 
        1.50952         138.683         21.5392         184.339 
        1.52178         137.942         21.1278         182.326 
        1.53409         134.971         20.7256          180.81 
        1.54637         133.354         20.3346         179.309 
        1.55858         131.226          19.956         177.355 
        1.57081          129.25         19.5865         175.817 
        1.58313         127.525          19.224         174.024 
        1.59544         125.378          18.871         172.491 
        1.60767          124.38         18.5291         170.904 
        1.61994         122.067         18.1945         169.437 
        1.63225         120.521         17.8675          167.58 
        1.64452         118.339         17.5494         166.079 
        1.65676         116.658         17.2401          164.67 
          1.669         115.758          16.938         163.227 
        1.68133         113.299         16.6413         161.734 
        1.69363          111.67         16.3525         160.289 
        1.70585         109.735         16.0724         158.873 
        1.71809         108.418         15.7984         157.181 
        1.73038         107.606         15.5298         155.926 
        1.74268         106.428         15.2674         154.433 
        1.75493         103.724         15.0122         153.119 
        1.76714         103.034         14.7636         151.859 
        1.77942         101.251         14.5193         150.325 
        1.79173         99.7352         14.2799         149.094 
        1.80402         98.8812         14.0464         147.778 
         1.8163         96.7705         13.8183          146.47 
         1.8286         95.5283         13.5948         145.132 
         1.8409         94.8587         13.3765         143.794 
        1.85315         92.9787         13.1637         142.641 
        1.86537         92.0676          12.956         141.457 
        1.87765         91.0504         12.7519         140.243 
        1.88995         89.4593         12.5518         138.985 
        1.90221         88.2402         12.3567         137.836 
        1.91445          87.156         12.1661         136.531 
        1.92674         85.6995         11.9788         135.385 
        1.93902         84.5593         11.7954         134.172 
        1.95124         83.6002         11.6169         133.055 
         1.9635         82.2218         11.4416         131.861 
        1.97583         80.9761         11.2689          130.81 
        1.98812         79.9596         11.1003         129.766 
        2.00039         79.0052         10.9355         128.589 
        2.01264         78.0254         10.7743         127.528 
        2.02492          77.168          10.616         126.404 
        2.03717         75.8264         10.4612         125.358 
        2.04942         75.3277         10.3097         124.389 
        2.06171         73.6069         10.1607         123.308 
        2.07397         72.8339          10.015         122.324 
        2.08629         71.9699         9.87148         121.262 
        2.09857         70.9016         9.73114         120.288 
        2.11081          69.713         9.59411         119.176 
        2.12309         68.7672         9.45939         118.341 
        2.13538         67.9275         9.32707         117.301 
        2.14763         67.0591         9.19772         116.367 
        2.15986         66.0007         9.07112         115.352 
        2.17214         65.3401          8.9464         114.412 
        2.18443         64.5045          8.8239         113.645 
        2.19671         63.3538         8.70384         112.671 
        2.20898          62.854         8.58616         111.692 
        2.22126         61.9178         8.47053         110.815 
        2.23354         61.2176         8.35708         109.951 
         2.2458         60.1418         8.24589         109.083 
        2.25807          59.404         8.13664         108.176 
        2.27035         58.6453         8.02927         107.293 
        2.28263         57.8566         7.92389         106.455 
         2.2949         57.0857         7.82045         105.623 
        2.30718         56.1518         7.71883         104.811 
        2.31946         55.8035         7.61896         103.923 
        2.33169         54.7793          7.5213         103.132 
        2.34393         54.2928          7.4252         102.375 
        2.35622         53.3548         7.33047         101.557 
        2.36847         52.9603         7.23765         100.864 
        2.38076         52.0426         7.14617         99.9448 
        2.39305         51.4587          7.0563         99.2686 
        2.40534         50.8356         6.96796         98.4509 
        2.41762         50.2479         6.88115         97.6475 
        2.42989         49.4953         6.79595         96.9666 
        2.44216         48.9738          6.7122         96.1662 
         2.4544         48.2539         6.63006         95.4508 
        2.46667         47.7102          6.5491         94.7061 
        2.47897         47.1857          6.4693          93.963 
        2.49124         46.6242         6.39105         93.2928 
        2.50349         46.2754         6.31421         92.5647 
        2.51578          45.475          6.2384         91.9586 
        2.52805         44.9677         6.16397          91.189 
        2.54029         44.5244         6.09094         90.4619 
        2.55257         43.9137         6.01888         89.8448 
        2.56487         43.5931         5.94784          89.215 
        2.57716         42.9107         5.87805         88.5465 
        2.58942         42.3267         5.80954         87.8714 
        2.60167         41.9441         5.74218         87.2346 
        2.61395         41.3796         5.67579         86.5985 
        2.62624          40.983         5.61036         85.9022 
        2.63849         40.4659         5.54617         85.2948 
        2.65073         40.1141         5.48305         84.6686 
        2.66302         39.5987         5.42069         84.0315 
         2.6753         39.1843         5.35934          83.449 
        2.68756         38.7653         5.29906         82.8205 
        2.69983         38.3045         5.23967         82.2588 
        2.71213         37.9392         5.18106         81.6715 
        2.72441          37.556         5.12346         81.0697 
        2.73665          37.034         5.06687         80.4989 
         2.7489         36.7584         5.01116          79.929 
        2.76118         36.3527         4.95612         79.3592 
        2.77349           35.97         4.90178         78.7937 
        2.78576         35.6681         4.84847         78.1992 
        2.79802         35.3162         4.79598         77.7263 
        2.81031         34.8697         4.74414         77.1539 
        2.82259         34.7601         4.69309         76.5818 
        2.83483           34.28         4.64299         76.0913 
         2.8471         33.9752         4.59352         75.5441 
         2.8594         33.6831         4.54461         74.9946 
         2.8717         33.5294         4.49644         74.5005 
        2.88396         33.1149         4.44915         73.9743 
        2.89619         32.9654         4.40262         73.4223 
        2.90847         32.5669         4.35658         72.9038 
        2.92072         32.3912         4.31128         72.4439 
        2.93299         32.2205          4.2666         71.9577 
        2.94526         31.8657         4.22251         71.4626 
        2.95753         31.6628         4.17906         70.9621 
        2.96982         31.4321         4.13614         70.4832 
        2.98209          31.191         4.09392         70.0194 
        2.99436         30.9579         4.05225         69.5093 
        3.00666         30.9277         4.01109         69.0498 
        3.01894          30.597         3.97058         68.5768 
        3.03119         30.5531         3.93069         68.1344 
        3.04345         30.4267         3.89134         67.6999 
        3.05573         30.0753         3.85245         67.2419 
          3.068         30.0796         3.81414         66.7917 
        3.08026         29.8997         3.77638          66.342 
        3.09254         29.8325         3.73907         65.9105 
        3.10483         29.7947         3.70226         65.4825 
         3.1171          29.595         3.66599         65.0468 
        3.12933         29.5161          3.6303         64.6099 
        3.14159         29.3959         3.59502         64.1687 
