# k  (h/Mpc)    Pcb(k)  (Mpc/h)^3    Pcb_linear(k) (Mpc/h)^3    Pcb_NL(k) (Mpc/h)^3   ShotnoiseSubtracted = false
      0.0156606         4915.56          4921.8         4895.86 
      0.0273761         4260.73            4258         4242.23 
      0.0384619         3237.44          3208.8         3200.44 
      0.0498308         2530.82         2524.32         2517.76 
      0.0625568         2135.39         2145.57         2138.12 
      0.0751274         1860.25            1823         1810.93 
      0.0867833         1467.74         1467.77         1465.58 
      0.0984825         1198.79         1161.58         1168.19 
       0.111151          1007.1         969.918         976.545 
       0.123864         904.803         874.104         879.558 
       0.135742         814.561         786.045         791.619 
        0.14762         693.902         672.113         685.278 
       0.160083         576.123         560.248         575.195 
       0.172465         510.044         488.992         507.208 
       0.184281         472.534         450.794         470.117 
       0.196406         431.111         416.308         431.538 
       0.209011         391.091         370.409         387.356 
       0.221538         349.509         323.704         347.393 
       0.233611         317.575         289.631         316.067 
       0.245665          298.14         267.319          290.91 
       0.258103         270.789         248.851         272.352 
       0.270422         253.104         228.666         251.738 
       0.282519         230.138         207.527         231.897 
       0.294636         223.136         189.081         214.792 
       0.306978         196.895         174.931          201.61 
       0.319417         188.389         163.551         189.247 
        0.33169         175.573         152.657         177.482 
       0.343948         167.436         141.446         167.141 
       0.356249         154.708         130.932          158.33 
       0.368458         148.528         122.125          148.01 
        0.38068         140.199          114.76         140.357 
       0.392856         130.733         108.037         133.771 
       0.405069          124.27         101.464             127 
       0.417459         117.652         95.0984         120.202 
       0.429752         112.988         89.3846         114.676 
       0.441978         108.107         84.3697         110.326 
       0.454294          100.56         79.8157         104.551 
        0.46658         100.522         75.5429         100.398 
       0.478753         93.7203         71.5118         96.3945 
       0.490964         90.8325         67.7255          92.566 
       0.503334         86.9322         64.2305         88.8428 
       0.515665         83.5716         61.0436         86.2492 
       0.527909         80.3779         58.1016         81.9251 
       0.540159         77.4991         55.3183         79.2688 
        0.55248         73.4141         52.6772         76.2481 
       0.564743         71.9496         50.2317          73.922 
        0.57686         69.7115         47.9841         71.3728 
       0.589077         66.1326         45.8624          69.329 
       0.601441         64.3343          43.845         67.1439 
        0.61382         62.5083         41.9428          64.768 
       0.626067         59.9115         40.1678         63.0187 
       0.638306          58.126         38.4963         61.0317 
       0.650632          56.202         36.9126         58.9456 
       0.662899          54.981         35.4286          57.257 
       0.675076         52.7263         34.0378         55.6899 
       0.687267         51.9792         32.7199         54.1284 
       0.699615         50.1224         31.4553         52.9278 
       0.711937         48.1073         30.2598          51.147 
       0.724148         47.8617         29.1366         50.2484 
       0.736433         45.2811         28.0649         48.7686 
       0.748747         44.6956         27.0455         47.5332 
       0.761037         43.4547         26.0792         46.4189 
       0.773197         42.4322         25.1701         45.5193 
       0.785376         40.9399         24.3033         44.3405 
       0.797761         40.4368         23.4639         43.4445 
       0.810096         39.4061         22.6675         42.3806 
       0.822371          38.489         21.9119         41.3482 
       0.834626         37.4195         21.1921         40.6439 
       0.846916         36.5188          20.503         39.7144 
       0.859215         35.3962         19.8443         38.8445 
       0.871383         34.9063         19.2212         38.1408 
        0.88363         34.0226         18.6214         37.4571 
       0.895928         33.2489         18.0449         36.5821 
       0.908253          32.571         17.4919          35.998 
       0.920535           31.99         16.9641         35.2565 
       0.932774         31.4392           16.46         34.5886 
        0.94508         30.7695         15.9739         33.8822 
       0.957324         30.1111         15.5099         33.3228 
        0.96953         29.4873         15.0659         32.6702 
       0.981769         28.9201         14.6382         32.1927 
       0.994071         28.2824         14.2252         31.6045 
         1.0064         27.6555         13.8274         31.0736 
        1.01868         27.0939         13.4461         30.5896 
        1.03092         26.8817          13.081         30.0422 
         1.0432         26.1611         12.7281         29.4735 
        1.05553         25.6721          12.387         29.1996 
        1.06777         25.0177         12.0609         28.5896 
           1.08         24.4995         11.7469         28.1494 
        1.09227         24.1774         11.4431         27.8013 
         1.1046         23.8252         11.1489          27.301 
         1.1169         23.4146         10.8657         26.9023 
        1.12915         23.1495         10.5938         26.5261 
        1.14142         22.4526         10.3306          26.117 
        1.15365         22.2569         10.0772          25.759 
        1.16585         21.9676         9.83296         25.4183 
        1.17807         21.4504         9.59658          24.964 
        1.19037         21.2633         9.36644         24.7522 
        1.20276         20.9421         9.14231         24.3618 
        1.21504         20.5269         8.92732         24.0902 
        1.22728         20.1238         8.72015         23.7324 
        1.23954         19.8712         8.51908         23.3893 
        1.25184         19.4963           8.324         23.1175 
        1.26414         19.2599         8.13496         22.7871 
        1.27632         18.9813          7.9535         22.4963 
         1.2886         18.7747         7.77631         22.2409 
        1.30093         18.3235         7.60392         22.0087 
        1.31316         18.1273         7.43802         21.6968 
        1.32541         17.9061         7.27705         21.4829 
        1.33772           17.58         7.11997         21.2132 
        1.35005         17.3551         6.96743         20.9868 
        1.36225         17.1169         6.82093         20.7273 
        1.37447         16.7753         6.67837         20.4679 
        1.38676         16.5878         6.53924         20.2653 
        1.39907         16.3342         6.40385         20.0332 
        1.41133         16.0913          6.2729         19.7997 
        1.42358         15.8933         6.14573         19.5686 
        1.43591         15.6548         6.02123         19.3991 
        1.44818         15.4365         5.90087         19.1932 
        1.46037         15.3484         5.78452         18.9448 
        1.47263         15.0611         5.67066          18.797 
        1.48494         14.9446         5.55945         18.5526 
        1.49724         14.7238         5.45131         18.3988 
        1.50952         14.5155         5.34627         18.2261 
        1.52178         14.3275         5.24416         18.0076 
        1.53409         14.0655         5.14432         17.8336 
        1.54637         14.0373         5.04728         17.6212 
        1.55858         13.8005          4.9533         17.4743 
        1.57081         13.5791         4.86158         17.3196 
        1.58313         13.4788         4.77163         17.1472 
        1.59544          13.246           4.684         16.9982 
        1.60767         13.1184         4.59913         16.8143 
        1.61994         12.8862         4.51608         16.6761 
        1.63225          12.823         4.43491         16.5421 
        1.64452         12.6497         4.35596         16.3977 
        1.65676          12.484         4.27918         16.2228 
          1.669         12.3815          4.2042         16.0739 
        1.68133         12.1424         4.13055         15.9259 
        1.69363         12.0068         4.05887         15.7551 
        1.70585          11.869         3.98936         15.6667 
        1.71809          11.748         3.92134         15.5197 
        1.73038         11.6202         3.85468         15.4013 
        1.74268         11.5077         3.78954         15.2471 
        1.75493         11.3058         3.72621         15.1127 
        1.76714         11.3175         3.66449         14.9965 
        1.77942         11.1694         3.60385         14.8483 
        1.79173         10.9462         3.54443         14.7466 
        1.80402         10.8864         3.48647         14.6317 
         1.8163         10.7593         3.42985         14.5096 
         1.8286         10.6011         3.37438         14.3969 
         1.8409          10.501         3.32019         14.2812 
        1.85315         10.3945         3.26738         14.1564 
        1.86537         10.2999         3.21581         14.0535 
        1.87765         10.2093         3.16517         13.9419 
        1.88995         10.0251          3.1155         13.8375 
        1.90221         9.98726         3.06707         13.7087 
        1.91445         9.85907         3.01975         13.6257 
        1.92674         9.75225         2.97327         13.5093 
        1.93902         9.66568         2.92776         13.4278 
        1.95124          9.5419         2.88345         13.3228 
         1.9635         9.44901         2.83994         13.2135 
        1.97583         9.36978         2.79706         13.0968 
        1.98812          9.2948         2.75522              13 
        2.00039         9.20906         2.71433         12.9218 
        2.01264         9.11533          2.6743         12.8334 
        2.02492         9.03915         2.63502         12.7235 
        2.03717         8.89994          2.5966         12.6361 
        2.04942         8.80485         2.55899         12.5459 
        2.06171         8.77961         2.52201         12.4597 
        2.07397         8.66851         2.48583         12.3772 
        2.08629         8.59167         2.45021         12.2972 
        2.09857         8.51313         2.41538         12.2016 
        2.11081         8.44062         2.38137          12.133 
        2.12309         8.32952         2.34793         12.0245 
        2.13538         8.25803         2.31508         11.9497 
        2.14763         8.17542         2.28298         11.8717 
        2.15986         8.13968         2.25156         11.7995 
        2.17214         8.06082          2.2206         11.6992 
        2.18443         7.95684         2.19019          11.634 
        2.19671         7.93079         2.16039         11.5558 
        2.20898         7.81411         2.13118         11.4827 
        2.22126         7.73384         2.10248         11.4022 
        2.23354         7.70123         2.07432         11.3187 
         2.2458         7.61036         2.04672         11.2583 
        2.25807         7.54871         2.01961         11.1731 
        2.27035         7.49164         1.99295         11.1058 
        2.28263         7.42917          1.9668           11.03 
         2.2949         7.34433         1.94112         10.9657 
        2.30718         7.28995          1.9159          10.909 
        2.31946         7.23724         1.89111         10.8349 
        2.33169         7.17351         1.86687         10.7682 
        2.34393         7.12414         1.84302         10.6944 
        2.35622         7.07377         1.81951         10.6318 
        2.36847         7.00866         1.79647         10.5632 
        2.38076         6.94974         1.77376         10.4999 
        2.39305         6.86375         1.75145         10.4248 
        2.40534         6.82796         1.72953         10.3578 
        2.41762         6.77878         1.70798         10.3115 
        2.42989         6.73914         1.68683         10.2495 
        2.44216         6.68186         1.66604         10.1793 
         2.4544         6.61891         1.64566         10.1204 
        2.46667         6.60834         1.62556         10.0607 
        2.47897         6.55016         1.60575         9.99095 
        2.49124         6.47367         1.58633         9.93363 
        2.50349         6.44186         1.56726         9.88486 
        2.51578         6.38541         1.54844         9.82961 
        2.52805         6.35141         1.52997         9.77233 
        2.54029         6.29098         1.51184         9.71652 
        2.55257         6.27937         1.49395          9.6588 
        2.56487          6.2089         1.47632         9.59338 
        2.57716          6.1704           1.459         9.54637 
        2.58942         6.14776         1.44199          9.4932 
        2.60167          6.1012         1.42527         9.43605 
        2.61395         6.04418          1.4088         9.38512 
        2.62624         6.02636         1.39256         9.33087 
        2.63849         6.00406         1.37662         9.28039 
        2.65073         5.95021         1.36096         9.22213 
        2.66302         5.91503         1.34548         9.16813 
         2.6753         5.87568         1.33025         9.11811 
        2.68756         5.84789         1.31529         9.07612 
        2.69983         5.80987         1.30055         9.01643 
        2.71213          5.7744           1.286         8.96644 
        2.72441         5.73874          1.2717         8.91973 
        2.73665         5.72552         1.25765         8.86614 
         2.7489         5.70348         1.24383         8.82005 
        2.76118         5.65067         1.23017         8.78056 
        2.77349         5.62894         1.21668         8.72691 
        2.78576         5.61198         1.20345         8.68062 
        2.79802         5.57233         1.19042         8.63381 
        2.81031         5.55512         1.17755         8.59102 
        2.82259         5.52121         1.16488         8.54499 
        2.83483         5.50721         1.15244         8.49701 
         2.8471         5.48931         1.14016         8.45615 
         2.8594         5.48147         1.12803          8.4125 
         2.8717         5.43727         1.11607          8.3609 
        2.88396         5.41965         1.10433         8.31968 
        2.89619         5.38655         1.09278         8.28226 
        2.90847         5.38524         1.08135         8.23239 
        2.92072         5.38576         1.07011         8.18855 
        2.93299         5.37582         1.05902         8.15253 
        2.94526         5.35495         1.04807         8.10662 
        2.95753         5.33749         1.03729         8.06263 
        2.96982         5.31654         1.02664         8.02392 
        2.98209         5.31017         1.01616         7.97733 
        2.99436         5.30425         1.00581         7.93806 
        3.00666         5.31369        0.995597         7.90205 
        3.01894         5.28541        0.985543         7.85674 
        3.03119         5.29014        0.975641         7.81794 
        3.04345         5.28504        0.965875         7.77977 
        3.05573         5.27594        0.956222         7.73749 
          3.068         5.26986        0.946713          7.7021 
        3.08026         5.29472        0.937342         7.66544 
        3.09254         5.28716         0.92808         7.62447 
        3.10483         5.27925        0.918942         7.58904 
         3.1171         5.28976         0.90994         7.55386 
        3.12933         5.29458        0.901082         7.51187 
        3.14159          5.2828        0.892324         7.47554 
