# k  (h/Mpc)    Pcb(k)  (Mpc/h)^3    Pcb_linear(k) (Mpc/h)^3    Pcb_NL(k) (Mpc/h)^3   ShotnoiseSubtracted = false
      0.0156606         1203.69         1204.33          1198.7 
      0.0273761         1048.17          1042.4         1040.14 
      0.0384619         796.289         785.703         785.459 
      0.0498308         625.794         618.164         618.392 
      0.0625568           528.1         525.447         525.083 
      0.0751274           453.9         446.466         445.542 
      0.0867833         362.109         359.475         359.394 
      0.0984825         291.331          284.49         285.154 
       0.111151         243.548         237.551         238.164 
       0.123864         218.686         214.086         214.429 
       0.135742          196.24          192.52         192.808 
        0.14762          166.76         164.616         165.458 
       0.160083         138.682         137.218         138.239 
       0.172465         121.641         119.766         120.967 
       0.184281         112.639         110.411         111.655 
       0.196406         102.945         101.965         102.881 
       0.209011         92.2797         90.7228         91.7946 
       0.221538         81.4543         79.2835         80.8152 
       0.233611         73.0488         70.9384         72.6361 
       0.245665         68.2958         65.4736         66.9702 
       0.258103         61.7695         60.9504         62.4317 
       0.270422         57.7936         56.0064         57.4286 
       0.282519         52.4176         50.8291         52.3755 
       0.294636         49.0759          46.311         47.9424 
       0.306978          43.855         42.8455         44.5238 
       0.319417          41.631         40.0581         41.6849 
        0.33169          38.702           37.39         38.9579 
       0.343948         36.4256          34.644         36.2113 
       0.356249         33.3312         32.0688         33.8435 
       0.368458         31.5452         29.9118         31.4997 
        0.38068         29.4381          28.108         29.6872 
       0.392856         27.6457         26.4614         28.0557 
       0.405069         26.1068         24.8513         26.3673 
       0.417459         24.1565         23.2923         24.8679 
       0.429752         23.0227         21.8928         23.4509 
       0.441978         21.8658         20.6645         22.3036 
       0.454294         20.4144         19.5491         21.0991 
        0.46658         19.9012         18.5026         20.0249 
       0.478753         18.5913         17.5153         19.0335 
       0.490964           17.86         16.5879         18.1749 
       0.503334         17.0338         15.7319         17.2342 
       0.515665         16.0468         14.9513         16.5267 
       0.527909         15.3757         14.2307         15.6843 
       0.540159         14.6026          13.549         14.9861 
        0.55248         13.6982         12.9021         14.2907 
       0.564743         13.4415         12.3032          13.764 
        0.57686         12.8801         11.7527         13.1696 
       0.589077         12.1041          11.233         12.6842 
       0.601441          11.616         10.7389         12.1633 
        0.61382         11.1588          10.273         11.6472 
       0.626067         10.6779         9.83824         11.2066 
       0.638306         10.2896         9.42884         10.7665 
       0.650632         9.99976         9.04096         10.3925 
       0.662899         9.52245         8.67747         9.98907 
       0.675076         9.05415         8.33682         9.63537 
       0.687267         8.79276         8.01404         9.26627 
       0.699615         8.53082          7.7043          8.9472 
       0.711937         8.09306          7.4115         8.66309 
       0.724148         7.96949          7.1364         8.37155 
       0.736433         7.54098          6.8739          8.0696 
       0.748747         7.32254         6.62422         7.83863 
       0.761037         7.11607         6.38754          7.5783 
       0.773197         6.80251         6.16487         7.36088 
       0.785376         6.57287         5.95257         7.12252 
       0.797761         6.36577         5.74698         6.88677 
       0.810096         6.19384         5.55191         6.71444 
       0.822371         6.03442         5.36685          6.4888 
       0.834626          5.8262         5.19056         6.29961 
       0.846916         5.61553         5.02178         6.13374 
       0.859215         5.39664         4.86044         5.96816 
       0.871383         5.24768         4.70784         5.80228 
        0.88363         5.10927         4.56091         5.63973 
       0.895928         4.99371         4.41972          5.4787 
       0.908253         4.83941         4.28428         5.33537 
       0.920535         4.67443           4.155         5.18542 
       0.932774         4.56059         4.03152         5.03372 
        0.94508         4.42271         3.91247          4.9192 
       0.957324         4.31015         3.79883         4.80889 
        0.96953         4.16113         3.69007         4.68451 
       0.981769         4.04769         3.58532          4.5531 
       0.994071         3.97112         3.48415         4.45757 
         1.0064         3.83681         3.38674           4.347 
        1.01868         3.72145         3.29334         4.24009 
        1.03092         3.66078         3.20391         4.13235 
         1.0432         3.52806         3.11748         4.04058 
        1.05553         3.45314         3.03393         3.95522 
        1.06777         3.34281         2.95405         3.86957 
           1.08          3.2854         2.87715         3.77528 
        1.09227         3.18362         2.80274         3.68784 
         1.1046         3.11033          2.7307         3.61068 
         1.1169         3.01756         2.66133         3.53195 
        1.12915         2.97006         2.59472         3.46113 
        1.14142          2.8826         2.53026         3.38014 
        1.15365         2.82004         2.46819         3.31583 
        1.16585         2.76342         2.40838         3.24707 
        1.17807         2.71005         2.35048          3.1778 
        1.19037          2.6106         2.29411         3.11042 
        1.20276         2.55618         2.23922         3.04252 
        1.21504         2.50484         2.18656         2.99424 
        1.22728         2.44695         2.13582         2.92461 
        1.23954         2.40177         2.08657         2.88174 
        1.25184          2.3445         2.03879         2.81528 
        1.26414         2.29765         1.99249         2.75772 
        1.27632         2.22837         1.94804          2.7155 
         1.2886         2.19966         1.90464         2.65818 
        1.30093         2.13316         1.86242         2.61608 
        1.31316         2.07389         1.82179         2.56384 
        1.32541         2.04932         1.78236         2.52198 
        1.33772         2.01464         1.74389         2.47496 
        1.35005         1.97107         1.70653         2.43241 
        1.36225         1.92768         1.67064         2.38548 
        1.37447         1.88705         1.63573         2.35021 
        1.38676         1.84699         1.60165         2.30297 
        1.39907         1.80174         1.56849         2.26962 
        1.41133         1.76799         1.53641         2.23068 
        1.42358         1.74651         1.50527         2.18643 
        1.43591         1.71011         1.47477         2.16274 
        1.44818         1.67199         1.44529         2.12427 
        1.46037         1.63349          1.4168         2.08493 
        1.47263         1.60146         1.38891         2.05495 
        1.48494         1.57561         1.36167          2.0217 
        1.49724         1.54084         1.33518         1.98869 
        1.50952         1.52379         1.30946         1.95523 
        1.52178         1.48466         1.28445         1.92886 
        1.53409         1.45788         1.25999         1.89479 
        1.54637         1.42485         1.23622         1.86448 
        1.55858         1.40593         1.21321         1.83607 
        1.57081         1.38336         1.19074         1.80846 
        1.58313         1.35284         1.16871         1.78557 
        1.59544         1.33143         1.14725         1.75724 
        1.60767         1.31011         1.12646         1.73143 
        1.61994         1.28221         1.10612         1.70757 
        1.63225         1.26495         1.08624         1.68382 
        1.64452         1.24178          1.0669          1.6574 
        1.65676         1.21544          1.0481         1.63491 
          1.669          1.1978         1.02973         1.60953 
        1.68133         1.17355         1.01169         1.59096 
        1.69363         1.16195        0.994135         1.56718 
        1.70585         1.13984        0.977109         1.54634 
        1.71809         1.12353        0.960449         1.52433 
        1.73038         1.09972        0.944124         1.50402 
        1.74268           1.079        0.928169         1.48293 
        1.75493         1.06989        0.912656         1.46563 
        1.76714         1.04812        0.897538         1.44324 
        1.77942         1.02687        0.882686         1.42498 
        1.79173         1.01487        0.868133         1.40613 
        1.80402        0.998433        0.853938         1.38797 
         1.8163        0.982462        0.840069         1.36879 
         1.8286        0.960718        0.826484         1.35579 
         1.8409        0.956582        0.813211         1.33729 
        1.85315        0.941643        0.800275         1.31839 
        1.86537         0.91984        0.787646         1.30385 
        1.87765        0.908821        0.775243         1.28681 
        1.88995        0.895914        0.763077         1.27162 
        1.90221        0.880593        0.751215         1.25531 
        1.91445        0.867206        0.739625         1.24144 
        1.92674        0.854134         0.72824         1.22572 
        1.93902        0.838162        0.717093         1.21005 
        1.95124        0.827615         0.70624         1.19585 
         1.9635        0.815761        0.695584         1.18129 
        1.97583        0.802077         0.68508         1.16651 
        1.98812            0.79        0.674834         1.15545 
        2.00039        0.778142        0.664817         1.14073 
        2.01264        0.767675        0.655013         1.12822 
        2.02492        0.758502        0.645393         1.11665 
        2.03717        0.750594        0.635983          1.1036 
        2.04942        0.736044        0.626772         1.08968 
        2.06171        0.726475        0.617712         1.07764 
        2.07397        0.715969        0.608852         1.06689 
        2.08629        0.707619        0.600128         1.05512 
        2.09857        0.696013        0.591597          1.0437 
        2.11081        0.685187        0.583266          1.0315 
        2.12309        0.676703        0.575076         1.02137 
        2.13538        0.669564        0.567031         1.00923 
        2.14763        0.661198        0.559167        0.999124 
        2.15986        0.652281        0.551471        0.989791 
        2.17214         0.63962        0.543888        0.977244 
        2.18443        0.633806        0.536441        0.968033 
        2.19671        0.626297        0.529143        0.958233 
        2.20898        0.617087        0.521988        0.947974 
        2.22126        0.607555        0.514959        0.938436 
        2.23354        0.599386        0.508061        0.929278 
         2.2458        0.593981        0.501302        0.918751 
        2.25807        0.584753         0.49466        0.909939 
        2.27035        0.579161        0.488132        0.900701 
        2.28263        0.569601        0.481726        0.892399 
         2.2949        0.563549        0.475437         0.88313 
        2.30718        0.557358         0.46926        0.874926 
        2.31946        0.549604        0.463188        0.866653 
        2.33169        0.541658        0.457251        0.857947 
        2.34393        0.537445        0.451409        0.849542 
        2.35622        0.529845         0.44565        0.841003 
        2.36847        0.524505        0.440007         0.83327 
        2.38076        0.516784        0.434445        0.825355 
        2.39305        0.511636        0.428982        0.817935 
        2.40534        0.504506        0.423611          0.8102 
        2.41762        0.499359        0.418334        0.801839 
        2.42989        0.492125        0.413154        0.794782 
        2.44216        0.488475        0.408063        0.788104 
         2.4544        0.484229        0.403069        0.780709 
        2.46667        0.477878        0.398147        0.773167 
        2.47897        0.472355        0.393296        0.766628 
        2.49124        0.465816        0.388538        0.759288 
        2.50349        0.461512        0.383867        0.752163 
        2.51578         0.45617        0.379258        0.745496 
        2.52805        0.452357        0.374734        0.739202 
        2.54029        0.446915        0.370294        0.732523 
        2.55257        0.442047        0.365913        0.726731 
        2.56487        0.438022        0.361594        0.720153 
        2.57716        0.433452        0.357351         0.71359 
        2.58942        0.429971        0.353186         0.70795 
        2.60167        0.425668        0.349091        0.701199 
        2.61395        0.420065        0.345055        0.695435 
        2.62624        0.416369        0.341077        0.690172 
        2.63849        0.412215        0.337175        0.684058 
        2.65073        0.408619        0.333338        0.678135 
        2.66302         0.40486        0.329546        0.672337 
         2.6753        0.401275        0.325816        0.666868 
        2.68756        0.397984        0.322152        0.661557 
        2.69983        0.393349        0.318541         0.65597 
        2.71213        0.388364        0.314978        0.650679 
        2.72441        0.386923        0.311476          0.6455 
        2.73665        0.383454        0.308036        0.640655 
         2.7489        0.381395        0.304649        0.635518 
        2.76118        0.377056        0.301303        0.630057 
        2.77349        0.374895           0.298        0.625416 
        2.78576        0.371907        0.294759        0.619987 
        2.79802        0.368846        0.291567        0.614816 
        2.81031        0.365838        0.288416        0.610742 
        2.82259         0.36385        0.285313        0.605353 
        2.83483        0.360829        0.282266        0.600701 
         2.8471        0.358409        0.279259        0.596259 
         2.8594        0.356705        0.276286         0.59198 
         2.8717        0.353249        0.273357        0.587469 
        2.88396        0.351082        0.270482        0.582793 
        2.89619        0.349483        0.267654        0.578661 
        2.90847        0.347123        0.264855        0.574501 
        2.92072        0.345772          0.2621        0.569799 
        2.93299        0.342967        0.259384        0.565371 
        2.94526        0.341404        0.256704        0.561346 
        2.95753        0.340734        0.254062        0.557321 
        2.96982         0.33842        0.251453        0.553071 
        2.98209        0.337618        0.248886          0.5489 
        2.99436         0.33459        0.246353        0.545045 
        3.00666        0.334548        0.243851        0.541381 
        3.01894        0.333818        0.241388        0.537375 
        3.03119        0.332625        0.238963        0.533285 
        3.04345        0.331096        0.236571        0.529632 
        3.05573        0.331132        0.234207        0.526219 
          3.068        0.328604        0.231877         0.52241 
        3.08026        0.328993        0.229582        0.518259 
        3.09254        0.328011        0.227314        0.514597 
        3.10483        0.327234        0.225076         0.51132 
         3.1171        0.327973        0.222871        0.507927 
        3.12933        0.327299        0.220701         0.50441 
        3.14159          0.3264        0.218556        0.500898 
