# k  (h/Mpc)    Pcb(k)  (Mpc/h)^3    Pcb_linear(k) (Mpc/h)^3    Pcb_NL(k) (Mpc/h)^3   ShotnoiseSubtracted = false
      0.0156606         19806.5         19906.8           19756 
      0.0273761         16992.7         17211.3         17038.3 
      0.0384619         12857.3         12966.6         12815.6 
      0.0498308          9938.2           10199         10047.9 
      0.0625568          8394.5         8667.76         8532.44 
      0.0751274         7465.54         7364.14         7173.25 
      0.0867833         5789.26         5928.92         5870.72 
      0.0984825         4878.21         4691.96         4746.71 
       0.111151          4165.7         3917.69          3984.1 
       0.123864         3732.91         3530.62         3584.61 
       0.135742         3398.87          3174.9         3229.27 
        0.14762         2953.95         2714.69         2859.15 
       0.160083         2500.71         2262.85         2439.72 
       0.172465         2230.47         1975.03         2199.85 
       0.184281         2026.27         1820.74         2047.24 
       0.196406         1902.98         1681.45         1883.72 
       0.209011         1775.85         1496.06         1706.17 
       0.221538         1600.19         1307.41         1589.36 
       0.233611         1527.81          1169.8         1486.61 
       0.245665         1387.35         1079.68         1371.74 
       0.258103         1365.78         1005.09         1294.42 
       0.270422         1219.45         923.556         1214.63 
       0.282519         1147.78         838.179         1147.07 
       0.294636         1130.36         763.674         1085.22 
       0.306978         1028.33         706.526         1038.77 
       0.319417         1004.66         660.561         979.006 
        0.33169         945.248         616.563         926.059 
       0.343948         905.265         571.281         896.758 
       0.356249         856.013         528.815         862.688 
       0.368458         824.898         493.246         822.578 
        0.38068         807.906           463.5         790.369 
       0.392856         765.677         436.347         761.867 
       0.405069         728.181         409.797         737.946 
       0.417459         700.045         384.088         709.643 
       0.429752         692.469         361.011         684.704 
       0.441978         668.362         340.757         666.811 
       0.454294         637.361         322.364         639.186 
        0.46658         620.063         305.106         625.575 
       0.478753         606.635         288.825          606.06 
       0.490964         583.047         273.533         587.247 
       0.503334         556.289         259.417         573.529 
       0.515665         554.844         246.546         560.918 
       0.527909         532.466         234.663         548.044 
       0.540159         518.893         223.422         533.591 
        0.55248         508.629         212.755          519.58 
       0.564743          504.31         202.878         510.651 
        0.57686         485.962           193.8         496.818 
       0.589077          474.41         185.231         485.725 
       0.601441         465.971         177.083         475.835 
        0.61382         454.036           169.4         467.516 
       0.626067         448.382         162.231         458.295 
       0.638306         431.306          155.48          449.26 
       0.650632         426.676         149.084         437.779 
       0.662899         422.843          143.09         432.655 
       0.675076          407.63         137.473         426.016 
       0.687267         396.713          132.15          415.85 
       0.699615         393.357         127.043         409.251 
       0.711937         386.696         122.214         401.761 
       0.724148         373.649         117.678         396.059 
       0.736433         364.913         113.349         388.724 
       0.748747         360.152         109.232         381.705 
       0.761037         353.323         105.329         376.713 
       0.773197         348.742         101.658         370.935 
       0.785376         343.457         98.1568         365.294 
       0.797761         333.801         94.7666         359.537 
       0.810096         331.003           91.55         355.026 
       0.822371         320.328         88.4984         349.186 
       0.834626         318.189         85.5914         344.747 
       0.846916         311.816         82.8082         339.459 
       0.859215          310.41         80.1478         334.598 
       0.871383         302.529         77.6313         329.993 
        0.88363         300.325         75.2085          326.61 
       0.895928         294.564         72.8804         321.436 
       0.908253         287.097          70.647          316.28 
       0.920535         283.607         68.5151         312.417 
       0.932774          277.36          66.479         307.928 
        0.94508         273.625         64.5159         304.735 
       0.957324         272.035          62.642         300.549 
        0.96953         268.075         60.8486         296.766 
       0.981769         260.748         59.1212         293.641 
       0.994071         259.729          57.453          289.97 
         1.0064         254.196         55.8466         285.723 
        1.01868         251.242         54.3066         282.107 
        1.03092         244.118         52.8318         279.522 
         1.0432         240.948         51.4067          276.13 
        1.05553         238.003         50.0289          272.43 
        1.06777         236.401         48.7117          269.53 
           1.08         230.621         47.4435         266.414 
        1.09227         228.678         46.2166         263.259 
         1.1046         224.874         45.0287         260.673 
         1.1169         219.722         43.8848         257.133 
        1.12915         216.843         42.7864         254.758 
        1.14142         213.029         41.7235          251.57 
        1.15365         210.191            40.7         248.917 
        1.16585         206.604         39.7136         245.924 
        1.17807         204.272         38.7589         243.678 
        1.19037         201.681         37.8294         241.473 
        1.20276         198.799         36.9242         238.347 
        1.21504         194.479         36.0559         235.739 
        1.22728         191.268         35.2192         232.809 
        1.23954         190.413         34.4071         230.975 
        1.25184         186.443         33.6192         228.425 
        1.26414         182.906         32.8557         226.163 
        1.27632         182.023         32.1228         224.339 
         1.2886         180.445         31.4072         221.586 
        1.30093         175.387         30.7109         218.984 
        1.31316         172.182         30.0409         216.594 
        1.32541         170.969         29.3907         214.688 
        1.33772          168.91         28.7563         212.522 
        1.35005         166.306         28.1402         210.139 
        1.36225          163.37         27.5485         208.196 
        1.37447         161.073         26.9728         205.651 
        1.38676         159.198         26.4109         204.047 
        1.39907         156.687          25.864         201.745 
        1.41133          153.97         25.3351          199.81 
        1.42358         152.125         24.8215         197.928 
        1.43591          150.27         24.3187         195.938 
        1.44818         147.742         23.8326         194.063 
        1.46037         145.981         23.3626         192.015 
        1.47263          143.74         22.9028         190.432 
        1.48494          141.75         22.4536         188.096 
        1.49724         139.718         22.0169         186.705 
        1.50952          137.14         21.5927         184.796 
        1.52178          136.38         21.1803         182.779 
        1.53409         133.423          20.777         181.259 
        1.54637           131.8         20.3851         179.754 
        1.55858         129.693         20.0055         177.795 
        1.57081          127.71         19.6351         176.253 
        1.58313         125.992         19.2718         174.456 
        1.59544         123.845         18.9178         172.919 
        1.60767         122.851         18.5751         171.328 
        1.61994         120.544         18.2397         169.858 
        1.63225         119.002         17.9118         167.996 
        1.64452         116.832          17.593         166.491 
        1.65676         115.165         17.2829         165.079 
          1.669         114.255           16.98         163.632 
        1.68133         111.811         16.6826         162.135 
        1.69363         110.185         16.3931         160.687 
        1.70585         108.263         16.1123         159.267 
        1.71809         106.947         15.8376         157.571 
        1.73038         106.128         15.5684         156.313 
        1.74268         104.952         15.3053         154.816 
        1.75493         102.274         15.0495         153.499 
        1.76714         101.592         14.8002         152.236 
        1.77942         99.8052         14.5553         150.698 
        1.79173         98.2981         14.3153         149.464 
        1.80402         97.4422         14.0812         148.145 
         1.8163          95.355         13.8525         146.833 
         1.8286         94.1172         13.6285         145.492 
         1.8409         93.4486         13.4097         144.151 
        1.85315         91.5738         13.1964         142.995 
        1.86537         90.6767         12.9881         141.808 
        1.87765         89.6629         12.7836         140.591 
        1.88995         88.0842          12.583          139.33 
        1.90221         86.8717         12.3874         138.179 
        1.91445         85.7964         12.1963          136.87 
        1.92674         84.3482         12.0085         135.721 
        1.93902         83.2201         11.8247         134.505 
        1.95124         82.2577         11.6457         133.385 
         1.9635         80.8983           11.47         132.189 
        1.97583         79.6592         11.2968         131.135 
        1.98812         78.6521         11.1279         130.088 
        2.00039          77.705         10.9627         128.908 
        2.01264         76.7284          10.801         127.845 
        2.02492           75.88         10.6424         126.718 
        2.03717          74.555         10.4872         125.669 
        2.04942         74.0493         10.3353         124.698 
        2.06171         72.3535         10.1859         123.614 
        2.07397         71.5877         10.0398         122.628 
        2.08629         70.7314         9.89598         121.563 
        2.09857         69.6743         9.75529         120.587 
        2.11081         68.4972         9.61792         119.472 
        2.12309         67.5589         9.48287         118.635 
        2.13538         66.7237         9.35021         117.592 
        2.14763         65.8707         9.22054         116.655 
        2.15986         64.8261         9.09363         115.638 
        2.17214         64.1683          8.9686         114.696 
        2.18443         63.3415          8.8458         113.927 
        2.19671         62.2067         8.72544         112.951 
        2.20898         61.7105         8.60747         111.969 
        2.22126         60.7856         8.49156          111.09 
        2.23354         60.0925         8.37782         110.224 
         2.2458         59.0287         8.26636         109.354 
        2.25807         58.3004         8.15683         108.445 
        2.27035         57.5462         8.04919         107.559 
        2.28263         56.7691         7.94355         106.719 
         2.2949         56.0033         7.83986         105.885 
        2.30718         55.0894         7.73799         105.071 
        2.31946         54.7385         7.63787         104.181 
        2.33169         53.7291         7.53997         103.388 
        2.34393         53.2509         7.44363         102.629 
        2.35622         52.3211         7.34866         101.809 
        2.36847          51.933         7.25562         101.114 
        2.38076         51.0294         7.16391         100.193 
        2.39305         50.4494         7.07381          99.515 
        2.40534         49.8356         6.98525         98.6952 
        2.41762         49.2581         6.89823         97.8898 
        2.42989         48.5111         6.81282         97.2072 
        2.44216         48.0032         6.72886         96.4049 
         2.4544           47.29         6.64651         95.6877 
        2.46667         46.7516         6.56535         94.9411 
        2.47897         46.2358         6.48535         94.1962 
        2.49124         45.6877         6.40691         93.5243 
        2.50349         45.3338         6.32988         92.7944 
        2.51578         44.5504         6.25388         92.1868 
        2.52805         44.0476         6.17927         91.4153 
        2.54029         43.6142         6.10606         90.6865 
        2.55257         43.0135         6.03382         90.0677 
        2.56487         42.6987          5.9626         89.4364 
        2.57716         42.0261         5.89264         88.7662 
        2.58942         41.4518         5.82396         88.0895 
        2.60167         41.0732         5.75643         87.4511 
        2.61395         40.5207         5.68988         86.8134 
        2.62624         40.1232         5.62429         86.1154 
        2.63849         39.6168         5.55994         85.5065 
        2.65073         39.2693         5.49666         84.8788 
        2.66302         38.7682         5.43414           84.24 
         2.6753         38.3583         5.37264         83.6561 
        2.68756         37.9472         5.31221          83.026 
        2.69983         37.4913         5.25267         82.4629 
        2.71213         37.1323         5.19392         81.8742 
        2.72441         36.7544         5.13617         81.2709 
        2.73665         36.2456         5.07944         80.6987 
         2.7489         35.9696          5.0236         80.1274 
        2.76118         35.5758         4.96843         79.5562 
        2.77349          35.196         4.91395         78.9892 
        2.78576         34.8978         4.86051         78.3933 
        2.79802         34.5549         4.80788         77.9192 
        2.81031         34.1167         4.75592         77.3454 
        2.82259          34.004         4.70474         76.7718 
        2.83483         33.5336         4.65451         76.2802 
         2.8471         33.2362         4.60492         75.7316 
         2.8594          32.949         4.55589         75.1807 
         2.8717         32.7977          4.5076         74.6854 
        2.88396         32.3909         4.46019         74.1579 
        2.89619         32.2419         4.41355         73.6045 
        2.90847         31.8514         4.36739         73.0847 
        2.92072         31.6813         4.32198         72.6237 
        2.93299         31.5119         4.27719         72.1363 
        2.94526         31.1627         4.23299           71.64 
        2.95753         30.9634         4.18943         71.1383 
        2.96982         30.7345         4.14641         70.6581 
        2.98209         30.5022         4.10408         70.1932 
        2.99436         30.2742          4.0623         69.6818 
        3.00666         30.2416         4.02104         69.2211 
        3.01894         29.9179         3.98043          68.747 
        3.03119         29.8752         3.94044         68.3035 
        3.04345          29.751           3.901         67.8679 
        3.05573         29.4062         3.86201         67.4088 
          3.068          29.409          3.8236         66.9575 
        3.08026         29.2317         3.78576         66.5067 
        3.09254         29.1677         3.74835         66.0741 
        3.10483         29.1325         3.71144          65.645 
         3.1171         28.9363         3.67509         65.2083 
        3.12933         28.8545         3.63931         64.7703 
        3.14159         28.7392         3.60394          64.328 
