# k  (h/Mpc)    Pcb(k)  (Mpc/h)^3    Pcb_linear(k) (Mpc/h)^3    Pcb_NL(k) (Mpc/h)^3   ShotnoiseSubtracted = false
      0.0156606         11769.7         11805.8         11731.6 
      0.0273761         10146.9         10209.7         10142.6 
      0.0384619         7698.08         7692.63         7640.92 
      0.0498308         5981.35          6051.1         6001.81 
      0.0625568         5049.16         5142.87         5096.65 
      0.0751274         4453.47         4369.51         4302.15 
      0.0867833         3477.85         3517.99         3500.07 
      0.0984825         2888.88         2784.06         2809.22 
       0.111151         2446.91         2324.65            2352 
       0.123864         2196.53         2094.99         2117.85 
       0.135742         1987.96         1883.93         1907.37 
        0.14762          1711.3         1610.85         1670.76 
       0.160083         1429.57         1342.74         1413.14 
       0.172465         1273.55         1171.96         1260.09 
       0.184281         1170.74         1080.41         1171.61 
       0.196406         1079.06         997.754         1074.25 
       0.209011         994.052         887.748         969.344 
       0.221538         896.091         775.808         888.879 
       0.233611         835.481         694.147         821.208 
       0.245665         771.385         640.672         755.584 
       0.258103         731.014         596.411          710.54 
       0.270422         664.806         548.032          662.04 
       0.282519         613.403          497.37         617.155 
       0.294636         607.547          453.16         578.893 
       0.306978         542.031         419.249         549.817 
       0.319417         522.397         391.973         517.108 
        0.33169         491.551         365.865         486.697 
       0.343948         468.433         338.995         466.803 
       0.356249         438.816         313.796         446.124 
       0.368458         425.586          292.69         421.103 
        0.38068         407.788         275.039         402.061 
       0.392856         382.617         258.927         385.466 
       0.405069         367.325         243.172         372.158 
       0.417459         351.205         227.917         353.057 
       0.429752         339.656         214.223         339.833 
       0.441978         328.535         202.204         329.331 
       0.454294         308.345         191.289         314.168 
        0.46658         306.013         181.049         305.375 
       0.478753         293.092         171.388         294.584 
       0.490964         283.219         162.313         284.194 
       0.503334         267.258         153.937         275.938 
       0.515665         264.496         146.299         269.543 
       0.527909         256.218         139.249         260.274 
       0.540159         248.994         132.578         252.796 
        0.55248         243.953         126.248         245.177 
       0.564743         237.866         120.387         239.823 
        0.57686         229.328             115         232.312 
       0.589077         220.223         109.915          227.26 
       0.601441         216.945          105.08         221.721 
        0.61382         214.557         100.522         216.289 
       0.626067         208.986         96.2675         211.137 
       0.638306         199.461         92.2615         206.849 
       0.650632         194.278          88.466         200.251 
       0.662899         194.005         84.9093         196.813 
       0.675076         186.914          81.576         192.408 
       0.687267         182.111         78.4176         188.188 
       0.699615         178.536         75.3868         184.431 
       0.711937          174.33         72.5217         180.668 
       0.724148         171.034         69.8298         178.017 
       0.736433         166.909         67.2613         173.905 
       0.748747         163.247         64.8181         170.355 
       0.761037         160.775         62.5022          166.88 
       0.773197         157.481         60.3234         164.973 
       0.785376          155.61          58.246         161.241 
       0.797761         152.325         56.2343         159.182 
       0.810096         148.799         54.3256         156.103 
       0.822371         144.028         52.5147         153.475 
       0.834626         142.321         50.7898         150.854 
       0.846916         140.696         49.1382         148.581 
       0.859215         138.944         47.5595         146.119 
       0.871383         136.085         46.0663         143.666 
        0.88363         133.592         44.6286         141.977 
       0.895928          130.95         43.2471         139.951 
       0.908253         127.438         41.9218         137.371 
       0.920535         126.849         40.6567         135.626 
       0.932774         123.112         39.4485         133.335 
        0.94508          122.15         38.2836         131.643 
       0.957324         120.765         37.1716         129.773 
        0.96953          120.08         36.1074         127.659 
       0.981769         116.247         35.0824         126.489 
       0.994071         115.485         34.0925         124.678 
         1.0064         112.695         33.1392         122.844 
        1.01868         111.637         32.2254          121.44 
        1.03092         109.648         31.3503         119.935 
         1.0432         107.763         30.5046         118.345 
        1.05553         105.264          29.687         117.177 
        1.06777          105.08         28.9054         115.818 
           1.08         102.997         28.1529         114.272 
        1.09227         101.572         27.4248         112.914 
         1.1046         99.7884         26.7199         111.524 
         1.1169         98.6226         26.0411         109.999 
        1.12915         97.1936         25.3894         108.852 
        1.14142         95.5914         24.7586         107.494 
        1.15365         93.7613         24.1513         106.292 
        1.16585         92.6496          23.566         105.016 
        1.17807         91.1875         22.9995          104.09 
        1.19037         91.0101         22.4479             103 
        1.20276         89.0011         21.9107         101.774 
        1.21504         88.3641         21.3955         100.569 
        1.22728         86.4234          20.899         99.5552 
        1.23954         85.7716         20.4171         98.4222 
        1.25184         84.0507         19.9496         97.4921 
        1.26414         82.9693         19.4965         96.4918 
        1.27632         82.1623         19.0616         95.8159 
         1.2886         80.7999          18.637          94.445 
        1.30093         79.6381         18.2238         93.3853 
        1.31316         78.8415         17.8262         92.6839 
        1.32541         78.0541         17.4404         91.7723 
        1.33772         76.8388         17.0639         90.8222 
        1.35005         76.1301         16.6984          89.922 
        1.36225         74.9512         16.3472          89.034 
        1.37447         73.3167         16.0056         88.0855 
        1.38676         73.3507         15.6721         87.1338 
        1.39907         71.9023         15.3477         86.5072 
        1.41133         70.6597         15.0338         85.8331 
        1.42358         69.8819          14.729           84.77 
        1.43591         69.3772         14.4307         84.0205 
        1.44818         68.3778         14.1422         83.1704 
        1.46037         67.5158         13.8634         82.5322 
        1.47263         66.4831         13.5905         81.8627 
        1.48494         65.8031         13.3239         81.0301 
        1.49724         64.7359         13.0648         80.2081 
        1.50952         64.2475          12.813         79.4481 
        1.52178         63.3999         12.5683         78.8391 
        1.53409         62.8516          12.329         78.1586 
        1.54637         61.3399         12.0965         77.3943 
        1.55858         60.7468         11.8712         76.6537 
        1.57081         60.2578         11.6514         76.1022 
        1.58313         59.2698         11.4358         75.4728 
        1.59544         58.5207         11.2258         74.7221 
        1.60767         57.9394         11.0224         74.1048 
        1.61994         57.0568         10.8234         73.5661 
        1.63225         56.3325         10.6288          72.761 
        1.64452         55.7229         10.4396         72.2504 
        1.65676         54.8908         10.2556         71.5609 
          1.669          54.515         10.0759         71.0244 
        1.68133         53.9349          9.8994         70.3698 
        1.69363         52.9919         9.72762         69.8747 
        1.70585         52.6853         9.56102         69.2767 
        1.71809         51.5682           9.398         68.7299 
        1.73038         51.1818         9.23826         68.1377 
        1.74268         50.4674         9.08214         67.5618 
        1.75493         49.9369         8.93035         66.9966 
        1.76714         49.3182         8.78242         66.4317 
        1.77942         49.0192         8.63709         65.9234 
        1.79173         48.1601         8.49468         65.3137 
        1.80402         47.7187         8.35579         64.8876 
         1.8163         47.0874         8.22007         64.2703 
         1.8286         46.4199         8.08715         63.8936 
         1.8409           45.85         7.95728         63.2587 
        1.85315         45.3535         7.83069          62.898 
        1.86537         44.8205         7.70712         62.3651 
        1.87765         44.3899         7.58575         61.7861 
        1.88995         43.7801         7.46671         61.2876 
        1.90221         43.4168         7.35064         60.8099 
        1.91445         42.7304         7.23723         60.4097 
        1.92674         42.3029         7.12583         59.8844 
        1.93902         41.8368         7.01676         59.4032 
        1.95124         41.4269         6.91056         59.0273 
         1.9635          40.742         6.80629         58.5102 
        1.97583         40.3782         6.70351          58.136 
        1.98812         39.7086         6.60325         57.6303 
        2.00039         39.4832         6.50524         57.1771 
        2.01264         38.8446         6.40931         56.7966 
        2.02492         38.5159         6.31518         56.3679 
        2.03717         37.9522         6.22309         55.8928 
        2.04942         37.5041         6.13296         55.4907 
        2.06171         37.1625         6.04432         55.0226 
        2.07397         36.6389         5.95762         54.6666 
        2.08629         36.2484         5.87226         54.2263 
        2.09857         35.9243         5.78877         53.8673 
        2.11081         35.4046         5.70726         53.4253 
        2.12309          35.083         5.62712         53.0195 
        2.13538         34.5945          5.5484         52.6796 
        2.14763          34.282         5.47145         52.2719 
        2.15986         34.0768         5.39615         51.8596 
        2.17214         33.4512         5.32195         51.5569 
        2.18443         33.1975         5.24908         51.0941 
        2.19671         32.6834         5.17766         50.7285 
        2.20898         32.2563         5.10766         50.3462 
        2.22126         32.0998         5.03887         49.9725 
        2.23354         31.6817         4.97138         49.6719 
         2.2458         31.3553         4.90524         49.2847 
        2.25807         30.8293         4.84025         48.9069 
        2.27035         30.5327         4.77638         48.5765 
        2.28263         30.1798         4.71369         48.2388 
         2.2949          29.921         4.65216         47.8972 
        2.30718         29.6042         4.59171         47.5361 
        2.31946         29.2838          4.5323         47.2034 
        2.33169         28.9887          4.4742         46.8548 
        2.34393         28.5918         4.41703         46.4956 
        2.35622         28.2667         4.36068         46.2256 
        2.36847         27.9473         4.30547         45.8482 
        2.38076         27.7091         4.25105         45.5753 
        2.39305         27.3794         4.19759          45.259 
        2.40534         27.1205         4.14504         44.8759 
        2.41762         26.7454          4.0934         44.5929 
        2.42989         26.5594         4.04271         44.2813 
        2.44216         26.2368         3.99289          43.981 
         2.4544         25.9724         3.94403         43.6875 
        2.46667          25.614         3.89587         43.3661 
        2.47897         25.4162          3.8484         43.0822 
        2.49124         25.1896         3.80185         42.7734 
        2.50349          24.865         3.75614         42.5077 
        2.51578         24.5234         3.71104         42.2188 
        2.52805         24.3617         3.66677         41.9085 
        2.54029          24.163         3.62332         41.6254 
        2.55257         23.9055         3.58046         41.3399 
        2.56487         23.6891          3.5382         41.0608 
        2.57716         23.4181         3.49668         40.7683 
        2.58942         23.1769         3.45592         40.5248 
        2.60167          22.946         3.41586         40.2261 
        2.61395         22.7346         3.37636         39.9549 
        2.62624         22.5378         3.33744         39.7019 
        2.63849         22.3638         3.29926         39.4312 
        2.65073         22.0887         3.26171         39.1489 
        2.66302         21.8091         3.22461         38.9109 
         2.6753         21.6927         3.18812         38.6549 
        2.68756         21.5248         3.15226         38.4174 
        2.69983         21.3325         3.11693          38.133 
        2.71213         21.1378         3.08206         37.8887 
        2.72441         20.9691          3.0478         37.6202 
        2.73665         20.7476         3.01413         37.3731 
         2.7489         20.5419         2.98099         37.1335 
        2.76118         20.4164         2.94825          36.865 
        2.77349         20.3047         2.91593          36.648 
        2.78576         20.0756         2.88421         36.4178 
        2.79802         19.8684         2.85299         36.1722 
        2.81031         19.7675         2.82215         35.9549 
        2.82259         19.6659         2.79178         35.7153 
        2.83483         19.4138         2.76198         35.4674 
         2.8471         19.3599         2.73255         35.2298 
         2.8594         19.1924         2.70346         35.0138 
         2.8717         19.0119          2.6748         34.7793 
        2.88396         18.8481         2.64667         34.5462 
        2.89619         18.8148         2.61899          34.335 
        2.90847         18.6692          2.5916         34.1126 
        2.92072          18.515         2.56465         33.9072 
        2.93299         18.4579         2.53807         33.6975 
        2.94526         18.3644         2.51185         33.4772 
        2.95753         18.2672           2.486         33.2614 
        2.96982         18.2033         2.46047         33.0561 
        2.98209         18.0509         2.43535         32.8514 
        2.99436         18.0247         2.41056         32.6434 
        3.00666         17.8982         2.38608         32.4311 
        3.01894          17.839         2.36198         32.2177 
        3.03119         17.6919         2.33825         32.0155 
        3.04345         17.7276         2.31484         31.8239 
        3.05573         17.6391         2.29171         31.6256 
          3.068          17.567         2.26892         31.4154 
        3.08026         17.5557         2.24646          31.223 
        3.09254         17.4775         2.22427         31.0362 
        3.10483          17.442         2.20236         30.8472 
         3.1171         17.4488         2.18079         30.6586 
        3.12933         17.3912         2.15956         30.4682 
        3.14159         17.3255         2.13857         30.2737 
