# k  (h/Mpc)    P(k)  (Mpc/h)^3    P_linear(k)  (Mpc/h)^3     P_NL(k)  ShotnoiseSubtracted = false
      0.0156606         20619.9         20657.8         20498.3 
      0.0273761         17653.6         17830.8         17644.5 
      0.0384619         13340.9         13421.3         13257.6 
      0.0498308         10301.4         10550.7         10386.6 
      0.0625568         8698.49         8963.17         8816.66 
      0.0751274         7739.19         7613.18            7407 
      0.0867833         5997.05         6128.41         6065.07 
      0.0984825         5059.87         4849.24         4907.19 
       0.111151         4324.11         4048.62         4119.82 
       0.123864         3873.88         3648.35         3706.08 
       0.135742         3529.46         3280.59         3338.61 
        0.14762         3069.94         2804.95            2959 
       0.160083         2603.34            2338         2527.31 
       0.172465         2321.88         2040.56         2281.42 
       0.184281         2106.73         1881.11          2123.2 
       0.196406         1982.93         1737.17         1954.63 
       0.209011         1852.81         1545.61         1771.13 
       0.221538         1668.86         1350.69            1652 
       0.233611         1596.73          1208.5         1546.87 
       0.245665         1448.46         1115.39            1428 
       0.258103         1430.13         1038.32         1347.99 
       0.270422         1276.07         954.091         1265.75 
       0.282519         1203.28         865.884         1196.99 
       0.294636         1183.33         788.911         1133.26 
       0.306978         1078.82         729.872         1085.49 
       0.319417         1055.76         682.384         1023.28 
        0.33169          992.85          636.93         968.597 
       0.343948         951.916         590.149         938.459 
       0.356249         901.199         546.279         903.326 
       0.368458         867.106         509.533         862.367 
        0.38068         851.239         478.807         829.151 
       0.392856         807.498         450.755         799.809 
       0.405069         767.016         423.325         774.403 
       0.417459         737.577         396.769         745.955 
       0.429752         731.709         372.929         719.867 
       0.441978         706.088         352.005         701.396 
       0.454294         674.171         333.004         672.636 
        0.46658         655.408         315.176         658.636 
       0.478753         642.093         298.357         638.434 
       0.490964         617.063         282.558         618.827 
       0.503334         589.741         267.978         604.766 
       0.515665         587.949         254.681         591.357 
       0.527909         563.908         242.407         578.376 
       0.540159         549.708         230.793         563.444 
        0.55248         538.803         219.774         548.764 
       0.564743         534.397         209.572         539.431 
        0.57686         515.625         200.194          525.04 
       0.589077         504.629         191.342         513.391 
       0.601441         494.555         182.925         503.191 
        0.61382         481.354         174.989         494.445 
       0.626067         475.724         167.583         484.961 
       0.638306         457.975         160.609         475.289 
       0.650632         453.432         154.002         463.547 
       0.662899         449.467          147.81         458.076 
       0.675076         433.907         142.008         451.419 
       0.687267         421.958         136.509         440.672 
       0.699615         419.249         131.233         433.724 
       0.711937         411.602         126.246         425.704 
       0.724148         397.859          121.56         419.817 
       0.736433         388.495         117.088         412.209 
       0.748747         383.515         112.835         404.854 
       0.761037           376.4         108.804          399.76 
       0.773197         371.254         105.011         393.445 
       0.785376         365.885         101.394         387.634 
       0.797761         355.269         97.8924         381.628 
       0.810096         352.154         94.5696         376.861 
       0.822371         341.534         91.4173         370.694 
       0.834626         338.832         88.4145         366.163 
       0.846916         332.571         85.5394         360.485 
       0.859215         330.209         82.7912         355.294 
       0.871383         322.178         80.1917         350.516 
        0.88363         319.431          77.689         346.944 
       0.895928         313.875         75.2841         341.484 
       0.908253         305.988          72.977         335.971 
       0.920535         301.458         70.7748         332.057 
       0.932774         295.696         68.6716         327.182 
        0.94508         291.436         66.6437         323.822 
       0.957324         289.378         64.7079         319.447 
        0.96953         285.333         62.8554         315.518 
       0.981769         277.896          61.071         312.108 
       0.994071          276.84         59.3478         308.253 
         1.0064         271.151         57.6884         303.759 
        1.01868         268.113         56.0976         299.881 
        1.03092         260.151         54.5741         297.203 
         1.0432         257.238          53.102         293.604 
        1.05553           254.2         51.6787          289.62 
        1.06777         251.847         50.3182          286.47 
           1.08         245.858         49.0082         283.233 
        1.09227         244.346         47.7408         279.838 
         1.1046         239.995         46.5136         277.126 
         1.1169         234.465          45.332         273.398 
        1.12915         231.432         44.1974         270.797 
        1.14142          227.08         43.0994          267.48 
        1.15365         224.295         42.0421         264.659 
        1.16585         220.306         41.0233         261.574 
        1.17807          218.01         40.0371         259.023 
        1.19037         214.925         39.0769         256.753 
        1.20276         211.905         38.1418         253.405 
        1.21504         207.335         37.2449         250.605 
        1.22728         204.118         36.3806           247.6 
        1.23954         203.068         35.5417         245.488 
        1.25184         198.654         34.7278         242.827 
        1.26414          194.72         33.9391          240.47 
        1.27632         193.625         33.1821         238.412 
         1.2886         192.106         32.4429         235.578 
        1.30093         187.007         31.7236         232.727 
        1.31316         183.272         31.0315         230.282 
        1.32541          182.15         30.3599         228.111 
        1.33772         179.591         29.7046         225.893 
        1.35005         177.077         29.0682         223.355 
        1.36225         173.762          28.457         221.275 
        1.37447         171.236         27.8622         218.559 
        1.38676         169.388         27.2818         216.941 
        1.39907         166.828         26.7169         214.406 
        1.41133          163.79         26.1706          212.27 
        1.42358         161.863           25.64         210.269 
        1.43591         159.873         25.1206         208.249 
        1.44818         156.927         24.6185         206.178 
        1.46037         155.343          24.133         203.984 
        1.47263         152.606         23.6581         202.226 
        1.48494         150.794         23.1941         199.745 
        1.49724          148.53         22.7429         198.369 
        1.50952         145.764         22.3047         196.255 
        1.52178         144.776         21.8787         194.134 
        1.53409         141.773         21.4621         192.483 
        1.54637          139.91         21.0573         190.894 
        1.55858         137.995         20.6652         188.813 
        1.57081         135.708         20.2826         187.121 
        1.58313         133.882         19.9073         185.212 
        1.59544         131.456         19.5417         183.562 
        1.60767         130.399         19.1876         181.907 
        1.61994         128.011         18.8411          180.24 
        1.63225         126.237         18.5025          178.33 
        1.64452         124.051         18.1731         176.737 
        1.65676         122.338         17.8528         175.216 
          1.669         121.185           17.54         173.615 
        1.68133         118.709         17.2327         172.031 
        1.69363         116.769         16.9336         170.518 
        1.70585         114.847         16.6436             169 
        1.71809           113.4         16.3598         167.175 
        1.73038         112.369         16.0818         165.833 
        1.74268          111.22           15.81         164.226 
        1.75493         108.295         15.5458         162.856 
        1.76714         107.811         15.2882         161.487 
        1.77942         105.716         15.0353         159.885 
        1.79173         104.035         14.7874         158.513 
        1.80402         103.035         14.5456         157.106 
         1.8163         100.883         14.3093         155.775 
         1.8286         99.6239         14.0779         154.307 
         1.8409          98.828         13.8519         152.871 
        1.85315         96.6858         13.6315         151.632 
        1.86537          95.916         13.4164         150.375 
        1.87765         94.7112         13.2051         149.091 
        1.88995          93.004         12.9979         147.707 
        1.90221         91.8007         12.7958         146.519 
        1.91445         90.6105         12.5984         145.112 
        1.92674         89.1416         12.4045         143.874 
        1.93902         87.9337         12.2146         142.582 
        1.95124         86.8406         12.0298         141.382 
         1.9635          85.403         11.8482         140.135 
        1.97583         84.0873         11.6693         138.968 
        1.98812         82.9955         11.4948         137.906 
        2.00039          82.009         11.3242          136.62 
        2.01264         80.9518         11.1572         135.498 
        2.02492         80.0709         10.9933         134.279 
        2.03717          78.674          10.833         133.199 
        2.04942         77.9776         10.6761          132.12 
        2.06171          76.295         10.5218          130.97 
        2.07397         75.5105         10.3709         129.936 
        2.08629         74.5326         10.2223         128.806 
        2.09857         73.4894          10.077         127.768 
        2.11081         72.2175         9.93507         126.589 
        2.12309         71.2185         9.79556         125.671 
        2.13538         70.2627         9.65853         124.563 
        2.14763         69.3788         9.52458         123.569 
        2.15986         68.3858         9.39349         122.478 
        2.17214         67.5982         9.26433         121.499 
        2.18443         66.6827         9.13748         120.671 
        2.19671         65.6636         9.01316         119.632 
        2.20898         65.0011          8.8913         118.572 
        2.22126         64.0149         8.77156          117.67 
        2.23354         63.2869         8.65407         116.734 
         2.2458         62.0889         8.53893         115.795 
        2.25807         61.4011         8.42579         114.844 
        2.27035         60.5391         8.31461         113.906 
        2.28263          59.732         8.20548         113.026 
         2.2949         58.7996         8.09837         112.138 
        2.30718         57.9362         7.99314         111.256 
        2.31946         57.5184         7.88972         110.302 
        2.33169         56.4822         7.78859         109.467 
        2.34393         56.0432         7.68907         108.676 
        2.35622         54.9661         7.59097         107.789 
        2.36847         54.5628         7.49486         107.053 
        2.38076         53.6313         7.40013         106.079 
        2.39305          53.035         7.30706         105.364 
        2.40534         52.3228         7.21558         104.493 
        2.41762         51.7204         7.12569         103.643 
        2.42989         50.8961         7.03746         102.908 
        2.44216         50.3977         6.95074          102.05 
         2.4544         49.5909         6.86567           101.3 
        2.46667         49.0219         6.78184         100.519 
        2.47897         48.4788          6.6992         99.7124 
        2.49124         47.9752         6.61817         98.9925 
        2.50349         47.4488          6.5386          98.234 
        2.51578         46.7317          6.4601         97.5837 
        2.52805          46.173         6.38302         96.7608 
        2.54029          45.709          6.3074         96.0026 
        2.55257         45.1089         6.23277         95.3459 
        2.56487          44.838         6.15921         94.6619 
        2.57716         44.1303         6.08694         93.9463 
        2.58942         43.5175         6.01599         93.2449 
        2.60167         43.0169         5.94624         92.5648 
        2.61395          42.575          5.8775         91.8812 
        2.62624         41.9706         5.80974         91.1479 
        2.63849         41.5111         5.74327         90.4995 
        2.65073         41.0925         5.67791         89.8412 
        2.66302         40.6171         5.61333         89.1588 
         2.6753         40.2013          5.5498         88.5443 
        2.68756         39.7891         5.48738         87.8735 
        2.69983         39.2653         5.42587         87.2685 
        2.71213         38.8878         5.36518         86.6419 
        2.72441         38.4809         5.30553         86.0054 
        2.73665         38.0115         5.24693         85.4102 
         2.7489         37.6163         5.18925         84.8063 
        2.76118         37.2761         5.13225         84.1875 
        2.77349           36.84         5.07598         83.5928 
        2.78576         36.4946         5.02077         82.9675 
        2.79802         36.1807         4.96641         82.4576 
        2.81031         35.6807         4.91274         81.8522 
        2.82259         35.4937         4.85987         81.2443 
        2.83483         35.0291         4.80799         80.7236 
         2.8471         34.7382         4.75676         80.1374 
         2.8594         34.4119         4.70612         79.5581 
         2.8717         34.2394         4.65623          79.041 
        2.88396         33.8502         4.60726         78.4831 
        2.89619          33.638         4.55908         77.8932 
        2.90847         33.2671          4.5114         77.3344 
        2.92072           33.08         4.46449          76.853 
        2.93299         32.9247         4.41822          76.344 
        2.94526          32.546         4.37256         75.8111 
        2.95753         32.3345         4.32757         75.2762 
        2.96982         32.0325         4.28313         74.7727 
        2.98209         31.8558         4.23941         74.2797 
        2.99436         31.5982         4.19625         73.7401 
        3.00666         31.5466         4.15363         73.2473 
        3.01894         31.2136         4.11168         72.7528 
        3.03119         31.1692         4.07037         72.2843 
        3.04345         31.0166         4.02963         71.8161 
        3.05573         30.7104         3.98936         71.3277 
          3.068         30.6437         3.94968         70.8526 
        3.08026         30.4771         3.91059         70.3751 
        3.09254         30.4107         3.87195         69.9177 
        3.10483         30.3838         3.83382         69.4626 
         3.1171         30.2201         3.79627         68.9984 
        3.12933         30.0782         3.75931          68.537 
        3.14159          29.968         3.72277         68.0715 
