# k  (h/Mpc)    P(k)  (Mpc/h)^3    P_linear(k)  (Mpc/h)^3     P_NL(k)  ShotnoiseSubtracted = false
      0.0156606         12719.9         12665.9         12584.3 
      0.0273761         10941.7         10935.4         10858.6 
      0.0384619         8291.44         8232.49         8171.89 
      0.0498308         6434.51         6472.48         6414.13 
      0.0625568          5430.2         5499.08         5444.89 
      0.0751274         4794.65         4671.13         4592.68 
      0.0867833         3739.75          3760.3         3738.86 
      0.0984825         3112.36         2975.53         3003.56 
       0.111151         2638.93         2484.33         2515.22 
       0.123864         2368.31         2238.76         2264.47 
       0.135742         2144.93         2013.13         2039.44 
        0.14762         1849.01         1721.27         1789.17 
       0.160083         1546.78         1434.74         1515.01 
       0.172465         1378.46         1252.23         1352.99 
       0.184281         1265.29         1154.39         1258.23 
       0.196406         1168.71         1066.06         1153.97 
       0.209011         1078.63         948.507         1041.82 
       0.221538         972.714         828.897          957.79 
       0.233611         910.047         741.641         886.551 
       0.245665         837.969         684.502         815.877 
       0.258103         798.858         637.209          767.63 
       0.270422         723.957         585.517         715.983 
       0.282519         669.785         531.387         668.588 
       0.294636         663.661          484.15          628.01 
       0.306978         593.499         447.919         597.225 
       0.319417         572.842         418.777         561.839 
        0.33169         539.409         390.882         529.085 
       0.343948         514.006         362.173         508.417 
       0.356249         482.108         335.251         486.401 
       0.368458          467.72           312.7         459.687 
        0.38068         449.261         293.844         439.307 
       0.392856         422.136         276.629         421.439 
       0.405069         405.091         259.795         407.454 
       0.417459         387.657         243.498         387.052 
       0.429752         375.633         228.868         372.739 
       0.441978         363.403         216.026         361.477 
       0.454294         341.881         204.366         345.132 
        0.46658         338.192         193.425         335.868 
       0.478753         325.151         183.103         324.167 
       0.490964         313.916         173.407          312.96 
       0.503334         296.213          164.46         304.117 
       0.515665         293.897         156.299         297.235 
       0.527909         284.354         148.766         287.565 
       0.540159         276.683         141.639         279.335 
        0.55248          271.23         134.876         271.167 
       0.564743         265.157         128.615         265.492 
        0.57686          255.36          122.86         257.334 
       0.589077          245.52         117.428         251.757 
       0.601441         242.294         112.262         245.728 
        0.61382         239.349         107.392         240.082 
       0.626067         233.827         102.847         234.493 
       0.638306         223.059         98.5671         229.861 
       0.650632          217.85         94.5122         222.723 
       0.662899         217.141         90.7123         219.206 
       0.675076         209.067         87.1512         214.448 
       0.687267         203.738         83.7768         209.714 
       0.699615         200.055         80.5389         205.653 
       0.711937         195.752          77.478         201.678 
       0.724148         191.472         74.6021          198.68 
       0.736433         187.154          71.858         194.244 
       0.748747         183.243         69.2478         190.351 
       0.761037         180.453         66.7736         186.686 
       0.773197         177.026         64.4459         184.482 
       0.785376         175.025         62.2265         180.505 
       0.797761          171.04         60.0773         178.178 
       0.810096         167.707         58.0381         174.955 
       0.822371         161.854         56.1035         172.031 
       0.834626         160.468         54.2607         169.151 
       0.846916         158.283         52.4962         166.655 
       0.859215          156.84         50.8096         164.024 
       0.871383         153.237         49.2143         161.292 
        0.88363         150.898         47.6784         159.481 
       0.895928         147.755         46.2025          157.18 
       0.908253         143.741         44.7866         154.331 
       0.920535         143.169         43.4351         152.351 
       0.932774         138.635         42.1443         149.914 
        0.94508         137.602         40.8998          148.15 
       0.957324         136.569         39.7118         145.964 
        0.96953         135.368         38.5749         143.646 
       0.981769         131.129         37.4798          142.36 
       0.994071         130.418         36.4222         140.372 
         1.0064         127.216         35.4039         138.271 
        1.01868         125.868         34.4276          136.74 
        1.03092         123.773         33.4926          135.11 
         1.0432         121.551         32.5892         133.352 
        1.05553         119.024         31.7157         131.964 
        1.06777         118.788         30.8807         130.513 
           1.08         116.294         30.0768         128.762 
        1.09227          114.89         29.2989         127.377 
         1.1046         112.885         28.5458         125.799 
         1.1169         111.546         27.8207         124.102 
        1.12915         109.788         27.1244         122.806 
        1.14142         108.097         26.4505          121.25 
        1.15365         106.221         25.8017         119.929 
        1.16585         104.878         25.1764         118.464 
        1.17807         103.218         24.5711         117.519 
        1.19037         102.949         23.9819         116.269 
        1.20276         100.668          23.408         114.868 
        1.21504         99.8321         22.8576         113.552 
        1.22728         97.7106         22.3271         112.347 
        1.23954         97.0074         21.8123         111.167 
        1.25184         94.9482         21.3128         110.047 
        1.26414         93.8418         20.8288         108.937 
        1.27632         92.9995         20.3642         108.282 
         1.2886         91.3443         19.9105         106.682 
        1.30093         89.7938         19.4691          105.52 
        1.31316         89.1363         19.0443         104.629 
        1.32541         88.0629         18.6322         103.692 
        1.33772         86.8362           18.23         102.612 
        1.35005         85.9511         17.8394          101.55 
        1.36225         84.7238         17.4643          100.59 
        1.37447         82.9189         17.0993           99.51 
        1.38676         82.8276         16.7431         98.4211 
        1.39907         81.0623         16.3964         97.6925 
        1.41133           79.78         16.0611          96.923 
        1.42358         78.9136         15.7355         95.7887 
        1.43591         78.3409         15.4168         94.8625 
        1.44818         77.2791         15.1086         93.9883 
        1.46037         76.1369         14.8107         93.1912 
        1.47263         74.8945         14.5192         92.4483 
        1.48494         74.3532         14.2344         91.5133 
        1.49724         73.0511         13.9575         90.5506 
        1.50952         72.2943         13.6886         89.7237 
        1.52178         71.3993         13.4272         89.0076 
        1.53409         70.8228         13.1715         88.2321 
        1.54637         69.0712         12.9231         87.3803 
        1.55858         68.4695         12.6824         86.5601 
        1.57081         67.7543         12.4476          85.883 
        1.58313         66.6944         12.2173          85.153 
        1.59544         65.9398         11.9929         84.3322 
        1.60767         65.2119         11.7756         83.6139 
        1.61994         64.3017          11.563         83.0414 
        1.63225         63.3465         11.3551         82.0872 
        1.64452         62.6507          11.153         81.5007 
        1.65676          61.701         10.9564         80.7416 
          1.669         61.2811         10.7644         80.1026 
        1.68133          60.611         10.5759          79.373 
        1.69363         59.5792         10.3923         78.8061 
        1.70585         59.1543         10.2144         78.0881 
        1.71809         57.8991         10.0402         77.5276 
        1.73038         57.3486         9.86953         76.7876 
        1.74268         56.5874         9.70275         76.1801 
        1.75493         56.0135         9.54058         75.5125 
        1.76714         55.2753         9.38255         74.8666 
        1.77942         54.9561         9.22729          74.274 
        1.79173         53.9734         9.07515         73.5928 
        1.80402         53.4294         8.92676         73.0877 
         1.8163         52.7576         8.78178         72.3925 
         1.8286         51.9586         8.63977         71.9493 
         1.8409         51.2374         8.50102         71.2547 
        1.85315         50.6393         8.36579          70.822 
        1.86537         50.0982         8.23377         70.1937 
        1.87765         49.5326         8.10411         69.5258 
        1.88995          48.909         7.97693         69.0025 
        1.90221         48.5046         7.85293         68.4464 
        1.91445         47.7276         7.73178         67.9695 
        1.92674         47.2417         7.61276         67.3921 
        1.93902         46.6669         7.49624         66.8223 
        1.95124         46.2849         7.38278         66.4024 
         1.9635         45.4292         7.27138         65.7904 
        1.97583         44.9972         7.16158         65.3615 
        1.98812         44.3063         7.05447          64.787 
        2.00039         44.0101         6.94976         64.2728 
        2.01264         43.2623         6.84727         63.8133 
        2.02492         42.8695         6.74671         63.3345 
        2.03717         42.2531         6.64833         62.7859 
        2.04942         41.7399         6.55205         62.3509 
        2.06171         41.3029         6.45734         61.7989 
        2.07397         40.7003         6.36472         61.3969 
        2.08629          40.268         6.27352         60.8755 
        2.09857         39.9475         6.18434         60.4724 
        2.11081         39.2646         6.09725         59.9571 
        2.12309         38.8971         6.01163         59.5089 
        2.13538         38.4278         5.92754         59.0929 
        2.14763         38.0796         5.84533         58.6427 
        2.15986         37.8417         5.76488         58.1767 
        2.17214         37.0974         5.68561         57.8256 
        2.18443         36.9083         5.60776          57.312 
        2.19671         36.2483         5.53146         56.8722 
        2.20898         35.8259         5.45668         56.4416 
        2.22126         35.5329         5.38319         56.0177 
        2.23354         35.0635         5.31109         55.6644 
         2.2458         34.7832         5.24043         55.2315 
        2.25807         34.2015         5.17099         54.7944 
        2.27035          33.851         5.10276         54.4081 
        2.28263         33.4297         5.03579         54.0175 
         2.2949         33.0459         4.97005         53.6314 
        2.30718         32.7593         4.90547         53.2361 
        2.31946         32.3332           4.842         52.8587 
        2.33169         32.0475         4.77994         52.4502 
        2.34393         31.5682         4.71886         52.0485 
        2.35622         31.2324         4.65866         51.7149 
        2.36847         30.8646         4.59967         51.3024 
        2.38076         30.6639         4.54153           50.98 
        2.39305         30.2775         4.48442         50.6165 
        2.40534         29.9647         4.42828         50.1818 
        2.41762         29.5845         4.37311         49.8423 
        2.42989         29.2507         4.31896          49.514 
        2.44216         28.9792         4.26574         49.1539 
         2.4544         28.6847         4.21353         48.8222 
        2.46667         28.2078         4.16208         48.4459 
        2.47897         28.0276         4.11137         48.1278 
        2.49124         27.7385         4.06164         47.7708 
        2.50349         27.3904         4.01281         47.4716 
        2.51578         27.0376         3.96463         47.1412 
        2.52805         26.8256         3.91733         46.7849 
        2.54029         26.6522         3.87091          46.469 
        2.55257         26.3068         3.82512         46.1495 
        2.56487         26.0897         3.77997         45.8271 
        2.57716         25.8009         3.73562         45.5125 
        2.58942         25.4877         3.69208         45.2117 
        2.60167         25.2025         3.64927         44.8654 
        2.61395         24.9825         3.60708         44.5673 
        2.62624         24.7297          3.5655         44.2763 
        2.63849          24.545          3.5247         43.9669 
        2.65073         24.2716         3.48459         43.6451 
        2.66302         23.9481         3.44496         43.3755 
         2.6753          23.763         3.40597         43.0782 
        2.68756         23.5313         3.36766         42.7965 
        2.69983         23.3645         3.32991         42.4924 
        2.71213         23.1075         3.29267         42.2153 
        2.72441          22.954         3.25606         41.9086 
        2.73665         22.6888          3.2201         41.6313 
         2.7489         22.5077         3.18469         41.3583 
        2.76118         22.3326         3.14972         41.0529 
        2.77349         22.1751         3.11518         40.8063 
        2.78576         22.0011          3.0813         40.5338 
        2.79802         21.6872         3.04794         40.2598 
        2.81031         21.5862           3.015          40.012 
        2.82259         21.4461         2.98255         39.7334 
        2.83483         21.2124         2.95071          39.459 
         2.8471         21.1474         2.91927         39.1971 
         2.8594         20.9112         2.88819         38.9534 
         2.8717         20.7123         2.85758         38.6876 
        2.88396         20.5747         2.82752         38.4225 
        2.89619         20.5075         2.79795         38.1787 
        2.90847         20.3374         2.76869         37.9237 
        2.92072         20.1626          2.7399         37.6971 
        2.93299         20.1067         2.71151         37.4481 
        2.94526         19.9768         2.68349         37.2026 
        2.95753         19.8269         2.65587         36.9671 
        2.96982         19.7919          2.6286         36.7292 
        2.98209         19.6068         2.60177         36.4969 
        2.99436         19.5843         2.57528         36.2638 
        3.00666         19.4251         2.54913         36.0248 
        3.01894         19.3791         2.52338         35.7817 
        3.03119         19.2222         2.49803         35.5481 
        3.04345         19.1835         2.47303         35.3316 
        3.05573         19.1075         2.44831         35.1122 
          3.068         19.0796         2.42396          34.874 
        3.08026         19.0646         2.39997         34.6548 
        3.09254         18.9529         2.37626         34.4466 
        3.10483         18.9206         2.35286          34.234 
         3.1171          18.881         2.32981         34.0173 
        3.12933         18.8415         2.30713         33.8011 
        3.14159         18.8152         2.28471         33.5839 
