# k  (h/Mpc)    P(k)  (Mpc/h)^3    P_linear(k)  (Mpc/h)^3     P_NL(k)  ShotnoiseSubtracted = false
      0.0156606         21489.5         21568.4         21398.7 
      0.0273761         18389.6         18616.4         18414.8 
      0.0384619         13892.8         14012.4           13834 
      0.0498308         10722.9         11015.3           10836 
      0.0625568         9055.23         9357.74          9198.2 
      0.0751274         8061.97         7948.27         7724.17 
      0.0867833         6243.87         6398.12         6328.84 
      0.0984825         5275.45         5062.64         5124.54 
       0.111151         4512.14         4226.78         4303.77 
       0.123864          4041.7         3808.88         3871.18 
       0.135742         3684.85         3424.94         3487.41 
        0.14762         3207.65         2928.36         3094.02 
       0.160083         2724.89         2440.86         2645.14 
       0.172465         2430.24         2130.34         2390.43 
       0.184281         2202.55         1963.87         2224.73 
       0.196406         2077.65         1813.59         2049.21 
       0.209011         1943.74          1613.6         1857.62 
       0.221538         1750.05         1410.11         1734.74 
       0.233611          1677.7         1261.67         1625.96 
       0.245665         1520.66         1164.46         1501.73 
       0.258103         1505.41            1084         1418.08 
       0.270422         1342.74         996.064         1332.43 
       0.282519          1268.3         903.976          1261.7 
       0.294636          1245.5         823.617         1195.33 
       0.306978         1137.83          761.98         1145.67 
       0.319417         1115.32         712.403         1080.27 
        0.33169         1048.38         664.949         1023.22 
       0.343948         1006.31         616.111         991.853 
       0.356249         953.852          570.31         955.241 
       0.368458         916.367         531.948         912.983 
        0.38068         901.541          499.87         878.381 
       0.392856         856.024         470.584         847.881 
       0.405069         812.186         441.948         820.604 
       0.417459         781.156         414.222         791.715 
       0.429752         777.044         389.334         764.153 
       0.441978         749.756         367.489         744.885 
       0.454294         716.664         347.653         714.666 
        0.46658          696.48          329.04         700.088 
       0.478753         683.123         311.481         678.973 
       0.490964         656.605         294.988          658.33 
       0.503334           628.4         279.766         643.768 
       0.515665          626.19         265.884         629.366 
       0.527909         600.295          253.07         616.126 
       0.540159         585.528         240.946         600.576 
        0.55248         573.841         229.442         585.059 
       0.564743         569.148         218.791         575.177 
        0.57686         549.946         209.001          560.05 
       0.589077         539.546         199.759          547.75 
       0.601441         527.582         190.972          537.11 
        0.61382         513.056         182.686         527.775 
       0.626067         507.436         174.955         517.932 
       0.638306         488.816         167.674         507.502 
       0.650632         484.208         160.776         495.385 
       0.662899         480.132         154.312         489.456 
       0.675076         464.217         148.255         482.696 
       0.687267         451.111         142.514         471.276 
       0.699615         449.126         137.006         463.865 
       0.711937         440.257         131.799           455.2 
       0.724148         425.803         126.907         449.085 
       0.736433         415.797         122.239         441.105 
       0.748747         410.524         117.799         433.325 
       0.761037         403.108          113.59          428.05 
       0.773197         397.251          109.63         421.106 
       0.785376         391.883         105.855         415.024 
       0.797761         380.279         102.199         408.773 
       0.810096          376.55         98.7296         403.638 
       0.822371         365.998         95.4386          397.08 
       0.834626         362.699         92.3037         392.399 
       0.846916         356.643         89.3022         386.273 
       0.859215         353.153         86.4331          380.67 
       0.871383         344.953         83.7193         375.646 
        0.88363         341.466         81.1064         371.843 
       0.895928         336.159         78.5957          366.04 
       0.908253         327.762         76.1871         360.082 
       0.920535         322.044         73.8881         356.093 
       0.932774         316.709         71.6923         350.761 
        0.94508         311.947         69.5752         347.214 
       0.957324         309.252         67.5543         342.575 
        0.96953          305.14         65.6203         338.421 
       0.981769         297.533         63.7574         334.698 
       0.994071          296.41         61.9584         330.609 
         1.0064         290.598          60.226         325.803 
        1.01868          287.34         58.5652         321.647 
        1.03092         278.706         56.9748         318.823 
         1.0432         275.938         55.4379         314.968 
        1.05553         272.837          53.952         310.655 
        1.06777          269.64         52.5316         307.207 
           1.08         263.389          51.164         303.793 
        1.09227          262.33         49.8408          300.14 
         1.1046         257.365         48.5597          297.27 
         1.1169         251.589         47.3261         293.307 
        1.12915         248.264         46.1416         290.423 
        1.14142         243.357         44.9953         286.941 
        1.15365         240.575         43.8915         283.923 
        1.16585          236.28         42.8278         280.697 
        1.17807          233.95         41.7983         277.796 
        1.19037         230.259         40.7959          275.42 
        1.20276         227.171         39.8197         271.818 
        1.21504         222.352         38.8832         268.789 
        1.22728         219.051         37.9809         265.713 
        1.23954         217.843         37.1052          263.25 
        1.25184         212.929         36.2555         260.441 
        1.26414         208.636         35.4321         257.955 
        1.27632         207.222         34.6417         255.653 
         1.2886         205.553           33.87         252.696 
        1.30093         200.484         33.1191         249.555 
        1.31316         196.295         32.3965         247.052 
        1.32541         195.214         31.6954         244.569 
        1.33772         192.074         31.0112         242.279 
        1.35005         189.649         30.3469         239.549 
        1.36225         185.997         29.7088         237.311 
        1.37447         183.175         29.0878         234.408 
        1.38676         181.336         28.4819         232.733 
        1.39907         178.665         27.8922          229.94 
        1.41133         175.295         27.3218         227.583 
        1.42358         173.216         26.7679          225.44 
        1.43591         171.033         26.2256         223.359 
        1.44818         167.757         25.7014         221.066 
        1.46037         166.268         25.1946         218.699 
        1.47263         163.062         24.6987         216.725 
        1.48494         161.455         24.2143         214.089 
        1.49724         158.854         23.7433         212.693 
        1.50952         155.913         23.2858          210.33 
        1.52178          154.58         22.8411         208.126 
        1.53409         151.563         22.4062         206.301 
        1.54637         149.391         21.9836         204.598 
        1.55858         147.623         21.5742         202.389 
        1.57081         145.063         21.1748         200.506 
        1.58313         143.143         20.7829         198.463 
        1.59544         140.506         20.4013         196.688 
        1.60767         139.274         20.0316         194.935 
        1.61994         136.845         19.6699         193.053 
        1.63225          134.78         19.3164         191.062 
        1.64452         132.564         18.9725         189.362 
        1.65676         130.806         18.6381         187.728 
          1.669         129.401         18.3115         185.936 
        1.68133         126.841         17.9907         184.239 
        1.69363         124.659         17.6785         182.662 
        1.70585         122.684         17.3758         181.004 
        1.71809         121.116         17.0795         179.049 
        1.73038         119.789         16.7892         177.588 
        1.74268         118.633         16.5054         175.854 
        1.75493         115.635         16.2296         174.413 
        1.76714         115.173         15.9608         172.916 
        1.77942         112.802         15.6966          171.25 
        1.79173         111.009         15.4378         169.708 
        1.80402         109.758         15.1854         168.197 
         1.8163         107.609         14.9388         166.826 
         1.8286         106.261         14.6972          165.21 
         1.8409         105.211         14.4612         163.675 
        1.85315         102.941         14.2311         162.338 
        1.86537         102.115         14.0065         160.985 
        1.87765         100.802          13.786         159.609 
        1.88995         98.9295         13.5696         158.097 
        1.90221         97.7419         13.3587         156.853 
        1.91445         96.3518         13.1526         155.337 
        1.92674         94.8373         12.9501          153.99 
        1.93902         93.6048         12.7519         152.604 
        1.95124         92.3564         12.5589         151.317 
         1.9635         90.8381         12.3694         149.995 
        1.97583          89.443         12.1826         148.703 
        1.98812         88.2007         12.0004         147.611 
        2.00039         87.1936         11.8223         146.207 
        2.01264         86.0877          11.648         145.006 
        2.02492         85.0529         11.4769         143.685 
        2.03717         83.6359         11.3095          142.55 
        2.04942         82.7054         11.1458         141.356 
        2.06171         81.1002         10.9846         140.115 
        2.07397         80.2314         10.8271          139.03 
        2.08629         79.0804          10.672         137.818 
        2.09857         78.0608         10.5202         136.709 
        2.11081         76.7483         10.3721         135.448 
        2.12309         75.7476         10.2264         134.438 
        2.13538         74.6006         10.0834         133.254 
        2.14763         73.6293         9.94356         132.183 
        2.15986         72.6958         9.80669         131.008 
        2.17214         71.7514         9.67185          129.98 
        2.18443         70.7951         9.53942         129.076 
        2.19671         69.8491         9.40963         127.957 
        2.20898         69.0418         9.28241         126.812 
        2.22126         67.9867          9.1574          125.87 
        2.23354         67.1959         9.03475         124.861 
         2.2458         65.8913         8.91455         123.832 
        2.25807         65.2082         8.79643         122.829 
        2.27035         64.2629         8.68035         121.827 
        2.28263          63.453         8.56643         120.896 
         2.2949         62.3116          8.4546         119.942 
        2.30718         61.4729         8.34474         118.975 
        2.31946         60.9612         8.23678         117.955 
        2.33169         59.9383          8.1312         117.067 
        2.34393         59.4895          8.0273         116.236 
        2.35622         58.3535         7.92489          115.26 
        2.36847          57.875         7.82455         114.472 
        2.38076         56.8497         7.72565         113.443 
        2.39305           56.27         7.62849         112.673 
        2.40534         55.4629         7.53299         111.736 
        2.41762         54.8198         7.43914         110.835 
        2.42989         53.9725         7.34703         110.041 
        2.44216         53.4614         7.25649         109.119 
         2.4544         52.5978         7.16768         108.325 
        2.46667         51.9359         7.08016         107.497 
        2.47897         51.3915         6.99389         106.618 
        2.49124         50.8716         6.90929         105.835 
        2.50349         50.1335         6.82622          105.04 
        2.51578          49.598         6.74427         104.336 
        2.52805         48.9274          6.6638         103.457 
        2.54029         48.4355         6.58485         102.659 
        2.55257         47.7823         6.50694         101.955 
        2.56487          47.525         6.43015         101.205 
        2.57716         46.8712          6.3547         100.444 
        2.58942         46.1657         6.28063         99.7017 
        2.60167         45.6157         6.20781         98.9748 
        2.61395         45.2668         6.13604         98.2331 
        2.62624         44.5045          6.0653         97.4531 
        2.63849         44.0476         5.99591         96.7645 
        2.65073         43.5226         5.92767         96.0632 
        2.66302         43.1033         5.86025         95.3387 
         2.6753         42.6241         5.79392         94.6778 
        2.68756         42.2434         5.72876         93.9564 
        2.69983         41.6964         5.66455         93.2989 
        2.71213         41.2659         5.60119         92.6316 
        2.72441         40.8556         5.53891         91.9511 
        2.73665         40.3953         5.47773         91.3205 
         2.7489         39.9492         5.41751         90.6776 
        2.76118         39.5809         5.35801         90.0065 
        2.77349         39.1252         5.29926         89.3777 
        2.78576         38.7678         5.24163         88.7154 
        2.79802         38.4366         5.18488         88.1588 
        2.81031         37.8868         5.12884         87.5122 
        2.82259         37.6133         5.07365         86.8631 
        2.83483         37.1534         5.01948         86.3029 
         2.8471         36.8627           4.966         85.6746 
         2.8594         36.4773         4.91313         85.0617 
         2.8717         36.2459         4.86105         84.5136 
        2.88396         35.9252         4.80992           83.92 
        2.89619         35.6396         4.75962         83.2906 
        2.90847          35.296         4.70985         82.6875 
        2.92072         35.0653         4.66087         82.1753 
        2.93299         34.9294         4.61257         81.6329 
        2.94526         34.5401         4.56491         81.0585 
        2.95753         34.3159         4.51793         80.4873 
        2.96982         33.9732         4.47154         79.9521 
        2.98209         33.8458         4.42589         79.4221 
        2.99436         33.5434         4.38084         78.8494 
        3.00666         33.4639         4.33634         78.3214 
        3.01894         33.1746         4.29255         77.8002 
        3.03119          33.035         4.24942         77.2989 
        3.04345          32.871         4.20688          76.792 
        3.05573         32.6526         4.16484         76.2693 
          3.068         32.5198         4.12342         75.7642 
        3.08026         32.3341         4.08261         75.2557 
        3.09254         32.2518         4.04227          74.765 
        3.10483         32.2683         4.00247         74.2756 
         3.1171         32.0871         3.96326         73.7792 
        3.12933         31.9133         3.92468         73.2894 
        3.14159         31.8605         3.88653         72.7952 
