# k  (h/Mpc)    P(k)  (Mpc/h)^3    P_linear(k)  (Mpc/h)^3     P_NL(k)  ShotnoiseSubtracted = false
      0.0156606         13801.9           13704         13613.4 
      0.0273761           11864         11831.1         11742.8 
      0.0384619         8987.16         8906.62         8835.36 
      0.0498308         6968.92         7002.35         6933.16 
      0.0625568         5881.55         5949.18          5885.4 
      0.0751274         5199.82         5053.42          4961.6 
      0.0867833         4051.28         4068.02         4042.31 
      0.0984825         3378.56         3219.01         3250.51 
       0.111151         2867.93         2687.61         2722.79 
       0.123864          2573.2         2421.94         2451.11 
       0.135742         2332.34         2177.83         2207.63 
        0.14762         2013.46          1862.1         1939.62 
       0.160083         1687.04         1552.12          1644.3 
       0.172465         1503.94         1354.67         1470.67 
       0.184281         1378.18         1248.83         1367.91 
       0.196406         1276.03         1153.27         1254.98 
       0.209011         1179.89          1026.1         1133.59 
       0.221538         1064.28         896.707         1044.64 
       0.233611         999.244         802.313         968.695 
       0.245665         917.558         740.499         891.714 
       0.258103         880.039         689.336         839.388 
       0.270422         794.768         633.416         783.699 
       0.282519         737.436         574.857          733.08 
       0.294636         730.632         523.756         689.477 
       0.306978         655.087          484.56          656.45 
       0.319417         633.316         453.034         617.714 
        0.33169         596.641         422.858         582.034 
       0.343948         568.627         391.801         560.229 
       0.356249         533.976         362.676         536.496 
       0.368458         518.008          338.28         507.658 
        0.38068         498.937         317.882         485.578 
       0.392856          469.54         299.258         466.129 
       0.405069         450.146         281.047         451.133 
       0.417459         431.157         263.417         429.198 
       0.429752         418.799          247.59         413.491 
       0.441978         405.134         233.698         401.268 
       0.454294         382.087         221.083         383.419 
        0.46658         376.621         209.247         373.527 
       0.478753         363.414         198.081         360.703 
       0.490964         350.542         187.593          348.47 
       0.503334         330.948         177.913         338.882 
       0.515665          329.08         169.085         331.356 
       0.527909         317.906         160.936         321.138 
       0.540159          309.62         153.225         311.991 
        0.55248          303.56          145.91         303.105 
       0.564743         297.636         139.136         297.009 
        0.57686         286.347         132.911          288.06 
       0.589077         275.727         127.034         281.795 
       0.601441         272.475         121.446         275.165 
        0.61382          268.62         116.177         269.224 
       0.626067         263.119          111.26         263.095 
       0.638306         251.099          106.63         257.999 
       0.650632         245.875         102.243         250.184 
       0.662899         244.589         98.1328         246.547 
       0.675076         235.324         94.2803         241.387 
       0.687267         229.385         90.6299         235.986 
       0.699615         225.502         87.1271         231.582 
       0.711937         221.155         83.8158         227.268 
       0.724148           215.6         80.7047         223.858 
       0.736433           210.9         77.7361         219.013 
       0.748747         206.802         74.9124         214.704 
       0.761037         203.485         72.2358          210.81 
       0.773197         200.035         69.7177         208.225 
       0.785376         197.649         67.3168         203.967 
       0.797761          192.97         64.9917          201.25 
       0.810096         189.776         62.7857         197.863 
       0.822371          182.78         60.6929         194.567 
       0.834626         181.763         58.6993         191.403 
       0.846916         178.755         56.7905         188.613 
       0.859215         177.759          54.966         185.744 
       0.871383         173.289         53.2401         182.698 
        0.88363         171.156         51.5785         180.723 
       0.895928         167.383         49.9819         178.049 
       0.908253         162.773         48.4502         174.908 
       0.920535         162.212         46.9881         172.615 
       0.932774         156.832         45.5918          170.01 
        0.94508           155.6         44.2454         168.123 
       0.957324         154.909         42.9603         165.585 
        0.96953         153.112         41.7304         163.022 
       0.981769         148.354         40.5457         161.572 
       0.994071         147.632         39.4016          159.37 
         1.0064         144.029         38.2999         156.952 
        1.01868         142.301         37.2438         155.238 
        1.03092         139.997         36.2324         153.451 
         1.0432         137.349          35.255         151.486 
        1.05553          134.81         34.3101         149.823 
        1.06777         134.576         33.4068         148.243 
           1.08         131.502         32.5371         146.255 
        1.09227         130.054         31.6956         144.775 
         1.1046         127.834         30.8809         143.016 
         1.1169         126.232         30.0964         141.088 
        1.12915          124.18         29.3432         139.643 
        1.14142         122.273         28.6142         137.849 
        1.15365         120.448         27.9123          136.38 
        1.16585         118.788         27.2358         134.662 
        1.17807         116.968         26.5811         133.666 
        1.19037         116.523         25.9436          132.24 
        1.20276         114.012         25.3228         130.635 
        1.21504         112.827         24.7273         129.186 
        1.22728         110.517         24.1535         127.731 
        1.23954         109.777         23.5966         126.513 
        1.25184         107.427         23.0562         125.166 
        1.26414         106.118         22.5326          123.89 
        1.27632         105.361           22.03         123.226 
         1.2886         103.395         21.5392         121.394 
        1.30093         101.228         21.0617         120.092 
        1.31316         100.783         20.6022         118.967 
        1.32541         99.3581         20.1563         117.989 
        1.33772         98.1645         19.7212         116.743 
        1.35005         97.0092         19.2987         115.491 
        1.36225         95.7337         18.8929         114.437 
        1.37447         93.7636         18.4981         113.201 
        1.38676         93.4524         18.1127         111.972 
        1.39907         91.3465         17.7377         111.089 
        1.41133         90.0499          17.375           110.2 
        1.42358         88.9716         17.0227         109.006 
        1.43591         88.3727         16.6779         107.866 
        1.44818         87.2832         16.3445         106.944 
        1.46037          85.784         16.0222         105.952 
        1.47263          84.415         15.7069         105.128 
        1.48494         83.8516         15.3988         104.044 
        1.49724         82.3984         15.0993          102.94 
        1.50952         81.2686         14.8084         102.034 
        1.52178         80.3935         14.5255         101.173 
        1.53409         79.6524          14.249         100.285 
        1.54637         77.7947         13.9802         99.3425 
        1.55858         77.0537         13.7199         98.4112 
        1.57081         76.0471         13.4658         97.5923 
        1.58313         75.0038         13.2167          96.736 
        1.59544         74.2039         12.9739         95.8369 
        1.60767         73.1875         12.7389         94.9808 
        1.61994         72.2316         12.5088         94.3609 
        1.63225         71.1266          12.284         93.2393 
        1.64452         70.2644         12.0653         92.5474 
        1.65676         69.2188         11.8527         91.7195 
          1.669         68.7322          11.645         90.9797 
        1.68133          67.926          11.441         90.1382 
        1.69363         66.9189         11.2424         89.4699 
        1.70585         66.2438         11.0499         88.6321 
        1.71809         64.9542         10.8615         88.0032 
        1.73038         64.2457         10.6769         87.1345 
        1.74268         63.3187         10.4964         86.4523 
        1.75493         62.7734          10.321         85.6767 
        1.76714         61.7887         10.1501         84.9528 
        1.77942         61.4296         9.98209         84.2451 
        1.79173         60.3504         9.81751         83.4978 
        1.80402         59.6864         9.65698         82.8964 
         1.8163         58.9575         9.50014         82.0857 
         1.8286         58.0742         9.34651         81.5544 
         1.8409         57.1916         9.19641            80.8 
        1.85315         56.4545         9.05012         80.2685 
        1.86537         55.8959          8.9073         79.5412 
        1.87765         55.1953         8.76704         78.7786 
        1.88995         54.4995         8.62946         78.2105 
        1.90221         53.9949         8.49532         77.5634 
        1.91445         53.0558         8.36424         76.9877 
        1.92674         52.5597         8.23549         76.3513 
        1.93902         51.8982         8.10944         75.6848 
        1.95124         51.4935          7.9867         75.1982 
         1.9635         50.5109         7.86619          74.477 
        1.97583         50.0179         7.74741         73.9896 
        1.98812          49.337         7.63153         73.3295 
        2.00039           48.79         7.51826         72.7502 
        2.01264         48.0683         7.40739         72.1901 
        2.02492         47.5175          7.2986         71.6488 
        2.03717         46.8811         7.19217         71.0155 
        2.04942         46.2739         7.08801          70.534 
        2.06171         45.7075         6.98556         69.9061 
        2.07397         45.0844         6.88536         69.4342 
        2.08629         44.5884         6.78671         68.8263 
        2.09857         44.2118         6.69022         68.3533 
        2.11081         43.2969         6.59601         67.7584 
        2.12309         42.9711         6.50339         67.2641 
        2.13538         42.4483         6.41242          66.757 
        2.14763         42.0319         6.32349         66.2502 
        2.15986         41.6088         6.23645         65.7231 
        2.17214         40.8935          6.1507         65.2956 
        2.18443         40.6872         6.06648         64.7392 
        2.19671         39.9247         5.98394         64.2162 
        2.20898          39.557         5.90304         63.7286 
        2.22126         39.1054         5.82355          63.236 
        2.23354         38.5755         5.74554         62.8188 
         2.2458         38.2349          5.6691         62.3383 
        2.25807         37.7596         5.59399         61.8295 
        2.27035         37.2812         5.52017         61.3784 
        2.28263         36.7989         5.44772         60.9197 
         2.2949           36.29         5.37661         60.4813 
        2.30718         35.9831         5.30674         60.0408 
        2.31946         35.4708         5.23809         59.6123 
        2.33169         35.1219         5.17094         59.1446 
        2.34393         34.5829         5.10487         58.6941 
        2.35622          34.279         5.03974         58.2797 
        2.36847         33.8387         4.97593         57.8355 
        2.38076         33.6146         4.91304         57.4402 
        2.39305         33.1804         4.85125         57.0232 
        2.40534         32.8134         4.79052         56.5384 
        2.41762          32.423         4.73083         56.1347 
        2.42989         31.9619         4.67226         55.7722 
        2.44216         31.7302         4.61468         55.3498 
         2.4544         31.4288         4.55821         54.9663 
        2.46667          30.873         4.50255         54.5301 
        2.47897         30.6499         4.44768         54.1617 
        2.49124         30.2702         4.39389         53.7634 
        2.50349         29.9121         4.34106         53.4062 
        2.51578         29.5738         4.28894         53.0324 
        2.52805         29.3859         4.23777         52.6269 
        2.54029         29.1086         4.18756         52.2637 
        2.55257         28.7207         4.13801         51.9028 
        2.56487         28.4301         4.08918         51.5356 
        2.57716         28.1595          4.0412         51.1937 
        2.58942         27.7765         3.99409         50.8241 
        2.60167         27.4577         3.94778         50.4299 
        2.61395          27.222         3.90214         50.0971 
        2.62624         26.9757         3.85716          49.753 
        2.63849         26.7449         3.81303         49.4032 
        2.65073         26.4304         3.76963         49.0372 
        2.66302         26.1227         3.72676         48.7247 
         2.6753         25.8701         3.68458         48.3839 
        2.68756         25.5793         3.64314         48.0474 
        2.69983         25.3866         3.60231         47.7171 
        2.71213         25.0314         3.56201         47.4021 
        2.72441         24.9382         3.52241         47.0523 
        2.73665          24.668          3.4835         46.7343 
         2.7489         24.4926         3.44521         46.4226 
        2.76118         24.2422         3.40737         46.0833 
        2.77349         24.0371         3.37001         45.7964 
        2.78576         23.8569         3.33335         45.4763 
        2.79802         23.5546         3.29726         45.1665 
        2.81031         23.3838         3.26163         44.8781 
        2.82259         23.2004         3.22653         44.5592 
        2.83483         22.9552         3.19208         44.2542 
         2.8471         22.8467         3.15807         43.9627 
         2.8594         22.6002         3.12445         43.6842 
         2.8717         22.3736         3.09133         43.3816 
        2.88396         22.2942         3.05882          43.078 
        2.89619         22.1418         3.02683          42.797 
        2.90847         21.9651         2.99518         42.5091 
        2.92072         21.8194         2.96403         42.2446 
        2.93299         21.7269         2.93331         41.9542 
        2.94526         21.5689           2.903          41.684 
        2.95753         21.3841         2.87313         41.4238 
        2.96982         21.3706         2.84362         41.1475 
        2.98209         21.1603          2.8146         40.8797 
        2.99436         21.0543         2.78595         40.6149 
        3.00666         20.9353         2.75765         40.3476 
        3.01894         20.8733          2.7298         40.0712 
        3.03119         20.6962         2.70237         39.8053 
        3.04345         20.6033         2.67532         39.5572 
        3.05573         20.5314         2.64859         39.3087 
          3.068         20.5004         2.62224         39.0467 
        3.08026         20.4797         2.59629         38.7928 
        3.09254           20.35         2.57064         38.5541 
        3.10483           20.35         2.54533         38.3133 
         3.1171         20.2601         2.52039         38.0662 
        3.12933         20.2535         2.49586         37.8229 
        3.14159         20.2342          2.4716         37.5775 
