# k  (h/Mpc)    Pcb(k)  (Mpc/h)^3    Pcb_linear(k) (Mpc/h)^3    Pcb_NL(k) (Mpc/h)^3   ShotnoiseSubtracted = false
      0.0156606         778.134         778.679         775.087 
      0.0273761         678.208         674.078         672.708 
      0.0384619          515.14         508.111         508.073 
      0.0498308         405.253         399.776         400.032 
      0.0625568         342.038          339.82         339.662 
      0.0751274         293.198         288.744         288.265 
      0.0867833         234.439         232.486         232.446 
      0.0984825         188.102         183.991         184.336 
       0.111151         157.174         153.634         153.943 
       0.123864         141.099         138.459         138.592 
       0.135742         126.593         124.511           124.6 
        0.14762         107.649         106.464         106.818 
       0.160083         89.6014         88.7453         89.2005 
       0.172465         78.4675         77.4583          77.988 
       0.184281         72.6008         71.4078         71.9426 
       0.196406         66.4364         65.9453         66.3253 
       0.209011         59.4552         58.6748         59.1289 
       0.221538         52.3688         51.2764         51.9412 
       0.233611         46.9092         45.8792         46.6169 
       0.245665         43.7462         42.3449         42.9903 
       0.258103         39.7203         39.4196         40.0542 
       0.270422         37.0564         36.2221          36.829 
       0.282519         33.6159         32.8736         33.5403 
       0.294636         31.2728         29.9516         30.6564 
       0.306978         28.0972         27.7103         28.4343 
       0.319417         26.6043         25.9075         26.6086 
        0.33169         24.7539         24.1819         24.8561 
       0.343948         23.2075          22.406         23.0769 
       0.356249          21.252         20.7405         21.5101 
       0.368458         20.0469         19.3455         20.0267 
        0.38068         18.7028         18.1788         18.8567 
       0.392856         17.5873         17.1139         17.7981 
       0.405069         16.6023         16.0726         16.7191 
       0.417459         15.3302         15.0643         15.7437 
       0.429752         14.5778         14.1592         14.8281 
       0.441978         13.8383         13.3648         14.0725 
       0.454294          12.948         12.6434         13.3117 
        0.46658         12.5271         11.9665         12.6199 
       0.478753         11.7377          11.328         11.9775 
       0.490964         11.2465         10.7282         11.4148 
       0.503334         10.7125         10.1746         10.8183 
       0.515665         10.0782         9.66976         10.3472 
       0.527909         9.66443         9.20373         9.82803 
       0.540159         9.15668         8.76282         9.37737 
        0.55248         8.62352         8.34446         8.93385 
       0.564743         8.41794         7.95707         8.58661 
        0.57686         8.04639         7.60104         8.20705 
       0.589077         7.57055         7.26495         7.89029 
       0.601441         7.26544         6.94537         7.55699 
        0.61382         6.96556         6.64406         7.23303 
       0.626067         6.65574         6.36288         6.94684 
       0.638306         6.41129          6.0981         6.66948 
       0.650632         6.21682         5.84724         6.42655 
       0.662899         5.93165         5.61215         6.17199 
       0.675076         5.63818         5.39184          5.9486 
       0.687267         5.44225         5.18308         5.71455 
       0.699615         5.29189         4.98275         5.50916 
       0.711937         5.03259         4.79339         5.32955 
       0.724148         4.92373         4.61546         5.14103 
       0.736433         4.67746         4.44569         4.95134 
       0.748747         4.52449         4.28421         4.80455 
       0.761037         4.38362         4.13114          4.6369 
       0.773197          4.1969         3.98713         4.49804 
       0.785376         4.04994         3.84982          4.3473 
       0.797761          3.9175         3.71686         4.19821 
       0.810096         3.81808          3.5907          4.0861 
       0.822371          3.7142         3.47101         3.94581 
       0.834626         3.58414           3.357         3.82352 
       0.846916         3.45322         3.24783         3.72248 
       0.859215         3.31564         3.14349         3.61676 
       0.871383         3.21687         3.04479         3.50798 
        0.88363         3.12863         2.94977         3.40787 
       0.895928         3.05246         2.85846         3.30697 
       0.908253         2.95635         2.77086         3.21632 
       0.920535         2.86513         2.68724         3.12193 
       0.932774         2.78086         2.60739         3.02948 
        0.94508         2.70165         2.53039         2.95313 
       0.957324         2.63093         2.45689         2.88336 
        0.96953         2.54152         2.38655         2.80547 
       0.981769         2.46119          2.3188         2.72379 
       0.994071         2.40988         2.25338          2.6652 
         1.0064         2.33445         2.19037         2.59372 
        1.01868         2.25752         2.12997         2.52838 
        1.03092         2.22649         2.07213          2.4604 
         1.0432         2.15075         2.01623          2.4028 
        1.05553         2.09635         1.96219         2.34902 
        1.06777         2.03307         1.91053          2.2944 
           1.08         1.99344         1.86079         2.23652 
        1.09227         1.92695         1.81267         2.18228 
         1.1046         1.88303         1.76608         2.13549 
         1.1169         1.83178         1.72121         2.08557 
        1.12915         1.79065         1.67813         2.03914 
        1.14142          1.7477         1.63645         1.99185 
        1.15365          1.7073          1.5963         1.95049 
        1.16585         1.66665         1.55762         1.90601 
        1.17807         1.63946         1.52017         1.86644 
        1.19037         1.57498         1.48372         1.82346 
        1.20276         1.54294         1.44821         1.78132 
        1.21504         1.51242         1.41416         1.75199 
        1.22728         1.48124         1.38134         1.70847 
        1.23954         1.44673         1.34949         1.68074 
        1.25184         1.41796         1.31859         1.64062 
        1.26414          1.3843         1.28864         1.60619 
        1.27632         1.34306          1.2599         1.57712 
         1.2886         1.31987         1.23183         1.54212 
        1.30093         1.28121         1.20452         1.51713 
        1.31316         1.24539         1.17824         1.48525 
        1.32541         1.22861         1.15274         1.45871 
        1.33772         1.20755         1.12786         1.43055 
        1.35005         1.18432          1.1037         1.40431 
        1.36225         1.15616         1.08049         1.37563 
        1.37447         1.13265         1.05791         1.35326 
        1.38676          1.1078         1.03587           1.325 
        1.39907         1.08376         1.01442         1.30347 
        1.41133         1.05684        0.993675         1.27949 
        1.42358         1.04705        0.973531         1.25306 
        1.43591         1.02234        0.953809         1.23722 
        1.44818         1.00176        0.934743         1.21468 
        1.46037        0.977549        0.916312         1.19036 
        1.47263        0.957416        0.898277         1.17195 
        1.48494        0.942244         0.88066         1.15223 
        1.49724        0.922918         0.86353         1.13269 
        1.50952         0.90583        0.846891         1.11031 
        1.52178        0.884748        0.830716         1.09369 
        1.53409        0.871743          0.8149         1.07497 
        1.54637        0.848932        0.799528         1.05611 
        1.55858         0.83805        0.784641         1.03953 
        1.57081        0.826378        0.770113         1.02157 
        1.58313        0.807872        0.755863         1.00797 
        1.59544        0.793903        0.741981        0.990167 
        1.60767        0.780331        0.728538         0.97476 
        1.61994        0.762994        0.715382        0.960694 
        1.63225         0.75026        0.702524        0.946183 
        1.64452        0.738932        0.690018        0.930077 
        1.65676        0.724553        0.677856        0.916478 
          1.669        0.712775        0.665979        0.901316 
        1.68133        0.698672        0.654311        0.889401 
        1.69363        0.690643        0.642957        0.875418 
        1.70585        0.675853        0.631946        0.862883 
        1.71809        0.665215         0.62117        0.849609 
        1.73038        0.651702        0.610612        0.837443 
        1.74268        0.639075        0.600293        0.824368 
        1.75493        0.634227         0.59026        0.814225 
        1.76714        0.620525        0.580483        0.801551 
        1.77942        0.607974        0.570877        0.790282 
        1.79173        0.600856        0.561465        0.778306 
        1.80402        0.591141        0.552284        0.767772 
         1.8163        0.581317        0.543314        0.755659 
         1.8286        0.567675        0.534528        0.748331 
         1.8409         0.56311        0.525944        0.736566 
        1.85315        0.555026        0.517578        0.726054 
        1.86537        0.542182         0.50941        0.716831 
        1.87765        0.534974        0.501388        0.706525 
        1.88995        0.527594         0.49352         0.69807 
        1.90221        0.518424        0.485848        0.688118 
        1.91445        0.511769        0.478352        0.679465 
        1.92674        0.502305        0.470989         0.67069 
        1.93902         0.49346         0.46378        0.661106 
        1.95124        0.486745        0.456761         0.65255 
         1.9635         0.48116        0.449869        0.643956 
        1.97583        0.472267        0.443076        0.635243 
        1.98812        0.465592        0.436449        0.628852 
        2.00039        0.458913         0.42997        0.619812 
        2.01264        0.452918         0.42363        0.612398 
        2.02492        0.446214        0.417408        0.605065 
        2.03717        0.439054        0.411322        0.597507 
        2.04942        0.432967        0.405365        0.589615 
        2.06171        0.427096        0.399505        0.582435 
        2.07397        0.419555        0.393775        0.575843 
        2.08629        0.415902        0.388133        0.568541 
        2.09857        0.408435        0.382615        0.561933 
        2.11081        0.401851        0.377227        0.554521 
        2.12309        0.396948         0.37193        0.548886 
        2.13538        0.390876        0.366727        0.541865 
        2.14763        0.386796        0.361641        0.535889 
        2.15986        0.381306        0.356664        0.530072 
        2.17214        0.375261         0.35176        0.523322 
        2.18443        0.371282        0.346943        0.517105 
        2.19671        0.366162        0.342223        0.511708 
        2.20898        0.361083        0.337596        0.505468 
        2.22126        0.355565         0.33305        0.500064 
        2.23354        0.351894        0.328589        0.494835 
         2.2458        0.348326        0.324217        0.488129 
        2.25807        0.343199        0.319921        0.483613 
        2.27035         0.33843          0.3157        0.477956 
        2.28263        0.333834        0.311556        0.473022 
         2.2949        0.330179        0.307489        0.467504 
        2.30718        0.325942        0.303494        0.462684 
        2.31946        0.322845        0.299567         0.45785 
        2.33169        0.317151        0.295727         0.45259 
        2.34393        0.313829        0.291948         0.44817 
        2.35622        0.310075        0.288224        0.442831 
        2.36847        0.307144        0.284575        0.438345 
        2.38076        0.302905        0.280978        0.433807 
        2.39305        0.298864        0.277444        0.429405 
        2.40534        0.295544        0.273971        0.425057 
        2.41762        0.292873        0.270557        0.420382 
        2.42989         0.28841        0.267207        0.415887 
        2.44216        0.285941        0.263914         0.41197 
         2.4544        0.282982        0.260685        0.407881 
        2.46667        0.279893        0.257502        0.403367 
        2.47897        0.276263        0.254364        0.399493 
        2.49124        0.273195        0.251287         0.39541 
        2.50349        0.269434        0.248266        0.391347 
        2.51578        0.267049        0.245285        0.387477 
        2.52805        0.265272        0.242359        0.383785 
        2.54029        0.262244        0.239487         0.38009 
        2.55257        0.258563        0.236654        0.376584 
        2.56487        0.256596        0.233861        0.372754 
        2.57716        0.253923        0.231117        0.369116 
        2.58942        0.251784        0.228423        0.365531 
        2.60167        0.248572        0.225775         0.36186 
        2.61395        0.246078        0.223164        0.358689 
        2.62624         0.24349        0.220592        0.355433 
        2.63849         0.24213        0.218068        0.351971 
        2.65073        0.238967        0.215586        0.348556 
        2.66302        0.237302        0.213134        0.345276 
         2.6753        0.234795        0.210722        0.342083 
        2.68756        0.233279        0.208352         0.33901 
        2.69983        0.230424        0.206017        0.335585 
        2.71213        0.227977        0.203712        0.332693 
        2.72441        0.226696        0.201447        0.329882 
        2.73665        0.224823        0.199222        0.326855 
         2.7489        0.223386        0.197032        0.323837 
        2.76118         0.22186        0.194868         0.32096 
        2.77349        0.219016        0.192731        0.318209 
        2.78576        0.218028        0.190635        0.315339 
        2.79802        0.216257        0.188571        0.312205 
        2.81031        0.214652        0.186533        0.309808 
        2.82259        0.213134        0.184526        0.306801 
        2.83483        0.211198        0.182556        0.304071 
         2.8471         0.20991        0.180611        0.301814 
         2.8594        0.208595        0.178688        0.299259 
         2.8717        0.207669        0.176794        0.296532 
        2.88396        0.206527        0.174934        0.294065 
        2.89619        0.204836        0.173105        0.291675 
        2.90847        0.203867        0.171295        0.289235 
        2.92072        0.201995        0.169513        0.286569 
        2.93299        0.201178        0.167757        0.284084 
        2.94526        0.200137        0.166023        0.281834 
        2.95753        0.199493        0.164315         0.27958 
        2.96982        0.198186        0.162627        0.277124 
        2.98209         0.19754        0.160967        0.274688 
        2.99436        0.196123        0.159329        0.272489 
        3.00666        0.195992         0.15771        0.270322 
        3.01894        0.195139        0.156118         0.26821 
        3.03119        0.194496        0.154549        0.265957 
        3.04345        0.193489        0.153002        0.263864 
        3.05573        0.193329        0.151473        0.261887 
          3.068        0.192544        0.149967        0.259612 
        3.08026        0.191884        0.148482        0.257473 
        3.09254        0.192311        0.147015        0.255508 
        3.10483        0.191666        0.145568        0.253568 
         3.1171        0.191123        0.144142        0.251493 
        3.12933        0.191106        0.142738        0.249409 
        3.14159        0.190498        0.141351        0.247615 
