# k  (h/Mpc)    Pcb(k)  (Mpc/h)^3    Pcb_linear(k) (Mpc/h)^3    Pcb_NL(k) (Mpc/h)^3   ShotnoiseSubtracted = false
      0.0156606         5880.25         5889.25         5857.47 
      0.0273761         5092.35         5094.57          5073.9 
      0.0384619         3868.79          3839.1         3827.11 
      0.0498308         3021.29         3020.11         3010.18 
      0.0625568         2549.34         2566.94         2556.28 
      0.0751274         2225.98            2181         2164.19 
      0.0867833         1752.98            1756         1752.69 
      0.0984825         1435.86         1389.68         1398.35 
       0.111151         1207.76         1160.38         1169.16 
       0.123864         1085.04         1045.75         1053.06 
       0.135742         977.612         940.394         947.895 
        0.14762         833.982         804.089          821.96 
       0.160083         692.672         670.258         690.602 
       0.172465         614.137          585.01         609.918 
       0.184281         568.567         539.311         565.669 
       0.196406         519.122         498.054         518.998 
       0.209011         472.137         443.142         466.293 
       0.221538         422.806         387.265         419.632 
       0.233611         385.592         346.502         382.673 
       0.245665         361.455         319.809         352.127 
       0.258103         330.039         297.715         329.901 
       0.270422         307.435         273.566         305.272 
       0.282519         279.928         248.276         281.685 
       0.294636         272.926         226.207         261.446 
       0.306978         240.957          209.28         245.878 
       0.319417         230.729         195.665         230.874 
        0.33169         215.362         182.632         216.635 
       0.343948         205.521         169.219         204.596 
       0.356249         190.422         156.641         194.109 
       0.368458         183.202         146.105         181.719 
        0.38068         173.357         137.294         172.491 
       0.392856          161.66         129.251         164.585 
       0.405069          154.03         121.386         156.675 
       0.417459         146.243         113.771         148.266 
       0.429752         140.565         106.936         141.724 
       0.441978          134.81         100.936         136.531 
       0.454294         125.437         95.4879         129.483 
        0.46658         125.565          90.376         124.606 
       0.478753           117.4         85.5535         119.767 
       0.490964         113.827         81.0237         115.064 
       0.503334         108.701         76.8425         110.709 
       0.515665         105.035         73.0298         107.599 
       0.527909         101.324         69.5101         102.402 
       0.540159         97.7935         66.1802         99.2194 
        0.55248         93.3838         63.0205         95.5605 
       0.564743         91.1674         60.0949         92.7612 
        0.57686         88.3405          57.406          89.624 
       0.589077         84.0548         54.8677         87.1836 
       0.601441         81.9645         52.4541          84.578 
        0.61382         79.9529         50.1784         81.7113 
       0.626067         76.6407         48.0549         79.5502 
       0.638306         74.3054         46.0552         77.2219 
       0.650632         71.7053         44.1605         74.5224 
       0.662899         70.7403         42.3851         72.5466 
       0.675076         68.0032         40.7212         70.6516 
       0.687267           66.84         39.1445         68.7622 
       0.699615         64.5284         37.6316         67.3103 
       0.711937          62.218         36.2015         65.1163 
       0.724148         61.8323         34.8577         64.0905 
       0.736433         58.7394         33.5755         62.2409 
       0.748747         57.9184          32.356         60.7375 
       0.761037         56.3687         31.1999          59.305 
       0.773197         55.1261         30.1123         58.3244 
       0.785376         53.3962         29.0753         56.8062 
       0.797761         52.8736         28.0711         55.7548 
       0.810096          51.306         27.1183         54.4164 
       0.822371         50.2479         26.2144         53.1798 
       0.834626         48.9467         25.3533         52.2972 
       0.846916         47.9056         24.5289         51.1871 
       0.859215         46.6054         23.7408         50.0801 
       0.871383         45.9813         22.9954         49.2038 
        0.88363         44.7821         22.2777         48.4021 
       0.895928         43.7504         21.5881         47.3509 
       0.908253         42.8349         20.9265         46.5952 
       0.920535         42.3265         20.2951         45.6976 
       0.932774         41.5485          19.692         44.8928 
        0.94508         40.8152         19.1104         43.9841 
       0.957324         39.8373         18.5554         43.3202 
        0.96953         39.3551         18.0241         42.4957 
       0.981769         38.3112         17.5125          41.916 
       0.994071         37.6723         17.0183         41.2169 
         1.0064         36.8578         16.5425          40.534 
        1.01868         36.1383         16.0863         39.9385 
        1.03092         35.7871         15.6495         39.2662 
         1.0432         35.0272         15.2273         38.5459 
        1.05553         34.2838         14.8192           38.23 
        1.06777         33.5889          14.429         37.4936 
           1.08         32.8229         14.0534         36.9167 
        1.09227           32.47           13.69          36.472 
         1.1046         31.9981         13.3381         35.8603 
         1.1169         31.5472         12.9992         35.3583 
        1.12915         31.0627         12.6739         34.8889 
        1.14142         30.3089          12.359         34.3928 
        1.15365         29.9733         12.0559         33.9538 
        1.16585          29.544         11.7637          33.487 
        1.17807         28.9851         11.4809         32.9405 
        1.19037         28.7966         11.2056         32.6786 
        1.20276         28.3657         10.9374         32.1975 
        1.21504         27.7891         10.6802         31.8572 
        1.22728         27.3174         10.4324         31.4087 
        1.23954         26.9989         10.1918         30.9494 
        1.25184          26.487         9.95844         30.6225 
        1.26414         26.1747         9.73228         30.2064 
        1.27632         25.8811         9.51519         29.8465 
         1.2886         25.6054         9.30322          29.522 
        1.30093         25.0193         9.09697         29.1881 
        1.31316         24.7231          8.8985         28.8372 
        1.32541          24.476         8.70592         28.5384 
        1.33772         24.0369           8.518         28.2134 
        1.35005         23.7181         8.33551         27.9228 
        1.36225         23.4025         8.16024         27.6174 
        1.37447         22.9043         7.98969         27.2695 
        1.38676          22.781         7.82324         27.0255 
        1.39907         22.4249         7.66127         26.7383 
        1.41133         22.0488          7.5046         26.4197 
        1.42358         21.8257         7.35246         26.1398 
        1.43591         21.4833         7.20351         25.9099 
        1.44818         21.2602         7.05952         25.6382 
        1.46037         21.0896         6.92032         25.3331 
        1.47263         20.7787         6.78412         25.1392 
        1.48494          20.554         6.65106         24.8455 
        1.49724         20.3985         6.52169         24.6262 
        1.50952         19.9972         6.39603         24.4205 
        1.52178         19.7761         6.27387         24.1373 
        1.53409         19.4866         6.15442         23.9183 
        1.54637         19.3764         6.03833         23.6529 
        1.55858         18.9796          5.9259         23.4587 
        1.57081         18.8645         5.81617         23.2548 
        1.58313         18.6719         5.70855         23.0225 
        1.59544         18.3394         5.60371         22.8379 
        1.60767         18.1698         5.50219         22.5943 
        1.61994         17.8745         5.40283         22.4196 
        1.63225         17.8152         5.30572         22.2576 
        1.64452          17.533         5.21127         22.0636 
        1.65676         17.3533         5.11942         21.8372 
          1.669         17.2019         5.02971         21.6581 
        1.68133         16.8831         4.94159         21.4639 
        1.69363         16.7213         4.85585         21.2209 
        1.70585         16.5282         4.77268          21.121 
        1.71809         16.3357          4.6913         20.9229 
        1.73038         16.1697         4.61156         20.7702 
        1.74268         16.0436         4.53363          20.559 
        1.75493         15.7626         4.45786         20.4052 
        1.76714         15.7545         4.38402         20.2397 
        1.77942          15.567         4.31147         20.0539 
        1.79173          15.241         4.24039         19.9163 
        1.80402         15.1203         4.17105         19.7817 
         1.8163         15.0079         4.10331         19.5954 
         1.8286         14.7986         4.03695           19.46 
         1.8409         14.6419         3.97212         19.3076 
        1.85315         14.5262         3.90894         19.1501 
        1.86537         14.3462         3.84725         19.0109 
        1.87765         14.2393         3.78667         18.8606 
        1.88995         14.0182         3.72724         18.7165 
        1.90221         13.9264          3.6693         18.5619 
        1.91445         13.7733         3.61269         18.4309 
        1.92674         13.6278         3.55708         18.2906 
        1.93902         13.4755         3.50264          18.183 
        1.95124         13.2954         3.44962         18.0701 
         1.9635         13.1781         3.39757         17.9007 
        1.97583         13.0539         3.34627         17.7486 
        1.98812         12.9401         3.29622         17.6426 
        2.00039         12.8609         3.24729         17.5174 
        2.01264         12.7207         3.19941         17.4063 
        2.02492         12.5874         3.15242          17.256 
        2.03717         12.4344         3.10645         17.1412 
        2.04942         12.3056         3.06146         17.0146 
        2.06171         12.2418         3.01721         16.8977 
        2.07397         12.1087         2.97393         16.7893 
        2.08629         12.0054         2.93132         16.6819 
        2.09857          11.905         2.88965          16.559 
        2.11081         11.7741         2.84896         16.4605 
        2.12309         11.6247         2.80895         16.3275 
        2.13538          11.504         2.76966         16.2144 
        2.14763         11.4208         2.73125         16.1149 
        2.15986         11.3871         2.69366         16.0248 
        2.17214         11.2493         2.65662         15.8939 
        2.18443         11.0998         2.62024         15.7994 
        2.19671         11.0592         2.58459         15.6874 
        2.20898         10.9239         2.54965         15.5958 
        2.22126         10.8001         2.51531           15.49 
        2.23354         10.7608         2.48162         15.3765 
         2.2458         10.6236         2.44861         15.3045 
        2.25807         10.5353         2.41616         15.1768 
        2.27035         10.4581         2.38428         15.0878 
        2.28263         10.3701         2.35299         14.9862 
         2.2949         10.2625         2.32227         14.9016 
        2.30718         10.1905         2.29209         14.8219 
        2.31946         10.0849         2.26244         14.7193 
        2.33169         10.0008         2.23344         14.6298 
        2.34393         9.91901          2.2049          14.535 
        2.35622         9.83627         2.17677         14.4487 
        2.36847         9.75927         2.14921         14.3561 
        2.38076         9.67909         2.12204          14.268 
        2.39305         9.55459         2.09536         14.1711 
        2.40534         9.51043         2.06913         14.0765 
        2.41762         9.43895         2.04335         14.0138 
        2.42989         9.37342         2.01805         13.9235 
        2.44216         9.28833         1.99318         13.8279 
         2.4544         9.21066         1.96879         13.7493 
        2.46667         9.16646         1.94474         13.6726 
        2.47897         9.08954         1.92105          13.577 
        2.49124          8.9834         1.89781         13.5001 
        2.50349         8.93303           1.875         13.4243 
        2.51578          8.8623         1.85248         13.3536 
        2.52805          8.8063         1.83038         13.2753 
        2.54029         8.72776          1.8087         13.1998 
        2.55257         8.69753          1.7873          13.117 
        2.56487         8.56852          1.7662         13.0326 
        2.57716         8.53367         1.74548         12.9615 
        2.58942         8.49931         1.72513         12.8957 
        2.60167         8.44337         1.70513          12.821 
        2.61395         8.37238         1.68542         12.7454 
        2.62624         8.30618         1.66599         12.6728 
        2.63849         8.26472         1.64693         12.6074 
        2.65073          8.2121         1.62818         12.5266 
        2.66302         8.14675         1.60967          12.454 
         2.6753         8.11376         1.59145         12.3825 
        2.68756         8.07048         1.57355         12.3258 
        2.69983         7.99906         1.55591         12.2431 
        2.71213          7.9617         1.53851         12.1723 
        2.72441         7.89782          1.5214          12.109 
        2.73665          7.9017          1.5046         12.0347 
         2.7489         7.83906         1.48806         11.9671 
        2.76118         7.76313         1.47171          11.912 
        2.77349         7.73968         1.45558         11.8437 
        2.78576         7.71549         1.43975         11.7796 
        2.79802         7.66337         1.42416         11.7121 
        2.81031         7.63773         1.40877         11.6518 
        2.82259          7.5829         1.39361         11.5873 
        2.83483         7.54317         1.37873         11.5226 
         2.8471          7.5276         1.36404         11.4658 
         2.8594         7.51379         1.34952         11.4048 
         2.8717          7.4649         1.33521         11.3354 
        2.88396          7.4268         1.32117         11.2773 
        2.89619         7.37516         1.30735         11.2235 
        2.90847         7.36732         1.29368          11.157 
        2.92072         7.37315         1.28023         11.0944 
        2.93299         7.32445         1.26696         11.0436 
        2.94526         7.31095         1.25387         10.9838 
        2.95753         7.28309         1.24096         10.9228 
        2.96982         7.25356         1.22822          10.866 
        2.98209         7.24411         1.21568         10.8033 
        2.99436         7.24356         1.20331         10.7479 
        3.00666         7.22956         1.19109         10.6963 
        3.01894         7.19602         1.17906         10.6412 
        3.03119         7.19692         1.16721         10.5831 
        3.04345         7.18242         1.15553         10.5259 
        3.05573         7.18761         1.14398         10.4723 
          3.068         7.17465          1.1326         10.4206 
        3.08026         7.19802         1.12139         10.3653 
        3.09254         7.18624         1.11031         10.3115 
        3.10483         7.16297         1.09938         10.2631 
         3.1171         7.17755         1.08861         10.2119 
        3.12933         7.19704         1.07801         10.1557 
        3.14159         7.16495         1.06753         10.1064 
