# k  (h/Mpc)    Pcb(k)  (Mpc/h)^3    Pcb_linear(k) (Mpc/h)^3    Pcb_NL(k) (Mpc/h)^3   ShotnoiseSubtracted = false
      0.0156606         3508.29         3511.46         3493.76 
      0.0273761         3045.31         3038.24         3028.89 
      0.0384619         2314.13         2289.72         2285.86 
      0.0498308         1812.02         1801.34         1798.86 
      0.0625568         1528.83         1531.09         1527.58 
      0.0751274         1326.54         1300.92         1294.78 
      0.0867833         1050.04         1047.43         1046.52 
      0.0984825         853.578         828.927         832.691 
       0.111151         715.756         692.154         695.853 
       0.123864         643.008         623.781         626.691 
       0.135742         578.163         560.941         563.869 
        0.14762         491.638         479.636         486.525 
       0.160083         408.154         399.807         407.632 
       0.172465         360.345         348.957           358.4 
       0.184281         334.049         321.699         331.735 
       0.196406         304.628         297.089         304.874 
       0.209011         275.218         264.334         273.113 
       0.221538         245.042         231.004         243.277 
       0.233611         221.477         206.689         220.344 
       0.245665         208.095         190.766         202.925 
       0.258103         187.902         177.587         189.699 
       0.270422         176.252         163.182         174.987 
       0.282519         160.008         148.097          160.65 
       0.294636         153.551         134.933         148.176 
       0.306978         135.624         124.836         138.541 
       0.319417         129.561         116.715         129.951 
        0.33169         120.521         108.941         121.733 
       0.343948         114.658          100.94         114.028 
       0.356249         105.466         93.4366         107.628 
       0.368458          100.88         87.1519         100.357 
        0.38068         94.8137         81.8962         94.9769 
       0.392856         88.5085         77.0985         90.2808 
       0.405069         83.8571         72.4073         85.3029 
       0.417459         78.8799          67.865         80.7356 
       0.429752         75.6308         63.7875         76.7035 
       0.441978         72.1192         60.2087         73.5558 
       0.454294         67.0837         56.9588         69.6336 
        0.46658         66.7606         53.9096         66.5719 
       0.478753           62.09         51.0329         63.7313 
       0.490964          60.068         48.3309         61.1413 
       0.503334         57.5764         45.8368         58.3821 
       0.515665         54.9191         43.5625         56.5114 
       0.527909         52.6113          41.463         53.5572 
       0.540159         50.5677         39.4767         51.6154 
        0.55248         47.4219          37.592         49.5099 
       0.564743         46.7102         35.8468          47.904 
        0.57686         45.2119         34.2429         46.1434 
       0.589077         42.6815         32.7288         44.6976 
       0.601441         41.3092         31.2891          43.136 
        0.61382         39.9464         29.9316         41.4818 
       0.626067         38.3238         28.6649         40.2666 
       0.638306         37.1221         27.4721         38.8403 
       0.650632         36.0326         26.3419         37.5816 
       0.662899          34.736         25.2829          36.341 
       0.675076         33.1959         24.2903         35.2314 
       0.687267         32.7792         23.3499         34.1394 
       0.699615         31.6159         22.4474         33.2569 
       0.711937         30.1194         21.5943         32.1416 
       0.724148         29.9811         20.7928         31.4087 
       0.736433         28.2522         20.0279         30.4372 
       0.748747         27.8334         19.3005         29.6102 
       0.761037         27.0945         18.6109         28.8778 
       0.773197         26.2901         17.9621         28.1695 
       0.785376          25.278         17.3435         27.4314 
       0.797761         24.8243         16.7445         26.7576 
       0.810096         24.2642         16.1762         26.0993 
       0.822371         23.6119          15.637          25.376 
       0.834626         22.8915         15.1233         24.8775 
       0.846916         22.2445         14.6316         24.2449 
       0.859215         21.4724         14.1615         23.6918 
       0.871383         21.1287         13.7168         23.2151 
        0.88363          20.583         13.2888         22.7013 
       0.895928         20.1613         12.8774         22.1301 
       0.908253         19.6989         12.4828         21.7233 
       0.920535          19.174         12.1061         21.2284 
       0.932774         18.8719         11.7463         20.7361 
        0.94508          18.321         11.3995         20.3351 
       0.957324         17.9832         11.0683         19.9507 
        0.96953         17.4128         10.7515         19.5213 
       0.981769         17.2566         10.4463         19.1692 
       0.994071         16.7704         10.1515         18.7687 
         1.0064          16.319         9.86766         18.4314 
        1.01868         16.0025         9.59555         18.1003 
        1.03092         15.8182         9.33497         17.7388 
         1.0432         15.2715         9.08316         17.3899 
        1.05553         15.0308         8.83971         17.1585 
        1.06777         14.5963         8.60698         16.7791 
           1.08         14.3344         8.38291          16.508 
        1.09227         14.0698         8.16612         16.2441 
         1.1046          13.849         7.95622         15.9257 
         1.1169         13.4873          7.7541         15.6538 
        1.12915         13.4241         7.56002         15.4436 
        1.14142         12.9198         7.37221         15.1582 
        1.15365         12.8239         7.19137         14.9105 
        1.16585         12.6659         7.01709         14.7072 
        1.17807         12.2885          6.8484         14.4221 
        1.19037         12.1289         6.68417         14.2373 
        1.20276         11.8741         6.52422         13.9977 
        1.21504         11.7072          6.3708         13.8081 
        1.22728         11.4132         6.22295          13.579 
        1.23954         11.2557         6.07947         13.3934 
        1.25184         11.0409         5.94025         13.1981 
        1.26414         10.8919         5.80534         12.9817 
        1.27632         10.6369         5.67585         12.8005 
         1.2886         10.5263          5.5494         12.6308 
        1.30093          10.304         5.42638         12.4966 
        1.31316         10.1351         5.30799          12.285 
        1.32541         9.98271         5.19312         12.1558 
        1.33772         9.79172         5.08102         11.9623 
        1.35005         9.68023         4.97216         11.8193 
        1.36225         9.49828         4.86761         11.6423 
        1.37447         9.34036         4.76588         11.5049 
        1.38676         9.19238         4.66659         11.3672 
        1.39907         9.03127         4.56998         11.2144 
        1.41133         8.90644         4.47652         11.0769 
        1.42358         8.73711         4.38577         10.9264 
        1.43591         8.64431         4.29692         10.8182 
        1.44818         8.46403         4.21103         10.6818 
        1.46037         8.36769           4.128          10.539 
        1.47263         8.22924         4.04675         10.4345 
        1.48494         8.15493         3.96739         10.2849 
        1.49724         7.99488         3.89022         10.1848 
        1.50952         7.95563         3.81526         10.0707 
        1.52178         7.78825         3.74239         9.94609 
        1.53409         7.64803         3.67114          9.8287 
        1.54637         7.58518         3.60189         9.70656 
        1.55858         7.50015         3.53482         9.60778 
        1.57081          7.3235         3.46937          9.5185 
        1.58313         7.27572         3.40517          9.4093 
        1.59544         7.12583         3.34264          9.3166 
        1.60767         7.05422         3.28208         9.20498 
        1.61994         6.95264         3.22281         9.12198 
        1.63225         6.86027         3.16488         9.02448 
        1.64452         6.75218         3.10854         8.93071 
        1.65676         6.66303         3.05375         8.83855 
          1.669         6.61459         3.00024         8.74508 
        1.68133         6.46742         2.94768         8.65419 
        1.69363         6.40777         2.89653         8.57905 
        1.70585         6.32176         2.84692          8.4886 
        1.71809         6.24989         2.79838         8.41036 
        1.73038         6.18947         2.75082         8.33111 
        1.74268         6.10051         2.70433         8.25168 
        1.75493         6.00818         2.65913          8.1582 
        1.76714         5.98516         2.61508         8.09398 
        1.77942         5.88854         2.57181         8.00809 
        1.79173         5.80437         2.52941         7.93348 
        1.80402         5.75705         2.48805         7.86308 
         1.8163         5.69256         2.44764         7.80035 
         1.8286         5.60029         2.40806         7.72937 
         1.8409         5.53117         2.36939         7.66559 
        1.85315          5.4685          2.3317         7.58405 
        1.86537         5.42994          2.2949         7.52301 
        1.87765         5.35251         2.25876         7.45275 
        1.88995         5.26496         2.22332         7.39475 
        1.90221         5.22857         2.18875         7.32253 
        1.91445         5.16019         2.15499          7.2768 
        1.92674         5.12056         2.12181         7.19946 
        1.93902         5.06014         2.08934         7.14314 
        1.95124         4.99693         2.05771         7.07476 
         1.9635         4.95487         2.02667         7.02849 
        1.97583         4.90119         1.99606         6.96714 
        1.98812          4.8376         1.96621         6.89992 
        2.00039         4.78461         1.93702         6.85683 
        2.01264         4.74163         1.90846         6.80311 
        2.02492          4.6956         1.88043         6.74453 
        2.03717         4.63903         1.85301         6.69031 
        2.04942         4.57191         1.82617         6.64398 
        2.06171         4.53991         1.79978         6.58907 
        2.07397         4.49867         1.77396         6.53667 
        2.08629         4.45107         1.74854         6.49004 
        2.09857         4.39888         1.72369         6.43819 
        2.11081         4.35864         1.69941         6.39492 
        2.12309         4.31123         1.67555         6.33705 
        2.13538         4.26967         1.65211          6.2992 
        2.14763         4.23032          1.6292         6.24954 
        2.15986         4.19805         1.60678         6.20447 
        2.17214         4.14924         1.58468          6.1514 
        2.18443         4.11624         1.56298         6.10991 
        2.19671         4.06442         1.54172         6.06657 
        2.20898         4.02889         1.52087         6.02592 
        2.22126         3.99773         1.50039         5.97972 
        2.23354         3.95454          1.4803         5.93378 
         2.2458         3.92554          1.4606         5.88954 
        2.25807         3.88814         1.44125         5.85408 
        2.27035         3.85048         1.42223         5.81623 
        2.28263         3.81803         1.40357         5.77342 
         2.2949         3.78502         1.38524          5.7382 
        2.30718         3.75125         1.36724         5.70585 
        2.31946         3.72576         1.34955         5.66548 
        2.33169         3.68524         1.33226         5.62191 
        2.34393         3.66877         1.31523         5.58495 
        2.35622         3.63932         1.29845         5.54554 
        2.36847         3.59973         1.28201         5.50961 
        2.38076          3.5797         1.26581         5.47187 
        2.39305         3.53621         1.24989         5.43318 
        2.40534         3.51315         1.23424         5.39967 
        2.41762         3.47065         1.21886         5.37109 
        2.42989         3.45978         1.20377         5.33376 
        2.44216         3.44016         1.18894         5.30203 
         2.4544         3.39962         1.17439         5.26616 
        2.46667         3.38287         1.16005          5.2339 
        2.47897         3.34879         1.14591         5.20012 
        2.49124         3.31967         1.13205         5.16727 
        2.50349         3.30682         1.11844         5.13917 
        2.51578         3.26755         1.10501         5.10434 
        2.52805         3.25287         1.09183         5.07304 
        2.54029         3.23125         1.07889         5.04287 
        2.55257         3.21451         1.06613         5.01442 
        2.56487         3.18542         1.05355         4.97918 
        2.57716         3.17693         1.04118         4.95012 
        2.58942         3.13973         1.02905           4.922 
        2.60167         3.12371         1.01712         4.89065 
        2.61395         3.09297         1.00536         4.86412 
        2.62624          3.0938        0.993769         4.83753 
        2.63849         3.06209        0.982399         4.80512 
        2.65073         3.04203        0.971218         4.77652 
        2.66302         3.02773        0.960172         4.75004 
         2.6753         3.01379        0.949305         4.72275 
        2.68756         2.98466        0.938628         4.69745 
        2.69983          2.9723        0.928108          4.6673 
        2.71213         2.96382        0.917726         4.64069 
        2.72441         2.94559        0.907523          4.6154 
        2.73665         2.92834        0.897499         4.58879 
         2.7489         2.90576        0.887632          4.5663 
        2.76118         2.89115        0.877883         4.54525 
        2.77349         2.88879        0.868258         4.51534 
        2.78576         2.87187        0.858814         4.48981 
        2.79802         2.86424        0.849516         4.46722 
        2.81031         2.84369        0.840335         4.44156 
        2.82259         2.83041        0.831292         4.41694 
        2.83483         2.82831        0.822417         4.39404 
         2.8471         2.81142        0.813654          4.3703 
         2.8594         2.80438        0.804992         4.34878 
         2.8717         2.79059        0.796459         4.32322 
        2.88396         2.78433        0.788082         4.29878 
        2.89619          2.7602         0.77984           4.278 
        2.90847         2.75953        0.771685         4.25199 
        2.92072         2.75878        0.763661         4.23164 
        2.93299          2.7502        0.755746         4.20973 
        2.94526         2.75044        0.747937          4.1883 
        2.95753         2.73092         0.74024         4.16669 
        2.96982         2.72078        0.732639         4.14484 
        2.98209         2.72521         0.72516         4.12448 
        2.99436         2.71498        0.717778          4.1029 
        3.00666         2.72185        0.710488         4.08275 
        3.01894         2.71251        0.703312         4.05846 
        3.03119         2.71506        0.696246         4.03881 
        3.04345         2.70733        0.689277         4.02097 
        3.05573         2.70898        0.682388         4.00053 
          3.068         2.70722        0.675602         3.98109 
        3.08026         2.71446        0.668915         3.96055 
        3.09254         2.71085        0.662305         3.93969 
        3.10483         2.71469        0.655784         3.92126 
         3.1171         2.71573         0.64936         3.90331 
        3.12933         2.72336        0.643039         3.88273 
        3.14159         2.71839        0.636789         3.86147 
