# k  (h/Mpc)    Pcb(k)  (Mpc/h)^3    Pcb_linear(k) (Mpc/h)^3    Pcb_NL(k) (Mpc/h)^3   ShotnoiseSubtracted = false
      0.0156606         16911.8         16985.5         16864.9 
      0.0273761         14533.2         14686.7         14557.5 
      0.0384619         11007.6           11065         10955.7 
      0.0498308         8522.95         8703.44         8595.25 
      0.0625568         7197.43         7396.88         7298.82 
      0.0751274         6384.95         6284.45         6144.99 
      0.0867833         4961.91         5059.68         5018.52 
      0.0984825         4161.15         4004.09         4047.25 
       0.111151         3543.53         3343.34         3393.61 
       0.123864         3177.49         3013.03         3054.25 
       0.135742         2886.78         2709.46         2751.28 
        0.14762         2501.41         2316.72          2427.3 
       0.160083         2106.51         1931.12         2064.73 
       0.172465         1878.83          1685.5         1854.65 
       0.184281          1713.9         1553.83         1725.68 
       0.196406         1598.29         1434.96         1585.34 
       0.209011         1485.21         1276.74         1434.03 
       0.221538         1339.56         1115.75          1329.6 
       0.233611         1269.35          998.31         1238.87 
       0.245665         1157.87         921.402         1141.64 
       0.258103         1127.21         857.746         1076.05 
       0.270422         1010.48         788.169          1007.4 
       0.282519         944.949         715.307         947.058 
       0.294636          934.22         651.724         893.676 
       0.306978         843.901         602.954         853.413 
       0.319417         820.147         563.727         803.696 
        0.33169         772.625         526.179         758.689 
       0.343948         737.725         487.535         733.003 
       0.356249         695.113         451.295          703.74 
       0.368458         672.777          420.94         668.463 
        0.38068         653.581         395.555         640.922 
       0.392856         617.506         372.382         616.505 
       0.405069         589.694         349.724         597.456 
       0.417459         566.134         327.784         571.432 
       0.429752         554.726          308.09         551.003 
       0.441978         536.049         290.804         535.711 
       0.454294         508.788         275.108         512.808 
        0.46658         497.286          260.38         500.917 
       0.478753         483.817         246.486         484.496 
       0.490964         465.687         233.435         468.864 
       0.503334         441.649         221.389         456.956 
       0.515665         440.564         210.404         447.045 
       0.527909         423.919         200.264         435.208 
       0.540159         413.181          190.67         423.136 
        0.55248         405.009         181.567          411.71 
       0.564743         400.115         173.138         404.211 
        0.57686         384.607         165.391         392.698 
       0.589077         372.651         158.078         383.957 
       0.601441         368.073         151.124         375.501 
        0.61382         360.422         144.567         368.499 
       0.626067         354.895         138.449         360.649 
       0.638306          340.08         132.688          353.75 
       0.650632         335.074          127.23         343.828 
       0.662899         332.171         122.114         339.645 
       0.675076         319.379          117.32         333.482 
       0.687267         311.344         112.778         325.663 
       0.699615         307.089         108.419         320.206 
       0.711937         302.356         104.299         314.457 
       0.724148         292.651         100.427         309.754 
       0.736433          286.16         96.7334         303.582 
       0.748747         281.846         93.2197         297.885 
       0.761037         276.553          89.889         293.367 
       0.773197         273.058         86.7555         289.312 
       0.785376         268.922         83.7678         284.302 
       0.797761         262.207         80.8747         279.977 
       0.810096         259.364         78.1296         276.111 
       0.822371         249.714         75.5253         271.536 
       0.834626         248.946         73.0445         267.613 
       0.846916         243.508         70.6692         263.675 
       0.859215         243.452         68.3988         259.881 
       0.871383         236.812         66.2512         255.967 
        0.88363         235.179         64.1836         253.322 
       0.895928         229.787         62.1968         249.318 
       0.908253         223.582         60.2907         245.257 
       0.920535         222.459         58.4714         241.978 
       0.932774         215.632         56.7338          238.64 
        0.94508         213.426         55.0584          236.15 
       0.957324         212.779         53.4592          232.67 
        0.96953         209.688         51.9287         229.411 
       0.981769         203.234         50.4545         227.236 
       0.994071         202.294         49.0309          224.29 
         1.0064          197.76           47.66         220.912 
        1.01868          195.05         46.3457         218.335 
        1.03092         191.066         45.0871         216.092 
         1.0432         187.489         43.8709         213.426 
        1.05553          184.83         42.6951          210.76 
        1.06777         184.502          41.571         208.625 
           1.08         179.842         40.4887         205.977 
        1.09227         177.628         39.4417         203.774 
         1.1046         174.921         38.4279         201.597 
         1.1169         171.755         37.4516         198.835 
        1.12915         169.233         36.5143         197.006 
        1.14142         166.506         35.6072         194.438 
        1.15365         164.196         34.7337         192.396 
        1.16585         161.854          33.892           189.9 
        1.17807         159.652         33.0772         188.472 
        1.19037         158.297          32.284         186.572 
        1.20276         155.672         31.5114         184.253 
        1.21504         152.823         30.7704         182.275 
        1.22728         149.844         30.0563         179.966 
        1.23954         149.297         29.3633         178.648 
        1.25184         146.421         28.6909         176.599 
        1.26414          144.07         28.0393         174.749 
        1.27632         143.522         27.4139         173.692 
         1.2886         141.248         26.8032         171.306 
        1.30093         137.213          26.209         169.453 
        1.31316          136.12         25.6371         167.559 
        1.32541          134.39         25.0823         166.299 
        1.33772         133.113         24.5409         164.501 
        1.35005           131.1         24.0151         162.656 
        1.36225         129.371         23.5102           161.2 
        1.37447         127.249         23.0188         159.343 
        1.38676         125.801         22.5393         157.837 
        1.39907         123.384         22.0726         156.294 
        1.41133         121.602         21.6212         154.969 
        1.42358         119.855         21.1829         153.506 
        1.43591         118.649         20.7538         151.785 
        1.44818         117.449         20.3389         150.509 
        1.46037         115.243         19.9379         148.951 
        1.47263         114.079         19.5455         147.824 
        1.48494         112.346         19.1621         146.122 
        1.49724         110.787         18.7894         144.747 
        1.50952         108.744         18.4274         143.435 
        1.52178         108.202         18.0754         141.995 
        1.53409         106.152         17.7313         140.808 
        1.54637         104.709         17.3968         139.581 
        1.55858         102.925         17.0729         138.158 
        1.57081          101.55         16.7568         136.983 
        1.58313         100.355         16.4467         135.652 
        1.59544         99.1634         16.1446         134.476 
        1.60767         97.8296         15.8521         133.172 
        1.61994         96.1792         15.5659         132.256 
        1.63225         94.9363         15.2861         130.672 
        1.64452         93.2622          15.014         129.546 
        1.65676          91.984         14.7494         128.496 
          1.669         91.3755         14.4909         127.452 
        1.68133         89.6442          14.237         126.248 
        1.69363         88.7595           13.99         125.179 
        1.70585         87.1767         13.7504         124.035 
        1.71809         86.0083         13.5159         122.897 
        1.73038         85.2934         13.2862         121.832 
        1.74268         83.9974         13.0617         120.746 
        1.75493          82.874         12.8434         119.667 
        1.76714         81.5738         12.6306         118.706 
        1.77942         80.7343         12.4216         117.566 
        1.79173          79.398         12.2168         116.645 
        1.80402         78.7697         12.0171         115.683 
         1.8163         77.3246         11.8219         114.529 
         1.8286         76.2372         11.6307         113.615 
         1.8409         75.5619         11.4439         112.632 
        1.85315         74.3394         11.2619         111.746 
        1.86537         73.4835         11.0842         110.789 
        1.87765         72.8113         10.9096         109.769 
        1.88995         71.5826         10.7384          108.93 
        1.90221         70.6329         10.5715         107.986 
        1.91445         69.4329         10.4084         107.054 
        1.92674          68.514         10.2482         106.194 
        1.93902          67.651         10.0913         105.237 
        1.95124         67.0741         9.93858         104.461 
         1.9635         65.9935         9.78862         103.427 
        1.97583         65.1085         9.64081         102.724 
        1.98812         64.2756         9.49661         101.827 
        2.00039         63.2648         9.35565         100.982 
        2.01264         62.7595         9.21769         100.131 
        2.02492         61.8058         9.08231         99.3207 
        2.03717         60.8121         8.94988         98.4441 
        2.04942          60.416         8.82026         97.7556 
        2.06171         59.1948         8.69277         96.9039 
        2.07397         58.5851         8.56808          96.167 
        2.08629         57.9752         8.44532          95.328 
        2.09857         57.0802         8.32525         94.5809 
        2.11081         56.0911         8.20802         93.7283 
        2.12309         55.7206         8.09276         93.0909 
        2.13538         54.8368         7.97956         92.3041 
        2.14763         54.1489         7.86889         91.5704 
        2.15986         53.1213         7.76059         90.8204 
        2.17214         52.7426         7.65388         90.0865 
        2.18443          52.104         7.54908         89.4664 
        2.19671         51.1943         7.44637          88.696 
        2.20898         50.9993         7.34569         87.9925 
        2.22126         50.1472         7.24677         87.2642 
        2.23354         49.4656          7.1497         86.6222 
         2.2458         48.8716         7.05458         85.9768 
        2.25807         48.2694         6.96111         85.2413 
        2.27035         47.7408         6.86925         84.5734 
        2.28263         46.9366          6.7791         83.9012 
         2.2949         46.5634          6.6906         83.2597 
        2.30718          45.726         6.60367         82.6488 
        2.31946         45.2444         6.51823         82.0216 
        2.33169         44.6219         6.43468         81.3826 
        2.34393         43.9315         6.35246         80.7658 
        2.35622         43.6488         6.27141         80.1347 
        2.36847         43.0688         6.19201         79.5782 
        2.38076         42.4679         6.11374         78.9042 
        2.39305         41.9524         6.03685          78.348 
        2.40534         41.5027         5.96128         77.7035 
        2.41762         41.0904         5.88701         77.0816 
        2.42989         40.5061         5.81412         76.5755 
        2.44216         40.1159         5.74247         75.9705 
         2.4544         39.6084         5.67219          75.391 
        2.46667         39.1963         5.60293         74.7974 
        2.47897          38.721         5.53466         74.2584 
        2.49124          38.189         5.46771         73.7183 
        2.50349         37.7133         5.40198         73.1456 
        2.51578         37.2292         5.33712         72.6669 
        2.52805         36.9871         5.27345         72.0972 
        2.54029         36.4882         5.21096         71.5315 
        2.55257         35.9338         5.14931         71.0355 
        2.56487         35.6717         5.08854         70.5449 
        2.57716         35.2016         5.02883         70.0463 
        2.58942         34.7547         4.97022         69.5089 
        2.60167          34.364         4.91259         68.9955 
        2.61395         33.9842         4.85579         68.5016 
        2.62624         33.7459         4.79982         67.9877 
        2.63849         33.4097          4.7449         67.5182 
        2.65073         33.0382          4.6909         67.0034 
        2.66302         32.5689         4.63755         66.5233 
         2.6753         32.2081         4.58506         66.0572 
        2.68756         31.7634         4.53349         65.5524 
        2.69983         31.5931         4.48268         65.1279 
        2.71213         31.2688         4.43254         64.6834 
        2.72441         30.9557         4.38326         64.2034 
        2.73665         30.6081         4.33484         63.7387 
         2.7489         30.4814         4.28718         63.2943 
        2.76118         30.0014          4.2401         62.8606 
        2.77349         29.8685         4.19361         62.4183 
        2.78576         29.6325           4.148          61.958 
        2.79802          29.189         4.10309         61.5631 
        2.81031         28.9258         4.05874         61.1282 
        2.82259         28.7883         4.01507          60.679 
        2.83483         28.4347          3.9722         60.2716 
         2.8471         28.1254         3.92988         59.8639 
         2.8594         28.0202         3.88804         59.4518 
         2.8717         27.7493         3.84683         59.0418 
        2.88396         27.4953         3.80637          58.615 
        2.89619         27.2591         3.76656         58.2028 
        2.90847         27.0904         3.72717         57.8242 
        2.92072         26.8531         3.68841         57.4256 
        2.93299         26.7148         3.65019         57.0305 
        2.94526          26.471         3.61247         56.6624 
        2.95753         26.3266         3.57529         56.2838 
        2.96982         26.2368         3.53858         55.8985 
        2.98209         25.9681         3.50246         55.5287 
        2.99436         25.8032         3.46681         55.1386 
        3.00666         25.7181         3.43159         54.7793 
        3.01894         25.5014         3.39694          54.394 
        3.03119         25.4135         3.36281         54.0405 
        3.04345         25.2426         3.32915         53.7055 
        3.05573         25.1965         3.29588         53.3504 
          3.068         25.0832          3.2631         52.9927 
        3.08026         24.9034          3.2308         52.6362 
        3.09254          24.825         3.19888         52.2911 
        3.10483         24.8386         3.16738         51.9563 
         3.1171         24.7612         3.13635         51.6181 
        3.12933         24.6808         3.10582         51.2745 
        3.14159         24.5579         3.07563          50.936 
