# k  (h/Mpc)    Pcb(k)  (Mpc/h)^3    Pcb_linear(k) (Mpc/h)^3    Pcb_NL(k) (Mpc/h)^3   ShotnoiseSubtracted = false
      0.0156606         24089.3         24235.3         24034.8 
      0.0273761         20621.2         20951.8         20702.7 
      0.0384619         15580.1         15783.8         15559.4 
      0.0498308         12019.2         12414.5         12187.7 
      0.0625568         10158.8         10550.5         10350.2 
      0.0751274         9064.39         8963.63         8683.41 
      0.0867833         7012.33         7216.62         7128.85 
      0.0984825         5950.23         5710.97         5785.34 
       0.111151         5102.79         4768.52         4864.22 
       0.123864         4569.99         4297.38         4374.44 
       0.135742         4175.24         3864.39          3941.3 
        0.14762         3642.85         3304.24         3506.47 
       0.160083         3111.77         2754.26         3005.75 
       0.172465         2775.41         2403.94         2724.65 
       0.184281         2508.29         2216.14         2536.06 
       0.196406         2381.31          2046.6         2339.76 
       0.209011          2236.3         1820.95         2123.75 
       0.221538         2011.13         1591.33         1989.23 
       0.233611         1938.13         1423.83         1869.23 
       0.245665         1754.34         1314.14         1728.93 
       0.258103         1748.57         1223.35         1634.28 
       0.270422         1560.24         1124.12         1538.28 
       0.282519         1480.48          1020.2         1461.73 
       0.294636         1447.89         929.512         1387.26 
       0.306978         1330.51         859.954         1331.95 
       0.319417         1310.45         804.007          1256.7 
        0.33169         1230.35         750.454         1192.61 
       0.343948         1185.45         695.339         1157.32 
       0.356249         1128.21         643.651         1116.26 
       0.368458          1079.2         600.358         1070.18 
        0.38068         1067.64         564.153         1031.49 
       0.392856         1016.81         531.103         997.633 
       0.405069         962.061         498.787          964.27 
       0.417459         925.846         467.496         934.187 
       0.429752         927.569         439.407         902.091 
       0.441978         895.275         414.754         880.365 
       0.454294         858.272         392.367          845.88 
        0.46658         834.687         371.362          829.39 
       0.478753         821.088         351.546         805.585 
       0.490964         791.164         332.932          781.75 
       0.503334         758.849         315.751         765.703 
       0.515665         755.453         300.085         748.124 
       0.527909         723.595         285.622         734.059 
       0.540159         708.158         271.939         716.829 
        0.55248         693.555         258.956         698.892 
       0.564743         687.211         246.934          687.15 
        0.57686          667.32         235.885         669.751 
       0.589077         659.213         225.455         655.727 
       0.601441         640.955         215.537         643.677 
        0.61382         622.524         206.186         632.225 
       0.626067         617.281         197.461          621.36 
       0.638306         595.389         189.244         608.683 
       0.650632         589.992         181.458         595.542 
       0.662899         585.529         174.163         587.977 
       0.675076         569.217         167.326         580.785 
       0.687267         552.506         160.847         567.552 
       0.699615         553.071         154.631         558.585 
       0.711937         539.439         148.754         547.936 
       0.724148         523.297         143.232         541.247 
       0.736433         511.817         137.964         532.046 
       0.748747         505.658         132.953         522.984 
       0.761037         497.208         128.202         517.038 
       0.773197         488.443         123.733         508.101 
       0.785376         484.076         119.472         501.034 
       0.797761         469.925         115.346         494.398 
       0.810096         462.636         111.431         487.874 
       0.822371         452.696         107.716         480.192 
       0.834626         447.582         104.178         474.992 
       0.846916         442.499          100.79         467.619 
       0.859215         435.533         97.5523         460.708 
       0.871383         426.775         94.4894          454.82 
        0.88363         420.525         91.5405         450.282 
       0.895928         415.957         88.7068         443.469 
       0.908253         406.226         85.9883         436.079 
       0.920535          396.39         83.3936         431.903 
       0.932774         391.764         80.9153         425.178 
        0.94508         386.056         78.5259         421.176 
       0.957324         380.472          76.245         415.583 
        0.96953         375.873         74.0622         410.547 
       0.981769           367.6         71.9597         405.971 
       0.994071         366.489         69.9293          401.16 
         1.0064         360.076          67.974         395.369 
        1.01868         355.591         66.0995         390.494 
        1.03092         345.798         64.3045         387.119 
         1.0432         342.509         62.5699         382.457 
        1.05553         339.383         60.8929         377.162 
        1.06777         334.213         59.2897         372.766 
           1.08         326.965         57.7462         368.697 
        1.09227         326.906         56.2528         364.336 
         1.1046         319.848         54.8069         361.061 
         1.1169         314.132         53.4146         356.352 
        1.12915         309.123         52.0777         352.514 
        1.14142         303.226         50.7839          348.53 
        1.15365         299.728         49.5382           344.9 
        1.16585         295.444         48.3377         341.109 
        1.17807         292.546         47.1756         337.166 
        1.19037         286.448         46.0443         334.293 
        1.20276         284.084         44.9425         329.998 
        1.21504         278.584         43.8856         326.273 
        1.22728         274.487         42.8672         323.125 
        1.23954         272.722         41.8788          319.46 
        1.25184         266.644         40.9198         316.167 
        1.26414         261.963         39.9905         313.188 
        1.27632          258.84         39.0984         310.233 
         1.2886         255.998         38.2274         306.811 
        1.30093         251.084         37.3799         302.812 
        1.31316         246.143         36.5644         300.199 
        1.32541         244.941         35.7731          296.74 
        1.33772         240.257         35.0009         294.193 
        1.35005         237.447          34.251         290.852 
        1.36225         233.282         33.5308          288.15 
        1.37447         229.446           32.83         284.786 
        1.38676         227.311         32.1461          282.74 
        1.39907         224.042         31.4806         279.245 
        1.41133         219.968         30.8368         276.292 
        1.42358         217.103         30.2117          273.72 
        1.43591         214.113         29.5996         271.335 
        1.44818          210.13         29.0079         268.366 
        1.46037         208.488          28.436         265.519 
        1.47263         204.802         27.8763         262.819 
        1.48494         203.361         27.3296         259.773 
        1.49724         199.298          26.798         258.207 
        1.50952         196.301         26.2816         254.982 
        1.52178         193.373         25.7797         252.766 
        1.53409         190.562         25.2888         250.265 
        1.54637         187.424         24.8118         248.213 
        1.55858         185.388         24.3498         245.651 
        1.57081         182.335          23.899         243.104 
        1.58313         180.303         23.4567         240.666 
        1.59544         176.877         23.0259         238.538 
        1.60767         175.545         22.6088         236.444 
        1.61994         172.394         22.2005         233.964 
        1.63225         169.658         21.8015         231.608 
        1.64452         166.969         21.4134         229.566 
        1.65676         165.039         21.0359         227.648 
          1.669         163.108         20.6673         225.258 
        1.68133         159.894         20.3053         223.198 
        1.69363         157.306         19.9529         221.414 
        1.70585         155.012         19.6112         219.257 
        1.71809          152.96         19.2768          216.96 
        1.73038         150.663         18.9492         215.084 
        1.74268         149.423         18.6289             213 
        1.75493         146.616         18.3176         211.303 
        1.76714         145.492         18.0142         209.412 
        1.77942         142.805         17.7161         207.569 
        1.79173         140.994          17.424         205.488 
        1.80402         138.781         17.1391         203.673 
         1.8163         136.611         16.8607         202.073 
         1.8286         134.549          16.588         200.098 
         1.8409         132.797         16.3217         198.244 
        1.85315         130.505          16.062         196.596 
        1.86537         129.033         15.8085         194.909 
        1.87765         127.463         15.5596         193.234 
        1.88995          125.45         15.3154         191.399 
        1.90221          123.86         15.0774         189.904 
        1.91445         121.925         14.8447         188.137 
        1.92674         119.897         14.6162         186.416 
        1.93902          118.57         14.3925         184.738 
        1.95124         116.868         14.1747         183.204 
         1.9635         115.108         13.9608         181.615 
        1.97583         113.445           13.75         179.963 
        1.98812         111.769         13.5443         178.746 
        2.00039          110.61         13.3433             177 
        2.01264         109.193         13.1465         175.533 
        2.02492          107.31         12.9534         173.925 
        2.03717         105.955         12.7646         172.574 
        2.04942          104.58         12.5797         171.052 
        2.06171         102.932         12.3979         169.501 
        2.07397         101.451           12.22         168.252 
        2.08629         100.005         12.0449         166.799 
        2.09857         98.8418         11.8737         165.465 
        2.11081         97.3461         11.7065         163.948 
        2.12309          96.073         11.5421         162.658 
        2.13538         94.6011         11.3807          161.28 
        2.14763         93.1448         11.2228         159.941 
        2.15986          92.284         11.0684          158.51 
        2.17214         90.9388         10.9162         157.362 
        2.18443         89.9903         10.7667         156.159 
        2.19671         88.8219         10.6202          154.79 
        2.20898          87.447         10.4766         153.403 
        2.22126         86.3492         10.3355         152.279 
        2.23354         85.1944         10.1971         151.112 
         2.2458         83.5081         10.0614         149.783 
        2.25807         82.9766         9.92813         148.606 
        2.27035          81.781         9.79712          147.43 
        2.28263         80.7467         9.66854         146.303 
         2.2949         79.4745         9.54232         145.147 
        2.30718          78.219         9.41833          143.95 
        2.31946         77.3767         9.29648          142.72 
        2.33169         76.2443         9.17731         141.655 
        2.34393         75.3347         9.06005         140.681 
        2.35622         74.3288         8.94446         139.448 
        2.36847         73.3625         8.83121         138.462 
        2.38076         72.1373         8.71959          137.31 
        2.39305         71.5415         8.60992         136.319 
        2.40534         70.3671         8.50214          135.19 
        2.41762         69.7829         8.39621         134.139 
        2.42989         68.5699         8.29226         133.137 
        2.44216          67.957         8.19007         132.049 
         2.4544         67.2011         8.08984          131.11 
        2.46667         65.9996         7.99105         130.114 
        2.47897         65.5635         7.89368         129.015 
        2.49124         64.6579         7.79821         128.047 
        2.50349         63.5161         7.70445         127.116 
        2.51578         63.0775         7.61195         126.221 
        2.52805         62.0428         7.52113         125.208 
        2.54029         61.4855         7.43202         124.272 
        2.55257         60.7274         7.34409         123.388 
        2.56487         60.1886         7.25742         122.475 
        2.57716         59.4934         7.17226          121.55 
        2.58942         58.6684         7.08866         120.668 
        2.60167         57.9107         7.00647         119.808 
        2.61395         57.4226         6.92547         118.889 
        2.62624           56.67         6.84563         117.961 
        2.63849         55.9849         6.76731         117.159 
        2.65073         55.2003         6.69029         116.264 
        2.66302         54.7264          6.6142         115.461 
         2.6753         53.9796         6.53934         114.632 
        2.68756         53.5522         6.46579         113.774 
        2.69983          52.997         6.39332         112.954 
        2.71213           52.42         6.32181         112.148 
        2.72441         51.8731         6.25152         111.324 
        2.73665         51.2629         6.18247         110.556 
         2.7489         50.7905          6.1145         109.784 
        2.76118         50.3227         6.04735         108.971 
        2.77349         49.8361         5.98104         108.219 
        2.78576         49.3245         5.91599          107.44 
        2.79802         48.8869         5.85194         106.736 
        2.81031         48.3657         5.78869         105.976 
        2.82259         47.8806          5.7264          105.18 
        2.83483          47.374         5.66526          104.49 
         2.8471         46.8818          5.6049         103.743 
         2.8594         46.4702         5.54523         103.021 
         2.8717         46.1129         5.48645         102.348 
        2.88396         45.6066         5.42874         101.641 
        2.89619         45.3866         5.37197          100.91 
        2.90847         44.9264         5.31579         100.171 
        2.92072          44.507         5.26052         99.5585 
        2.93299         44.2521           5.206         98.8895 
        2.94526         43.9122          5.1522         98.1817 
        2.95753         43.6372         5.09918         97.5202 
        2.96982         43.1318         5.04682         96.8864 
        2.98209         42.8682          4.9953         96.2178 
        2.99436         42.7147         4.94446         95.5465 
        3.00666         42.4442         4.89423         94.9061 
        3.01894         42.1642          4.8448         94.2773 
        3.03119         41.8932         4.79613         93.6783 
        3.04345         41.6436         4.74812         93.0701 
        3.05573         41.6101         4.70067          92.442 
          3.068         41.2503         4.65392         91.8372 
        3.08026         41.0077         4.60785         91.2293 
        3.09254         41.0636         4.56233         90.6357 
        3.10483         40.8071          4.5174         90.0444 
         3.1171         40.6881         4.47315         89.4445 
        3.12933         40.5476         4.42961         88.8534 
        3.14159         40.4317         4.38655         88.2726 
