# k  (h/Mpc)    Pcb(k)  (Mpc/h)^3    Pcb_linear(k) (Mpc/h)^3    Pcb_NL(k) (Mpc/h)^3   ShotnoiseSubtracted = false
      0.0156606         1165.56         1166.16         1160.71 
      0.0273761         1015.06         1009.39          1007.2 
      0.0384619         771.128         760.829         760.592 
      0.0498308         606.071         598.598         598.819 
      0.0625568         511.463         508.818         508.465 
      0.0751274         439.506         432.338         431.443 
      0.0867833         350.691           348.1         348.022 
      0.0984825         282.082         275.488         276.131 
       0.111151         235.805         230.034         230.628 
       0.123864         211.731         207.312         207.644 
       0.135742         189.992         186.428         186.707 
        0.14762         161.457         159.407         160.223 
       0.160083         134.279         132.877         133.865 
       0.172465         117.764         115.977         117.139 
       0.184281         109.041         106.918         108.122 
       0.196406         99.6645         98.7385         99.6256 
       0.209011         89.3255         87.8525         88.8903 
       0.221538         78.8324         76.7751         78.2583 
       0.233611         70.6895          68.694          70.338 
       0.245665         66.0763         63.4021         64.8513 
       0.258103         59.7773          59.022         60.4565 
       0.270422         55.9174         54.2345         55.6117 
       0.282519          50.716          49.221         50.7184 
       0.294636         47.4568         44.8458         46.4256 
       0.306978         42.4248           41.49         43.1152 
       0.319417          40.265         38.7908          40.366 
        0.33169         37.4337         36.2071         37.7254 
       0.343948         35.2208          33.548         35.0656 
       0.356249         32.2286         31.0542         32.7728 
       0.368458          30.493         28.9655         30.5031 
        0.38068         28.4543         27.2187         28.7479 
       0.392856         26.7244         25.6242         27.1681 
       0.405069         25.2356          24.065         25.5331 
       0.417459         23.3438         22.5554         24.0811 
       0.429752         22.2447         21.2002          22.709 
       0.441978         21.1251         20.0108          21.598 
       0.454294         19.7257         18.9306         20.4315 
        0.46658         19.2179         17.9172         19.3914 
       0.478753         17.9565         16.9611         18.4313 
       0.490964         17.2461         16.0631         17.5999 
       0.503334         16.4461         15.2342         16.6889 
       0.515665         15.4902         14.4783         16.0038 
       0.527909         14.8434         13.7805         15.1881 
       0.540159         14.0933         13.1204          14.512 
        0.55248         13.2239          12.494         13.8386 
       0.564743         12.9714         11.9139         13.3286 
        0.57686         12.4261         11.3809         12.7529 
       0.589077         11.6776         10.8776         12.2829 
       0.601441         11.2061         10.3991         11.7785 
        0.61382         10.7632         9.94798         11.2788 
       0.626067         10.2973         9.52698         10.8521 
       0.638306         9.92226         9.13054         10.4259 
       0.650632         9.64106         8.75492         10.0637 
       0.662899         9.18176         8.40294         9.67304 
       0.675076         8.72903         8.07307         9.33053 
       0.687267         8.47298         7.76049          8.9731 
       0.699615         8.22116         7.46056         8.66413 
       0.711937         7.80025         7.17702         8.38901 
       0.724148         7.67759         6.91062          8.1067 
       0.736433         7.26636         6.65643          7.8143 
       0.748747         7.05343         6.41464         7.59064 
       0.761037         6.85217         6.18545         7.33854 
       0.773197         6.55062         5.96983           7.128 
       0.785376         6.32866         5.76424         6.89718 
       0.797761         6.12801         5.56516         6.66889 
       0.810096          5.9631         5.37626         6.50201 
       0.822371         5.80888         5.19706         6.28351 
       0.834626         5.60781         5.02635         6.10031 
       0.846916         5.40449          4.8629         5.93968 
       0.859215         5.19322         4.70667         5.77934 
       0.871383         5.04841         4.55889         5.61871 
        0.88363         4.91468         4.41661         5.46131 
       0.895928          4.8029         4.27989         5.30537 
       0.908253         4.65405         4.14874         5.16657 
       0.920535         4.49571         4.02354         5.02137 
       0.932774         4.38433         3.90398         4.87447 
        0.94508         4.25243         3.78869         4.76357 
       0.957324         4.14346         3.67865         4.65675 
        0.96953         4.00031         3.57333          4.5363 
       0.981769         3.88929         3.47189         4.40905 
       0.994071         3.81528         3.37392         4.31655 
         1.0064         3.68697         3.27959         4.20947 
        1.01868         3.57413         3.18915         4.10595 
        1.03092          3.5167         3.10254         4.00161 
         1.0432          3.3896         3.01885         3.91275 
        1.05553         3.31661         2.93794         3.83009 
        1.06777         3.21031         2.86059         3.74715 
           1.08          3.1548         2.78612         3.65584 
        1.09227         3.05616         2.71407         3.57116 
         1.1046         2.98575         2.64431         3.49645 
         1.1169         2.89738         2.57713         3.42021 
        1.12915         2.84956         2.51263         3.35163 
        1.14142         2.76673         2.45021          3.2732 
        1.15365         2.70652          2.3901         3.21092 
        1.16585         2.65097         2.33218         3.14434 
        1.17807         2.60048         2.27612         3.07726 
        1.19037         2.50415         2.22153         3.01202 
        1.20276         2.45156         2.16837         2.94627 
        1.21504         2.40268         2.11738         2.89951 
        1.22728         2.34702         2.06824         2.83208 
        1.23954         2.30301         2.02056         2.79057 
        1.25184         2.24843         1.97429         2.72621 
        1.26414         2.20242         1.92945         2.67047 
        1.27632         2.13619         1.88641         2.62958 
         1.2886         2.10811         1.84439         2.57408 
        1.30093         2.04399          1.8035         2.53332 
        1.31316         1.98705         1.76415         2.48273 
        1.32541         1.96323         1.72597         2.44219 
        1.33772         1.92999         1.68871         2.39666 
        1.35005         1.88819         1.65254         2.35545 
        1.36225         1.84619         1.61779         2.31001 
        1.37447         1.80751         1.58398         2.27585 
        1.38676         1.76885         1.55098         2.23011 
        1.39907         1.72559         1.51887         2.19781 
        1.41133          1.6925         1.48781         2.16011 
        1.42358         1.67228         1.45764         2.11726 
        1.43591         1.63694         1.42811         2.09431 
        1.44818         1.60066         1.39957         2.05706 
        1.46037         1.56356         1.37197         2.01897 
        1.47263         1.53262         1.34497         1.98994 
        1.48494         1.50765         1.31859         1.95774 
        1.49724         1.47437         1.29294         1.92578 
        1.50952         1.45725         1.26803         1.89337 
        1.52178         1.41984         1.24381         1.86784 
        1.53409         1.39457         1.22013         1.83484 
        1.54637         1.36244         1.19711         1.80549 
        1.55858         1.34449         1.17482         1.77798 
        1.57081         1.32306         1.15307         1.75125 
        1.58313         1.29354         1.13173         1.72908 
        1.59544         1.27292         1.11095         1.70164 
        1.60767          1.2523         1.09082         1.67665 
        1.61994         1.22557         1.07112         1.65355 
        1.63225         1.20878         1.05187         1.63055 
        1.64452         1.18657         1.03315         1.60497 
        1.65676         1.16155         1.01494         1.58318 
          1.669         1.14434        0.997153         1.55861 
        1.68133         1.12136        0.979683         1.54063 
        1.69363         1.11003        0.962683          1.5176 
        1.70585         1.08848        0.946196         1.49742 
        1.71809         1.07294        0.930063         1.47611 
        1.73038         1.05006        0.914254         1.45643 
        1.74268         1.03011        0.898804         1.43602 
        1.75493         1.02147        0.883782         1.41926 
        1.76714         1.00042        0.869143         1.39758 
        1.77942        0.979916        0.854761         1.37989 
        1.79173        0.968679        0.840667         1.36165 
        1.80402        0.952729        0.826922         1.34406 
         1.8163        0.937354        0.813491         1.32548 
         1.8286        0.916459        0.800336          1.3129 
         1.8409        0.912304        0.787483         1.29498 
        1.85315        0.898154        0.774956         1.27668 
        1.86537        0.877072        0.762727          1.2626 
        1.87765        0.866318        0.750716          1.2461 
        1.88995        0.854307        0.738935         1.23139 
        1.90221        0.839291        0.727449          1.2156 
        1.91445        0.826772        0.716225         1.20216 
        1.92674         0.81393          0.7052         1.18694 
        1.93902        0.798774        0.694406         1.17177 
        1.95124        0.788697        0.683897         1.15801 
         1.9635        0.777293        0.673577         1.14392 
        1.97583        0.764114        0.663406          1.1296 
        1.98812        0.752429        0.653484         1.11889 
        2.00039        0.741302        0.643784         1.10464 
        2.01264        0.731324         0.63429         1.09253 
        2.02492        0.722358        0.624975         1.08133 
        2.03717        0.714553        0.615862         1.06869 
        2.04942        0.700761        0.606942         1.05521 
        2.06171        0.691698        0.598169         1.04355 
        2.07397        0.681477        0.589589         1.03313 
        2.08629        0.673595        0.581142         1.02174 
        2.09857        0.662405         0.57288         1.01068 
        2.11081         0.65202        0.564813         0.99887 
        2.12309        0.643794        0.556882        0.989058 
        2.13538        0.636849        0.549092        0.977301 
        2.14763        0.628804        0.541477        0.967515 
        2.15986        0.620387        0.534024        0.958476 
        2.17214        0.608406        0.526681        0.946327 
        2.18443        0.602878         0.51947        0.937407 
        2.19671        0.595541        0.512402        0.927917 
        2.20898        0.586697        0.505474        0.917983 
        2.22126        0.577427        0.498667        0.908746 
        2.23354        0.569729        0.491988        0.899878 
         2.2458        0.564683        0.485442        0.889684 
        2.25807        0.555848         0.47901        0.881151 
        2.27035        0.550211        0.472689        0.872205 
        2.28263        0.541255        0.466485        0.864166 
         2.2949        0.535392        0.460396         0.85519 
        2.30718        0.529397        0.454413        0.847246 
        2.31946        0.522285        0.448534        0.839234 
        2.33169        0.514596        0.442785        0.830804 
        2.34393        0.510312        0.437127        0.822665 
        2.35622        0.503195         0.43155        0.814396 
        2.36847        0.498043        0.426086        0.806907 
        2.38076        0.490793        0.420701        0.799243 
        2.39305        0.485709         0.41541        0.792058 
        2.40534        0.478914        0.410209        0.784568 
        2.41762        0.473875        0.405099        0.776471 
        2.42989           0.467        0.400083        0.769637 
        2.44216        0.463494        0.395152        0.763171 
         2.4544        0.459497        0.390317        0.756009 
        2.46667        0.453408        0.385551        0.748706 
        2.47897        0.448129        0.380853        0.742374 
        2.49124         0.44196        0.376246        0.735266 
        2.50349        0.437623        0.371722        0.728366 
        2.51578         0.43264         0.36726         0.72191 
        2.52805        0.429201        0.362878        0.715815 
        2.54029        0.423809        0.358579        0.709348 
        2.55257        0.419207        0.354336        0.703739 
        2.56487        0.415417        0.350154        0.697369 
        2.57716        0.411068        0.346045        0.691014 
        2.58942        0.407715        0.342012        0.685552 
        2.60167        0.403446        0.338047        0.679015 
        2.61395        0.398225        0.334138        0.673433 
        2.62624        0.394541        0.330286        0.668336 
        2.63849        0.390767        0.326507        0.662416 
        2.65073        0.387236        0.322792        0.656681 
        2.66302        0.383693         0.31912        0.651066 
         2.6753        0.380125        0.315508         0.64577 
        2.68756        0.377075         0.31196        0.640627 
        2.69983        0.372619        0.308463        0.635216 
        2.71213        0.367931        0.305013        0.630093 
        2.72441        0.366437        0.301622        0.625078 
        2.73665        0.363249         0.29829        0.620387 
         2.7489          0.3612        0.295011        0.615412 
        2.76118        0.357167        0.291771        0.610123 
        2.77349        0.354963        0.288572        0.605629 
        2.78576        0.352183        0.285433        0.600373 
        2.79802        0.349319        0.282343        0.595365 
        2.81031        0.346373        0.279291         0.59142 
        2.82259        0.344468        0.276286        0.586201 
        2.83483        0.341504        0.273336        0.581696 
         2.8471        0.339337        0.270424        0.577395 
         2.8594        0.337639        0.267545        0.573252 
         2.8717        0.334491        0.264709        0.568883 
        2.88396        0.332373        0.261925        0.564355 
        2.89619        0.330786        0.259186        0.560354 
        2.90847        0.328615        0.256475        0.556325 
        2.92072        0.327095        0.253808        0.551772 
        2.93299        0.324602        0.251178        0.547484 
        2.94526        0.323025        0.248582        0.543587 
        2.95753        0.322259        0.246024        0.539689 
        2.96982        0.320068        0.243498        0.535574 
        2.98209        0.319396        0.241012        0.531535 
        2.99436        0.316536        0.238559        0.527801 
        3.00666        0.316403        0.236136        0.524253 
        3.01894        0.315803        0.233751        0.520374 
        3.03119        0.314579        0.231403        0.516413 
        3.04345        0.313134        0.229086        0.512876 
        3.05573        0.313131        0.226797        0.509571 
          3.068         0.31072        0.224541        0.505882 
        3.08026        0.311075        0.222319        0.501863 
        3.09254        0.310129        0.220122        0.498316 
        3.10483        0.309481        0.217955        0.495143 
         3.1171        0.310032         0.21582        0.491858 
        3.12933         0.30944        0.213719        0.488451 
        3.14159          0.3085        0.211641        0.485051 
