# k  (h/Mpc)    Pcb(k)  (Mpc/h)^3    Pcb_linear(k) (Mpc/h)^3    Pcb_NL(k) (Mpc/h)^3   ShotnoiseSubtracted = false
      0.0156606         12559.8         12600.9         12519.7 
      0.0273761         10822.6           10897         10820.5 
      0.0384619         8209.02         8210.41         8149.96 
      0.0498308            6375         6458.35         6400.13 
      0.0625568         5382.06         5488.97         5434.88 
      0.0751274          4752.2         4663.56         4585.24 
      0.0867833         3708.06         3754.72         3733.31 
      0.0984825         3085.28         2971.41          2999.4 
       0.111151         2615.73         2481.08         2511.93 
       0.123864         2347.87         2235.97         2261.65 
       0.135742         2126.23          2010.7         2036.98 
        0.14762          1832.5         1719.25         1787.07 
       0.160083         1532.71          1433.1         1513.27 
       0.172465         1365.89         1250.82         1351.47 
       0.184281         1254.25         1153.11         1256.84 
       0.196406         1158.08         1064.89          1152.7 
       0.209011         1068.52         947.484          1040.7 
       0.221538         963.613         828.012         956.768 
       0.233611         900.961         740.856         885.613 
       0.245665         830.094         683.782          815.02 
       0.258103         790.441         636.543         766.828 
       0.270422         716.935         584.909         715.239 
       0.282519         662.948         530.838         667.897 
       0.294636         656.913         483.652         627.365 
       0.306978         587.196          447.46         596.613 
       0.319417         566.655         418.349         561.266 
        0.33169         533.552         390.484         528.546 
       0.343948         508.455         361.806         507.901 
       0.356249         476.839         334.911         485.909 
       0.368458         462.621         312.385         459.223 
        0.38068          444.18         293.546         438.861 
       0.392856         417.253         276.349         421.014 
       0.405069         400.509         259.534         407.045 
       0.417459         383.245         243.253         386.663 
       0.429752         371.234         228.638         372.364 
       0.441978         359.154          215.81         361.115 
       0.454294          337.76         204.161         344.787 
        0.46658         334.366         193.231         335.532 
       0.478753         321.268          182.92         323.844 
       0.490964         310.261         173.235         312.649 
       0.503334         292.776         164.296         303.813 
       0.515665         290.357         156.144         296.939 
       0.527909         281.052         148.618          287.28 
       0.540159         273.437         141.499         279.059 
        0.55248         268.051         134.743         270.898 
       0.564743         261.935         128.488         265.229 
        0.57686         252.337         122.739         257.079 
       0.589077          242.57         117.312         251.508 
       0.601441         239.347         112.151         245.485 
        0.61382          236.52         107.286         239.845 
       0.626067          230.97         102.745         234.261 
       0.638306         220.356         98.4697         229.634 
       0.650632         215.113         94.4188         222.503 
       0.662899          214.53         90.6227          218.99 
       0.675076         206.604         87.0652         214.236 
       0.687267         201.352         83.6942         209.507 
       0.699615         197.676         80.4595          205.45 
       0.711937         193.367         77.4016         201.479 
       0.724148         189.279         74.5286         198.484 
       0.736433         184.991         71.7872         194.053 
       0.748747         181.102         69.1797         190.164 
       0.761037          178.38         66.7079         186.502 
       0.773197         174.954         64.3825           184.3 
       0.785376         172.994         62.1653         180.327 
       0.797761          169.12         60.0182         178.002 
       0.810096         165.729         57.9811         174.783 
       0.822371         160.044         56.0484         171.862 
       0.834626           158.6         54.2073         168.985 
       0.846916         156.543         52.4446         166.491 
       0.859215         155.024         50.7597         163.863 
       0.871383         151.557          49.166         161.133 
        0.88363         149.174         47.6316         159.324 
       0.895928         146.115         46.1571         157.026 
       0.908253         142.181         44.7426          154.18 
       0.920535         141.611         43.3925         152.202 
       0.932774         137.202          42.103         149.767 
        0.94508         136.191         40.8596         148.005 
       0.957324         135.094         39.6728         145.821 
        0.96953         134.015          38.537         143.505 
       0.981769         129.818          37.443         142.221 
       0.994071         129.114         36.3865         140.234 
         1.0064         125.959         35.3691         138.135 
        1.01868          124.67         34.3938         136.606 
        1.03092         122.605         33.4598         134.977 
         1.0432         120.435         32.5572         133.221 
        1.05553         117.884         31.6846         131.834 
        1.06777         117.674         30.8504         130.385 
           1.08         115.255         30.0473         128.636 
        1.09227         113.839         29.2702         127.252 
         1.1046         111.864         28.5179         125.676 
         1.1169          110.56         27.7934          123.98 
        1.12915         108.859         27.0978         122.685 
        1.14142         107.181         26.4246         121.131 
        1.15365         105.295         25.7764         119.811 
        1.16585         103.998         25.1517         118.348 
        1.17807         102.361         24.5471         117.403 
        1.19037         102.129         23.9584         116.155 
        1.20276         99.8774         23.3851         114.755 
        1.21504         99.0904         22.8352          113.44 
        1.22728         96.9873         22.3052         112.237 
        1.23954         96.2906         21.7909         111.058 
        1.25184         94.2826         21.2919         109.939 
        1.26414         93.1877         20.8084          108.83 
        1.27632         92.3397         20.3442         108.176 
         1.2886         90.7299          19.891         106.578 
        1.30093         89.2659           19.45         105.416 
        1.31316         88.5686         19.0257         104.527 
        1.32541         87.5572         18.6139          103.59 
        1.33772         86.3161         18.2121         102.511 
        1.35005         85.4721          17.822         101.451 
        1.36225         84.2445         17.4472         100.492 
        1.37447         82.4521         17.0826         99.4126 
        1.38676         82.4012         16.7267         98.3247 
        1.39907         80.6813         16.3804         97.5969 
        1.41133         79.3941         16.0454         96.8281 
        1.42358         78.5482         15.7201          95.695 
        1.43591         77.9842         15.4017         94.7697 
        1.44818         76.9281         15.0938         93.8963 
        1.46037         75.8348         14.7962            93.1 
        1.47263         74.6209          14.505         92.3579 
        1.48494         74.0505         14.2205         91.4237 
        1.49724         72.7789         13.9439          90.462 
        1.50952         72.0789         13.6752         89.6359 
        1.52178         71.1901          13.414         88.9206 
        1.53409         70.6224         13.1586         88.1458 
        1.54637         68.8855         12.9104         87.2948 
        1.55858         68.2883           12.67         86.4755 
        1.57081         67.6236         12.4354          85.799 
        1.58313         66.5646         12.2053         85.0698 
        1.59544         65.7969         11.9812         84.2498 
        1.60767         65.1081         11.7641         83.5322 
        1.61994          64.194         11.5517         82.9602 
        1.63225          63.269          11.344          82.007 
        1.64452         62.5903         11.1421          81.421 
        1.65676         61.6468         10.9457         80.6627 
          1.669         61.2397         10.7539         80.0243 
        1.68133          60.585         10.5655         79.2954 
        1.69363         59.5469         10.3822         78.7291 
        1.70585         59.1553         10.2044         78.0118 
        1.71809         57.8984         10.0304         77.4518 
        1.73038         57.3816         9.85988         76.7125 
        1.74268         56.6292         9.69326         76.1056 
        1.75493         56.0503         9.53126         75.4387 
        1.76714         55.3391         9.37337         74.7934 
        1.77942         55.0251         9.21827         74.2014 
        1.79173         54.0477         9.06628         73.5209 
        1.80402         53.5218         8.91804         73.0162 
         1.8163         52.8525         8.77319         72.3217 
         1.8286         52.0628         8.63132          71.879 
         1.8409         51.3691         8.49271         71.1851 
        1.85315         50.7814         8.35761         70.7527 
        1.86537         50.2374         8.22572         70.1251 
        1.87765         49.6948         8.09619         69.4579 
        1.88995          49.068         7.96914         68.9351 
        1.90221         48.6701         7.84526         68.3795 
        1.91445         47.9067         7.72422          67.903 
        1.92674          47.423         7.60532         67.3263 
        1.93902         46.8639         7.48891          66.757 
        1.95124         46.4727         7.37557         66.3375 
         1.9635         45.6299         7.26428         65.7261 
        1.97583         45.2127         7.15458         65.2976 
        1.98812         44.5095         7.04757         64.7237 
        2.00039         44.2408         6.94297         64.2099 
        2.01264         43.4938         6.84058          63.751 
        2.02492         43.1152         6.74012         63.2726 
        2.03717          42.493         6.64183         62.7245 
        2.04942         41.9886         6.54564           62.29 
        2.06171         41.5687         6.45103         61.7385 
        2.07397         40.9648          6.3585         61.3369 
        2.08629         40.5425         6.26739          60.816 
        2.09857         40.2185         6.17829         60.4133 
        2.11081          39.561         6.09129         59.8985 
        2.12309         39.1905         6.00576         59.4507 
        2.13538          38.719         5.92174         59.0352 
        2.14763         38.3711         5.83962         58.5854 
        2.15986         38.1494         5.75925         58.1199 
        2.17214         37.3984         5.68006         57.7691 
        2.18443          37.201         5.60228          57.256 
        2.19671         36.5559         5.52606         56.8167 
        2.20898         36.1163         5.45135         56.3865 
        2.22126         35.8517         5.37793          55.963 
        2.23354         35.3875          5.3059           55.61 
         2.2458         35.0994         5.23531         55.1775 
        2.25807         34.5022         5.16594         54.7408 
        2.27035         34.1632         5.09777         54.3549 
        2.28263         33.7457         5.03087         53.9647 
         2.2949         33.3889         4.96519          53.579 
        2.30718         33.0843         4.90068         53.1841 
        2.31946         32.6766         4.83727         52.8071 
        2.33169         32.3894         4.77527          52.399 
        2.34393         31.9107         4.71425         51.9976 
        2.35622         31.5705         4.65411         51.6644 
        2.36847         31.2065         4.59518         51.2523 
        2.38076         30.9956          4.5371         50.9302 
        2.39305         30.6147         4.48004         50.5671 
        2.40534          30.308         4.42395         50.1328 
        2.41762         29.9158         4.36883         49.7936 
        2.42989         29.6039         4.31474         49.4657 
        2.44216         29.3173         4.26157         49.1059 
         2.4544         29.0172         4.20942         48.7745 
        2.46667          28.554         4.15802         48.3986 
        2.47897         28.3699         4.10735         48.0808 
        2.49124         28.0939         4.05767         47.7242 
        2.50349          27.738         4.00889         47.4252 
        2.51578         27.3759         3.96075         47.0952 
        2.52805         27.1696          3.9135         46.7392 
        2.54029         26.9919         3.86713         46.4236 
        2.55257         26.6546         3.82138         46.1044 
        2.56487         26.4387         3.77628         45.7823 
        2.57716         26.1419         3.73197          45.468 
        2.58942         25.8387         3.68847         45.1675 
        2.60167         25.5558          3.6457         44.8216 
        2.61395         25.3339         3.60356         44.5238 
        2.62624         25.0801         3.56201          44.233 
        2.63849         24.8967         3.52126          43.924 
        2.65073         24.6202         3.48118         43.6025 
        2.66302         24.2915         3.44159         43.3331 
         2.6753          24.117         3.40264         43.0361 
        2.68756         23.8927         3.36437         42.7547 
        2.69983         23.7221         3.32666         42.4508 
        2.71213         23.4807         3.28945         42.1741 
        2.72441         23.3099         3.25288         41.8676 
        2.73665         23.0419         3.21695         41.5906 
         2.7489         22.8541         3.18158         41.3178 
        2.76118         22.6879         3.14664         41.0127 
        2.77349         22.5381         3.11214         40.7664 
        2.78576         22.3524         3.07829         40.4942 
        2.79802         22.0426         3.04496         40.2204 
        2.81031         21.9473         3.01205         39.9729 
        2.82259         21.8114         2.97964         39.6946 
        2.83483         21.5686         2.94783         39.4204 
         2.8471         21.5031         2.91642         39.1588 
         2.8594         21.2746         2.88537         38.9153 
         2.8717         21.0737         2.85479         38.6498 
        2.88396         20.9229         2.82476         38.3849 
        2.89619         20.8658         2.79522         38.1414 
        2.90847         20.6939         2.76599         37.8867 
        2.92072         20.5176         2.73722         37.6603 
        2.93299         20.4618         2.70886         37.4115 
        2.94526         20.3347         2.68087         37.1663 
        2.95753         20.1923         2.65328         36.9309 
        2.96982         20.1511         2.62603         36.6934 
        2.98209         19.9684         2.59922         36.4612 
        2.99436         19.9522         2.57277         36.2283 
        3.00666         19.7921         2.54663         35.9896 
        3.01894         19.7384         2.52092         35.7467 
        3.03119         19.5843         2.49559         35.5133 
        3.04345         19.5616         2.47061         35.2971 
        3.05573         19.4806         2.44592         35.0778 
          3.068         19.4443         2.42159         34.8399 
        3.08026         19.4292         2.39762         34.6209 
        3.09254         19.3178         2.37393         34.4129 
        3.10483         19.2823         2.35056         34.2006 
         3.1171         19.2535         2.32753         33.9841 
        3.12933         19.2101         2.30488         33.7681 
        3.14159         19.1727         2.28247          33.551 
