# k  (h/Mpc)    Pcb(k)  (Mpc/h)^3    Pcb_linear(k) (Mpc/h)^3    Pcb_NL(k) (Mpc/h)^3   ShotnoiseSubtracted = false
      0.0156606         488.561         489.208          486.97 
      0.0273761         426.137         423.541          422.72 
      0.0384619         323.613         319.272         319.307 
      0.0498308         254.803         251.203         251.414 
      0.0625568         215.094         213.531         213.464 
      0.0751274         183.957         181.438         181.193 
      0.0867833         147.385         146.087         146.066 
      0.0984825         117.985         115.614         115.786 
       0.111151         98.5591         96.5393          96.687 
       0.123864         88.4652         87.0036         87.0401 
       0.135742         79.3657         78.2392         78.2432 
        0.14762         67.5599         66.8994         67.0216 
       0.160083         56.2785         55.7651         55.9451 
       0.172465         49.2299         48.6727         48.8782 
       0.184281         45.5083         44.8708          45.067 
       0.196406         41.6979         41.4382         41.5674 
       0.209011         37.2728         36.8697         37.0313 
       0.221538         32.7791         32.2208           32.47 
       0.233611         29.3402         28.8293         29.1071 
       0.245665          27.307         26.6084         26.8478 
       0.258103         24.8923         24.7702         25.0021 
       0.270422          23.157          22.761         22.9819 
       0.282519         21.0153         20.6569         20.9038 
       0.294636         19.4505         18.8208         19.0833 
       0.306978         17.5756         17.4124         17.6815 
       0.319417         16.6043         16.2796         16.5392 
        0.33169         15.4563         15.1953         15.4439 
       0.343948         14.4506         14.0793         14.3261 
       0.356249         13.2521         13.0328         13.3203 
       0.368458         12.4672         12.1562         12.4078 
        0.38068          11.636         11.4231         11.6734 
       0.392856         10.9525         10.7539         11.0065 
       0.405069         10.3352         10.0996         10.3367 
       0.417459         9.54614           9.466         9.71824 
       0.429752         9.05461         8.89725         9.14452 
       0.441978         8.59104         8.39808         8.66146 
       0.454294         8.06139         7.94478         8.19286 
        0.46658         7.75049         7.51946         7.76089 
       0.478753         7.28093         7.11822          7.3574 
       0.490964         6.96412         6.74133         6.99727 
       0.503334         6.62576         6.39345         6.63097 
       0.515665         6.23763         6.07623         6.32724 
       0.527909          5.9797         5.78339         6.01431 
       0.540159         5.65984         5.50633         5.73273 
        0.55248         5.34986         5.24344         5.45868 
       0.564743         5.20416         5.00002         5.23388 
        0.57686         4.96023          4.7763         4.99957 
       0.589077         4.67396         4.56511         4.79745 
       0.601441         4.49261         4.36429         4.59057 
        0.61382         4.30092         4.17495         4.39244 
       0.626067          4.1066         3.99827         4.21307 
       0.638306         3.95536         3.83189         4.04225 
       0.650632         3.82659         3.67425          3.8882 
       0.662899         3.66191         3.52653         3.73216 
       0.675076         3.48232         3.38809          3.5939 
       0.687267         3.34669         3.25691         3.45112 
       0.699615         3.26026         3.13103         3.32306 
       0.711937         3.11161         3.01204         3.21003 
       0.724148         3.02813         2.90024         3.09292 
       0.736433         2.88805         2.79356          2.9776 
       0.748747         2.78995         2.69209         2.88452 
       0.761037         2.69138          2.5959         2.78094 
       0.773197          2.5863         2.50541         2.69343 
       0.785376         2.49336         2.41913         2.60152 
       0.797761         2.41039         2.33558         2.51067 
       0.810096         2.35182          2.2563         2.43806 
       0.822371         2.28411         2.18109         2.35373 
       0.834626         2.20635         2.10945         2.27811 
       0.846916         2.12889         2.04086         2.21606 
       0.859215          2.0411         1.97529         2.14991 
       0.871383          1.9804         1.91327          2.0817 
        0.88363         1.92374         1.85356         2.02119 
       0.895928         1.87634         1.79618         1.95979 
       0.908253         1.81801         1.74114         1.90397 
       0.920535         1.76502         1.68859          1.8466 
       0.932774         1.70706         1.63841         1.79159 
        0.94508         1.66221         1.59003         1.74261 
       0.957324         1.61818         1.54385         1.69898 
        0.96953         1.56253         1.49965         1.65143 
       0.981769         1.51267         1.45708         1.60268 
       0.994071         1.47777         1.41596         1.56637 
         1.0064         1.43511         1.37637         1.52193 
        1.01868         1.39202         1.33842         1.48323 
        1.03092         1.36958         1.30207         1.44182 
         1.0432          1.3261         1.26695         1.40611 
        1.05553         1.28951         1.23299          1.3729 
        1.06777         1.25265         1.20053         1.33864 
           1.08         1.22717         1.16927         1.30462 
        1.09227         1.18521         1.13904         1.27183 
         1.1046         1.15841         1.10976         1.24295 
         1.1169         1.12815         1.08157         1.21302 
        1.12915         1.10071          1.0545         1.18399 
        1.14142         1.07876          1.0283         1.15649 
        1.15365         1.05279         1.00308         1.13007 
        1.16585         1.02595        0.978766         1.10308 
        1.17807         1.00943        0.955237         1.08002 
        1.19037        0.970143        0.932329         1.05397 
        1.20276        0.952854        0.910019         1.02852 
        1.21504        0.933236        0.888619         1.01042 
        1.22728        0.916431        0.867998        0.984515 
        1.23954        0.892784        0.847984        0.966293 
        1.25184        0.876826        0.828565        0.943414 
        1.26414        0.855494        0.809748        0.923326 
        1.27632        0.830119        0.791686        0.903769 
         1.2886        0.812289        0.774049        0.883633 
        1.30093        0.791299        0.756889        0.868503 
        1.31316        0.769326        0.740375        0.849409 
        1.32541        0.757272        0.724353         0.83331 
        1.33772        0.744295        0.708717        0.816394 
        1.35005        0.731464        0.693534         0.80043 
        1.36225        0.713847        0.678951        0.783618 
        1.37447        0.698787         0.66476        0.769734 
        1.38676        0.685649        0.650912        0.753428 
        1.39907        0.671183        0.637435         0.73959 
        1.41133        0.654438          0.6244        0.725588 
        1.42358        0.646302        0.611742        0.710313 
        1.43591        0.631903        0.599349        0.699143 
        1.44818        0.619462        0.587368        0.686553 
        1.46037        0.605682        0.575787        0.672189 
        1.47263        0.594486        0.564454        0.660812 
        1.48494          0.5838        0.553384        0.649551 
        1.49724        0.572609         0.54262        0.637971 
        1.50952        0.560224        0.532165        0.624186 
        1.52178        0.549809           0.522        0.613829 
        1.53409        0.540753        0.512062        0.603571 
        1.54637         0.52742        0.502403        0.592376 
        1.55858         0.52016        0.493048        0.582216 
        1.57081        0.513114        0.483919        0.571847 
        1.58313        0.501818        0.474964        0.562887 
        1.59544        0.493863        0.466242        0.552797 
        1.60767        0.485087        0.457795        0.543655 
        1.61994        0.474502        0.449528        0.535374 
        1.63225        0.465636        0.441448        0.526516 
        1.64452          0.4596         0.43359        0.517188 
        1.65676        0.452454        0.425947        0.509074 
          1.669        0.444619        0.418484        0.500428 
        1.68133        0.435535        0.411152        0.492754 
        1.69363        0.428103        0.404018        0.485106 
        1.70585        0.421444        0.397098        0.477033 
        1.71809        0.413548        0.390327        0.469466 
        1.73038        0.407103        0.383693        0.462453 
        1.74268        0.398748        0.377209        0.454543 
        1.75493        0.395586        0.370904        0.448562 
        1.76714        0.387063         0.36476        0.441482 
        1.77942        0.381405        0.358725         0.43487 
        1.79173        0.375434         0.35281        0.427386 
        1.80402        0.368861        0.347041        0.421621 
         1.8163        0.363951        0.341405        0.414229 
         1.8286        0.356048        0.335884        0.409761 
         1.8409        0.352211         0.33049        0.402799 
        1.85315        0.347046        0.325232        0.396924 
        1.86537        0.339353          0.3201        0.391159 
        1.87765        0.335069        0.315059        0.385717 
        1.88995        0.331385        0.310115        0.380374 
        1.90221        0.326458        0.305295        0.374666 
        1.91445        0.320816        0.300584        0.369599 
        1.92674        0.315642        0.295957        0.364274 
        1.93902         0.31012        0.291427        0.358867 
        1.95124         0.30568        0.287017        0.353926 
         1.9635        0.302297        0.282686        0.348907 
        1.97583         0.29796        0.278417        0.344028 
        1.98812        0.293445        0.274253        0.339868 
        2.00039        0.290462        0.270182        0.334796 
        2.01264        0.285957        0.266198        0.330547 
        2.02492        0.282102        0.262288        0.325971 
        2.03717        0.276508        0.258464        0.321663 
        2.04942        0.274096        0.254721        0.317253 
        2.06171        0.269801        0.251039        0.313019 
        2.07397        0.265468        0.247438        0.309063 
        2.08629        0.262931        0.243893        0.304881 
        2.09857        0.258744        0.240425        0.301003 
        2.11081        0.254855         0.23704        0.296631 
        2.12309        0.251833        0.233711        0.293522 
        2.13538        0.248234        0.230442        0.289509 
        2.14763        0.245794        0.227246        0.285995 
        2.15986        0.241661        0.224118        0.282448 
        2.17214        0.238852        0.221037        0.278817 
        2.18443        0.236433         0.21801         0.27528 
        2.19671        0.232838        0.215044        0.272121 
        2.20898         0.23063        0.212137        0.268455 
        2.22126        0.226781         0.20928        0.265419 
        2.23354        0.224809        0.206477         0.26227 
         2.2458        0.221999         0.20373        0.258441 
        2.25807        0.219406         0.20103        0.255825 
        2.27035        0.216116        0.198377        0.252731 
        2.28263        0.213597        0.195774        0.249811 
         2.2949        0.211482        0.193218        0.246501 
        2.30718        0.208335        0.190708        0.243709 
        2.31946         0.20713         0.18824         0.24094 
        2.33169        0.203469        0.185827        0.238078 
        2.34393        0.201171        0.183453        0.235544 
        2.35622        0.199356        0.181112        0.232613 
        2.36847        0.197652        0.178819        0.229996 
        2.38076        0.195129        0.176559        0.227429 
        2.39305        0.192524        0.174339         0.22475 
        2.40534          0.1903        0.172156        0.222185 
        2.41762        0.188924        0.170011        0.219697 
        2.42989        0.186178        0.167906        0.217145 
        2.44216        0.184238        0.165837         0.21483 
         2.4544        0.182379        0.163808         0.21252 
        2.46667        0.180237        0.161807        0.210003 
        2.47897         0.17822        0.159836        0.207662 
        2.49124        0.176467        0.157902        0.205451 
        2.50349        0.174746        0.156004        0.203107 
        2.51578        0.172666        0.154131        0.200874 
        2.52805        0.171435        0.152292         0.19879 
        2.54029        0.170075        0.150488        0.196729 
        2.55257        0.168008        0.148707        0.194669 
        2.56487        0.166394        0.146952        0.192577 
        2.57716        0.164948        0.145228        0.190465 
        2.58942        0.163162        0.143535        0.188377 
        2.60167        0.161764        0.141871        0.186479 
        2.61395        0.160407        0.140231        0.184522 
        2.62624        0.158728        0.138614        0.182636 
        2.63849        0.157429        0.137028        0.180753 
        2.65073        0.155611        0.135469         0.17888 
        2.66302        0.154669        0.133928        0.176962 
         2.6753        0.153147        0.132412        0.175194 
        2.68756        0.152253        0.130923        0.173451 
        2.69983        0.150577        0.129455         0.17147 
        2.71213        0.149101        0.128007        0.169906 
        2.72441        0.147841        0.126584        0.168286 
        2.73665        0.146847        0.125186        0.166576 
         2.7489        0.146542         0.12381        0.164928 
        2.76118        0.145239         0.12245        0.163262 
        2.77349        0.143476        0.121107        0.161739 
        2.78576        0.142877         0.11979         0.16026 
        2.79802        0.141432        0.118493        0.158372 
        2.81031         0.14072        0.117213        0.156966 
        2.82259        0.139542        0.115951        0.155454 
        2.83483        0.138389        0.114713        0.153847 
         2.8471        0.137661        0.113491        0.152565 
         2.8594        0.137194        0.112283        0.151135 
         2.8717        0.135972        0.111093        0.149572 
        2.88396        0.135545        0.109924        0.148232 
        2.89619        0.134668        0.108775        0.146881 
        2.90847         0.13391        0.107637         0.14545 
        2.92072        0.132739        0.106518        0.144016 
        2.93299        0.132266        0.105414        0.142694 
        2.94526        0.131546        0.104325        0.141428 
        2.95753        0.130497        0.103251        0.140091 
        2.96982        0.130211        0.102191        0.138717 
        2.98209        0.129264        0.101148        0.137461 
        2.99436        0.129205        0.100118        0.136223 
        3.00666        0.128707       0.0991011        0.134909 
        3.01894        0.128218       0.0981003        0.133758 
        3.03119        0.127592       0.0971147        0.132589 
        3.04345        0.127094       0.0961426        0.131391 
        3.05573        0.127133       0.0951818        0.130212 
          3.068         0.12665       0.0942352        0.129015 
        3.08026        0.125982       0.0933024        0.127937 
        3.09254        0.126193       0.0923805        0.126801 
        3.10483        0.125822       0.0914709        0.125696 
         3.1171        0.125419       0.0905748        0.124546 
        3.12933        0.125291       0.0896932        0.123322 
        3.14159         0.12489       0.0888214        0.122376 
