# k  (h/Mpc)    Pcb(k)  (Mpc/h)^3    Pcb_linear(k) (Mpc/h)^3    Pcb_NL(k) (Mpc/h)^3   ShotnoiseSubtracted = false
      0.0156606         20544.9         20652.4         20492.9 
      0.0273761         17619.9         17855.7         17669.2 
      0.0384619         13329.7         13451.9         13287.8 
      0.0498308         10301.4         10580.7           10416 
      0.0625568         8703.61         8992.13         8845.15 
      0.0751274         7746.32         7639.71         7432.81 
      0.0867833         6004.87         6150.78         6087.21 
      0.0984825         5067.68         4867.53          4925.7 
       0.111151         4331.64         4064.28         4135.76 
       0.123864         3882.07         3662.73         3720.69 
       0.135742         3537.14          3293.7         3351.94 
        0.14762         3077.02         2816.27         2970.94 
       0.160083          2609.9         2347.52         2537.61 
       0.172465         2328.09         2048.93         2290.78 
       0.184281         2113.39         1888.87         2131.95 
       0.196406         1989.18         1744.36         1962.73 
       0.209011         1859.15         1552.04          1778.5 
       0.221538         1675.19         1356.33          1658.9 
       0.233611         1602.75         1213.56         1553.35 
       0.245665         1454.41         1120.07         1433.99 
       0.258103         1435.91         1042.69         1353.65 
       0.270422         1282.04         958.112         1271.08 
       0.282519         1208.85          869.54         1202.04 
       0.294636         1189.45         792.247         1138.05 
       0.306978         1084.41         732.961         1090.08 
       0.319417         1061.48         685.276         1027.62 
        0.33169         998.683         639.632         972.706 
       0.343948         957.596         592.656         942.445 
       0.356249         906.888         548.601         907.165 
       0.368458         873.083         511.701         866.036 
        0.38068         857.156         480.842         832.676 
       0.392856         813.252         452.673         803.213 
       0.405069         772.993         425.129         777.703 
       0.417459         743.679         398.459         749.134 
       0.429752         737.814         374.519         722.936 
       0.441978         712.194         353.506         704.389 
       0.454294         680.295         334.425         675.507 
        0.46658         661.588         316.522          661.45 
       0.478753         648.375         299.632         641.162 
       0.490964          623.49         283.767         621.475 
       0.503334         595.967         269.123         607.351 
       0.515665          594.38          255.77         593.885 
       0.527909         570.406         243.443          580.85 
       0.540159         556.311         231.781         565.855 
        0.55248         545.545         220.715         551.113 
       0.564743         541.398         210.468         541.739 
        0.57686          522.43         201.051         527.287 
       0.589077         511.339         192.161         515.589 
       0.601441         501.635         183.708         505.346 
        0.61382          488.47         175.738         496.563 
       0.626067         483.093         168.301         487.038 
       0.638306         465.166         161.298         477.326 
       0.650632         460.746         154.662         465.534 
       0.662899         456.932         148.444         460.039 
       0.675076         441.261         142.616         453.354 
       0.687267         429.403         137.095         442.562 
       0.699615         426.783         131.796         435.584 
       0.711937         419.342         126.787         427.529 
       0.724148         405.502         122.081         421.618 
       0.736433         396.122          117.59         413.977 
       0.748747         391.238         113.319          406.59 
       0.761037         384.186          109.27         401.475 
       0.773197         379.226         105.461         395.133 
       0.785376         373.895         101.829         389.297 
       0.797761         363.244         98.3124         383.265 
       0.810096         360.311         94.9754         378.478 
       0.822371         349.555         91.8096         372.285 
       0.834626         347.055         88.7939         367.735 
       0.846916         340.683         85.9065         362.032 
       0.859215          338.59         83.1466         356.819 
       0.871383         330.475         80.5359          352.02 
        0.88363         327.974         78.0225         348.433 
       0.895928         322.325         75.6073          342.95 
       0.908253         314.327         73.2903         337.414 
       0.920535         310.039         71.0786         333.483 
       0.932774         304.164         68.9664         328.587 
        0.94508         300.009         66.9298         325.212 
       0.957324         298.125         64.9858         320.819 
        0.96953         294.081         63.1253         316.873 
       0.981769         286.564         61.3333         313.448 
       0.994071         285.641         59.6026         309.576 
         1.0064         279.919         57.9361         305.063 
        1.01868         276.915         56.3385         301.169 
        1.03092         268.921         54.8085         298.479 
         1.0432         266.062         53.3301         294.865 
        1.05553         263.005         51.9007         290.864 
        1.06777         260.794         50.5343         287.701 
           1.08         254.765         49.2187          284.45 
        1.09227         253.265         47.9458          281.04 
         1.1046          248.94         46.7134         278.317 
         1.1169         243.348         45.5267         274.572 
        1.12915         240.305         44.3873         271.961 
        1.14142         235.902         43.2846         268.629 
        1.15365         233.197         42.2228         265.796 
        1.16585         229.188         41.1995         262.697 
        1.17807          226.91         40.2091         260.136 
        1.19037         223.898         39.2448         257.857 
        1.20276         220.858         38.3057         254.493 
        1.21504         216.208         37.4049         251.682 
        1.22728          212.97         36.5369         248.664 
        1.23954         212.007         35.6945         246.543 
        1.25184         207.508         34.8771          243.87 
        1.26414         203.538          34.085         241.504 
        1.27632         202.531         33.3247         239.436 
         1.2886         201.062         32.5823          236.59 
        1.30093         195.792           31.86         233.727 
        1.31316         192.034         31.1649         231.271 
        1.32541         190.961         30.4904         229.091 
        1.33772         188.371         29.8322         226.864 
        1.35005         185.853         29.1931         224.315 
        1.36225         182.526         28.5793         222.226 
        1.37447         179.975          27.982         219.498 
        1.38676         178.126          27.399         217.873 
        1.39907         175.468         26.8318         215.327 
        1.41133         172.444         26.2831         213.182 
        1.42358         170.468         25.7502         211.172 
        1.43591         168.504         25.2286         209.144 
        1.44818         165.484         24.7243         207.064 
        1.46037         163.895         24.2368         204.861 
        1.47263         161.116         23.7597         203.095 
        1.48494         159.275         23.2938         200.603 
        1.49724         156.987         22.8407         199.222 
        1.50952         154.107         22.4006         197.098 
        1.52178         153.185         21.9727         194.969 
        1.53409         150.075         21.5544          193.31 
        1.54637         148.214         21.1478         191.714 
        1.55858         146.215          20.754         189.625 
        1.57081         143.932         20.3697         187.925 
        1.58313         142.043         19.9928         186.008 
        1.59544          139.55         19.6257         184.351 
        1.60767         138.493         19.2701         182.689 
        1.61994         136.049         18.9221         181.014 
        1.63225         134.241          18.582         179.097 
        1.64452         131.982         18.2512         177.496 
        1.65676         130.188         17.9295         175.969 
          1.669         129.054         17.6154         174.361 
        1.68133         126.492         17.3067          172.77 
        1.69363         124.486         17.0064         171.251 
        1.70585           122.5         16.7152         169.726 
        1.71809         121.041         16.4302         167.894 
        1.73038          120.02         16.1509         166.546 
        1.74268         118.857          15.878         164.932 
        1.75493         115.745         15.6126         163.556 
        1.76714         115.281          15.354         162.181 
        1.77942         113.145         15.0999         160.573 
        1.79173         111.397         14.8509         159.195 
        1.80402         110.395         14.6081         157.781 
         1.8163         108.112         14.3708         156.445 
         1.8286         106.826         14.1385          154.97 
         1.8409         106.019         13.9114         153.528 
        1.85315         103.809         13.6901         152.284 
        1.86537         102.994         13.4741         151.022 
        1.87765         101.755         13.2619         149.732 
        1.88995         99.9643         13.0538         148.342 
        1.90221          98.727         12.8509         147.149 
        1.91445         97.4848         12.6526         145.736 
        1.92674         95.9679         12.4578         144.493 
        1.93902         94.6922         12.2671         143.195 
        1.95124           93.59         12.0815          141.99 
         1.9635         92.0511         11.8992         140.737 
        1.97583         90.6946         11.7195         139.566 
        1.98812         89.5578         11.5442         138.498 
        2.00039         88.5283         11.3729         137.207 
        2.01264         87.4322         11.2051          136.08 
        2.02492         86.5215         11.0406         134.856 
        2.03717         85.0342         10.8796         133.771 
        2.04942         84.3499          10.722         132.688 
        2.06171         82.5411          10.567         131.533 
        2.07397         81.7302         10.4155         130.494 
        2.08629         80.7059         10.2662          129.36 
        2.09857         79.5969         10.1203         128.317 
        2.11081         78.2603         9.97778         127.133 
        2.12309         77.2096         9.83767         126.212 
        2.13538         76.2267         9.70006         125.098 
        2.14763         75.2743         9.56554           124.1 
        2.15986         74.2139         9.43388         123.005 
        2.17214         73.4033         9.30416         122.022 
        2.18443         72.4379         9.17677          121.19 
        2.19671         71.3562         9.05191         120.146 
        2.20898         70.6529         8.92952         119.082 
        2.22126         69.6139         8.80927         118.175 
        2.23354         68.8505         8.69128         117.236 
         2.2458         67.5715         8.57565         116.293 
        2.25807         66.8552         8.46202         115.338 
        2.27035         65.9332         8.35036         114.396 
        2.28263         65.0829         8.24076         113.512 
         2.2949         64.0938         8.13319         112.621 
        2.30718         63.1656         8.02751         111.734 
        2.31946         62.7423         7.92365         110.776 
        2.33169         61.6269         7.82208         109.937 
        2.34393         61.1712         7.72213         109.144 
        2.35622         60.0155         7.62361         108.252 
        2.36847         59.5948         7.52709         107.514 
        2.38076         58.5916         7.43195         106.535 
        2.39305         57.9775         7.33848         105.817 
        2.40534         57.2122         7.24661         104.942 
        2.41762         56.5472         7.15633         104.088 
        2.42989         55.6833         7.06772         103.351 
        2.44216         55.1298         6.98062         102.489 
         2.4544         54.2849          6.8952         101.736 
        2.46667         53.6882           6.811         100.951 
        2.47897            53.1         6.72801         100.141 
        2.49124         52.5471         6.64663         99.4182 
        2.50349         52.0267         6.56672         98.6564 
        2.51578         51.2211         6.48788         98.0033 
        2.52805          50.645         6.41047         97.1769 
        2.54029         50.1392         6.33452         96.4154 
        2.55257         49.4846         6.25957         95.7558 
        2.56487         49.2008          6.1857         95.0689 
        2.57716          48.433         6.11312         94.3503 
        2.58942         47.7724         6.04186         93.6458 
        2.60167         47.2363         5.97181         92.9628 
        2.61395         46.7567         5.90277         92.2763 
        2.62624         46.1213         5.83472         91.5398 
        2.63849         45.6161         5.76797         90.8887 
        2.65073         45.1828         5.70232         90.2275 
        2.66302         44.6454         5.63747         89.5422 
         2.6753         44.2139         5.57366          88.925 
        2.68756         43.7609         5.51097         88.2514 
        2.69983         43.1955          5.4492         87.6437 
        2.71213         42.7891         5.38825         87.0145 
        2.72441         42.3495         5.32835         86.3752 
        2.73665         41.8299         5.26949         85.7775 
         2.7489         41.4101         5.21156          85.171 
        2.76118         41.0302         5.15432         84.5495 
        2.77349          40.572         5.09781         83.9523 
        2.78576         40.1998         5.04236         83.3243 
        2.79802         39.8585         4.98777         82.8121 
        2.81031         39.3101         4.93386         82.2041 
        2.82259         39.1268         4.88077         81.5936 
        2.83483         38.6163         4.82866         81.0707 
         2.8471         38.3064         4.77721          80.482 
         2.8594         37.9484         4.72635         79.9002 
         2.8717         37.7686         4.67626         79.3809 
        2.88396         37.3329         4.62707         78.8205 
        2.89619         37.1192         4.57868         78.2282 
        2.90847         36.7119          4.5308         77.6669 
        2.92072         36.5003         4.48369         77.1835 
        2.93299         36.3434         4.43722         76.6723 
        2.94526         35.9258         4.39137         76.1371 
        2.95753         35.7016         4.34618         75.5999 
        2.96982         35.3846         4.30155         75.0943 
        2.98209         35.1713         4.25764         74.5992 
        2.99436         34.8926          4.2143         74.0572 
        3.00666          34.855         4.17149         73.5623 
        3.01894         34.4773         4.12936         73.0656 
        3.03119         34.4442         4.08788         72.5952 
        3.04345         34.2733         4.04696         72.1249 
        3.05573          33.931         4.00651         71.6344 
          3.068         33.8633         3.96667         71.1573 
        3.08026         33.6858          3.9274         70.6777 
        3.09254         33.6167          3.8886         70.2183 
        3.10483         33.5764         3.85031         69.7613 
         3.1171         33.3988         3.81259         69.2951 
        3.12933         33.2636         3.77548         68.8317 
        3.14159         33.1375         3.73878         68.3642 
