# k  (h/Mpc)    P(k)  (Mpc/h)^3    P_linear(k)  (Mpc/h)^3     P_NL(k)  ShotnoiseSubtracted = false
      0.0156606         4867.27         4968.76         4942.57 
      0.0273761         4212.84         4292.18         4276.29 
      0.0384619         3198.76         3232.31         3223.88 
      0.0498308         2499.69         2541.81          2535.2 
      0.0625568         2108.58         2159.88         2152.37 
      0.0751274         1836.49         1834.87         1822.72 
      0.0867833         1448.93         1477.19         1474.98 
      0.0984825         1183.26         1168.95          1175.6 
       0.111151         993.978         976.023         982.692 
       0.123864         892.979         879.572         885.059 
       0.135742         803.879          790.94         796.549 
        0.14762         684.767         676.284         689.531 
       0.160083         568.525         563.715         578.755 
       0.172465         503.292         492.011          510.34 
       0.184281          466.28         453.573         473.015 
       0.196406         425.396         418.871         434.194 
       0.209011          385.88         372.686         389.737 
       0.221538         344.832         325.691         349.525 
       0.233611         313.297         291.408         318.005 
       0.245665          294.13         268.957         292.693 
       0.258103         267.116         250.376          274.02 
       0.270422         249.688         230.066         253.279 
       0.282519         227.024         208.797         233.316 
       0.294636         220.085         190.237         216.106 
       0.306978         194.202         176.001         202.842 
       0.319417         185.808          164.55         190.404 
        0.33169         173.162          153.59         178.566 
       0.343948         165.133          142.31         168.161 
       0.356249         152.569         131.731         159.297 
       0.368458         146.467          122.87         148.914 
        0.38068         138.245         115.461         141.215 
       0.392856         128.911         108.697         134.587 
       0.405069         122.531         102.083         127.774 
       0.417459         115.996          95.679         120.935 
       0.429752         111.395         89.9303         115.376 
       0.441978         106.577         84.8845         110.999 
       0.454294         99.1371         80.3027         105.189 
        0.46658         99.0951         76.0036         101.011 
       0.478753         92.3842         71.9479         96.9822 
       0.490964         89.5362         68.1381           93.13 
       0.503334         85.6951         64.6222         89.3846 
       0.515665          82.372         61.4159         86.7752 
       0.527909         79.2185         58.4558         82.4245 
       0.540159          76.379         55.6552         79.7516 
        0.55248         72.3396          52.998         76.7125 
       0.564743         70.9033         50.5378         74.3724 
        0.57686          68.697         48.2765         71.8077 
       0.589077         65.1652         46.1418         69.7514 
       0.601441         63.3892         44.1121          67.553 
        0.61382         61.5846         42.1983         65.1625 
       0.626067         59.0265         40.4125         63.4026 
       0.638306         57.2672         38.7308         61.4035 
       0.650632         55.3746         37.1375         59.3046 
       0.662899         54.1602         35.6444         57.6058 
       0.675076         51.9361         34.2451         56.0291 
       0.687267          51.203         32.9192         54.4581 
       0.699615         49.3731         31.6468         53.2501 
       0.711937         47.3828         30.4441         51.4585 
       0.724148         47.1418         29.3141         50.5544 
       0.736433         44.5962         28.2358         49.0656 
       0.748747         44.0199         27.2102         47.8227 
       0.761037         42.7974          26.238         46.7015 
       0.773197         41.7882         25.3233         45.7965 
       0.785376         40.3149         24.4512         44.6105 
       0.797761         39.8166         23.6067          43.709 
       0.810096         38.8051         22.8055         42.6386 
       0.822371         37.8993         22.0453         41.5999 
       0.834626         36.8446         21.3212         40.8913 
       0.846916         35.9554         20.6278         39.9562 
       0.859215         34.8472         19.9651          39.081 
       0.871383         34.3644         19.3383          38.373 
        0.88363         33.4946         18.7347         37.6851 
       0.895928         32.7336         18.1548         36.8048 
       0.908253         32.0659         17.5984         36.2171 
       0.920535         31.4891         17.0674         35.4711 
       0.932774         30.9478         16.5602         34.7991 
        0.94508         30.2853         16.0711         34.0885 
       0.957324         29.6392         15.6043         33.5256 
        0.96953         29.0193         15.1576          32.869 
       0.981769         28.4664         14.7273         32.3886 
       0.994071         27.8349         14.3117         31.7968 
         1.0064         27.2172         13.9116         31.2627 
        1.01868         26.6644          13.528         30.7758 
        1.03092         26.4559         13.1606         30.2251 
         1.0432         25.7428         12.8056         29.6528 
        1.05553         25.2631         12.4624         29.3773 
        1.06777         24.6167         12.1343         28.7636 
           1.08         24.1083         11.8184         28.3208 
        1.09227         23.7893         11.5127         27.9705 
         1.1046         23.4428         11.2168         27.4672 
         1.1169         23.0363         10.9319          27.066 
        1.12915         22.7781         10.6582         26.6876 
        1.14142          22.089         10.3935         26.2759 
        1.15365         21.8978         10.1385         25.9158 
        1.16585         21.6137         9.89281          25.573 
        1.17807          21.102         9.65499         25.1159 
        1.19037         20.9169         9.42345         24.9028 
        1.20276         20.6004         9.19796           24.51 
        1.21504         20.1932         8.98166         24.2369 
        1.22728         19.7945         8.77323         23.8768 
        1.23954         19.5458         8.57094         23.5317 
        1.25184         19.1773         8.37467         23.2582 
        1.26414         18.9442         8.18447         22.9258 
        1.27632         18.6684         8.00191         22.6332 
         1.2886          18.465         7.82364         22.3763 
        1.30093         18.0215          7.6502         22.1427 
        1.31316         17.8282         7.48329         21.8289 
        1.32541         17.6098         7.32134         21.6136 
        1.33772         17.2887         7.16331         21.3424 
        1.35005         17.0681         7.00984         21.1145 
        1.36225         16.8331         6.86244         20.8534 
        1.37447         16.4976         6.71901         20.5925 
        1.38676         16.3117         6.57904         20.3886 
        1.39907          16.062         6.44283         20.1552 
        1.41133         15.8237         6.31107         19.9202 
        1.42358         15.6278         6.18313         19.6877 
        1.43591         15.3941         6.05787         19.5172 
        1.44818         15.1778         5.93678           19.31 
        1.46037         15.0913         5.81972           19.06 
        1.47263          14.808         5.70518         18.9114 
        1.48494          14.694         5.59328         18.6655 
        1.49724         14.4746         5.48448         18.5108 
        1.50952         14.2725         5.37881          18.337 
        1.52178         14.0862         5.27608         18.1172 
        1.53409          13.828         5.17562         17.9421 
        1.54637         13.8004         5.07799         17.7285 
        1.55858         13.5691         4.98344         17.5807 
        1.57081         13.3485         4.89117          17.425 
        1.58313         13.2507         4.80066         17.2516 
        1.59544         13.0216          4.7125         17.1017 
        1.60767          12.896         4.62712         16.9166 
        1.61994         12.6678         4.54356         16.7776 
        1.63225         12.6048          4.4619         16.6428 
        1.64452         12.4349         4.38247         16.4975 
        1.65676         12.2714         4.30523         16.3216 
          1.669         12.1708         4.22979         16.1717 
        1.68133         11.9356         4.15568         16.0228 
        1.69363         11.8019         4.08357          15.851 
        1.70585         11.6666         4.01364          15.762 
        1.71809         11.5475          3.9452         15.6142 
        1.73038         11.4223         3.87814          15.495 
        1.74268         11.3106         3.81261         15.3399 
        1.75493         11.1125         3.74888         15.2047 
        1.76714         11.1238         3.68679         15.0877 
        1.77942         10.9781         3.62578         14.9386 
        1.79173         10.7591           3.566         14.8363 
        1.80402         10.7008         3.50769         14.7208 
         1.8163         10.5751         3.45072         14.5979 
         1.8286         10.4191         3.39492         14.4845 
         1.8409          10.321          3.3404         14.3682 
        1.85315         10.2159         3.28726         14.2425 
        1.86537         10.1234         3.23538         14.1391 
        1.87765          10.034         3.18444         14.0267 
        1.88995         9.85247         3.13446         13.9217 
        1.90221         9.81589         3.08574         13.7921 
        1.91445         9.68945         3.03813         13.7087 
        1.92674         9.58433         2.99136         13.5915 
        1.93902         9.50002         2.94558         13.5095 
        1.95124         9.37812           2.901         13.4038 
         1.9635         9.28696         2.85722         13.2939 
        1.97583         9.20926         2.81408         13.1765 
        1.98812         9.13522         2.77199         13.0791 
        2.00039         9.05004         2.73084         13.0004 
        2.01264         8.95825         2.69057         12.9115 
        2.02492         8.88351         2.65106          12.801 
        2.03717          8.7468          2.6124          12.713 
        2.04942         8.65304         2.57457         12.6223 
        2.06171         8.62838         2.53735         12.5355 
        2.07397         8.51905         2.50096         12.4525 
        2.08629         8.44329         2.46512         12.3721 
        2.09857         8.36587         2.43008         12.2759 
        2.11081         8.29506         2.39586         12.2068 
        2.12309           8.186         2.36222         12.0977 
        2.13538         8.11609         2.32917         12.0224 
        2.14763           8.034         2.29687          11.944 
        2.15986         7.99887         2.26526         11.8713 
        2.17214         7.92154         2.23411         11.7704 
        2.18443         7.81988         2.20352         11.7048 
        2.19671         7.79348         2.17354         11.6261 
        2.20898          7.6787         2.14415         11.5525 
        2.22126         7.60076         2.11528         11.4716 
        2.23354         7.56818         2.08695         11.3876 
         2.2458         7.47902         2.05918         11.3268 
        2.25807          7.4187          2.0319         11.2411 
        2.27035         7.36231         2.00508         11.1734 
        2.28263         7.30113         1.97877         11.0972 
         2.2949         7.21795         1.95294         11.0324 
        2.30718         7.16415         1.92756         10.9754 
        2.31946         7.11283         1.90262         10.9009 
        2.33169         7.04993         1.87823         10.8337 
        2.34393         7.00175         1.85423         10.7595 
        2.35622         6.95211         1.83058         10.6965 
        2.36847         6.88826          1.8074         10.6275 
        2.38076         6.83009         1.78456         10.5638 
        2.39305         6.74604         1.76211         10.4883 
        2.40534         6.71081         1.74005         10.4208 
        2.41762         6.66206         1.71837         10.3743 
        2.42989         6.62346          1.6971         10.3119 
        2.44216         6.56751         1.67618         10.2413 
         2.4544         6.50523         1.65567          10.182 
        2.46667         6.49495         1.63545          10.122 
        2.47897         6.43761         1.61553         10.0518 
        2.49124         6.36283         1.59599         9.99408 
        2.50349         6.33168          1.5768         9.94502 
        2.51578         6.27566         1.55787         9.88943 
        2.52805         6.24251         1.53928          9.8318 
        2.54029         6.18338         1.52104         9.77566 
        2.55257         6.17217         1.50305         9.71759 
        2.56487         6.10314         1.48531         9.65177 
        2.57716         6.06506         1.46788         9.60447 
        2.58942         6.04249         1.45077         9.55097 
        2.60167         5.99696         1.43395         9.49348 
        2.61395         5.94067         1.41737         9.44224 
        2.62624         5.92393         1.40103         9.38766 
        2.63849         5.90177           1.385         9.33687 
        2.65073          5.8487         1.36924         9.27826 
        2.66302         5.81471         1.35367         9.22393 
         2.6753         5.77548         1.33835         9.17361 
        2.68756         5.74808         1.32329         9.13136 
        2.69983         5.71118         1.30846          9.0713 
        2.71213         5.67613         1.29383         9.02101 
        2.72441         5.64121         1.27944         8.97402 
        2.73665         5.62794         1.26531          8.9201 
         2.7489         5.60625          1.2514         8.87373 
        2.76118         5.55474         1.23765         8.83401 
        2.77349         5.53344         1.22408         8.78002 
        2.78576         5.51649         1.21077         8.73346 
        2.79802         5.47787         1.19766         8.68636 
        2.81031         5.46067         1.18472         8.64331 
        2.82259         5.42781         1.17197           8.597 
        2.83483         5.41437         1.15946         8.54873 
         2.8471         5.39621          1.1471         8.50762 
         2.8594         5.38829         1.13489         8.46371 
         2.8717         5.34495         1.12286         8.41179 
        2.88396         5.32813         1.11105         8.37032 
        2.89619         5.29554         1.09943         8.33267 
        2.90847         5.29425         1.08793          8.2825 
        2.92072         5.29452         1.07662         8.23839 
        2.93299         5.28529         1.06546         8.20215 
        2.94526         5.26469         1.05445         8.15597 
        2.95753         5.24762          1.0436         8.11171 
        2.96982         5.22692         1.03289         8.07276 
        2.98209         5.22063         1.02234         8.02589 
        2.99436         5.21461         1.01194         7.98638 
        3.00666          5.2242         1.00166         7.95015 
        3.01894         5.19682        0.991542         7.90457 
        3.03119         5.20137         0.98158         7.86553 
        3.04345         5.19603        0.971754         7.82712 
        3.05573         5.18729        0.962043         7.78459 
          3.068          5.1809        0.952475         7.74898 
        3.08026         5.20538        0.943047          7.7121 
        3.09254         5.19818         0.93373         7.67089 
        3.10483          5.1911        0.924536         7.63524 
         3.1171         5.20121        0.915479         7.59985 
        3.12933         5.20596        0.906568         7.55759 
        3.14159         5.19449        0.897756         7.52104 
