# k  (h/Mpc)    Pcb(k)  (Mpc/h)^3    Pcb_linear(k) (Mpc/h)^3    Pcb_NL(k) (Mpc/h)^3   ShotnoiseSubtracted = false
      0.0156606          5084.5          5091.2         5064.37 
      0.0273761         4406.41         4404.45         4388.14 
      0.0384619         3348.03         3319.13         3310.48 
      0.0498308         2616.77          2611.1         2604.31 
      0.0625568         2207.91         2219.32         2211.61 
      0.0751274         1924.22         1885.65         1873.17 
      0.0867833         1517.68         1518.21         1515.95 
      0.0984825          1240.2          1201.5         1208.33 
       0.111151         1042.11         1003.25          1010.1 
       0.123864         936.243         904.141         909.782 
       0.135742         842.988         813.055         818.821 
        0.14762         718.289         695.208         708.825 
       0.160083         596.392         579.499          594.96 
       0.172465         528.132         505.794         524.636 
       0.184281         489.237         466.284          486.27 
       0.196406           446.4         430.613         446.365 
       0.209011         405.144         383.137         400.665 
       0.221538         362.204         334.826         359.329 
       0.233611         329.315         299.583         326.927 
       0.245665         309.097         276.504         300.905 
       0.258103         280.986         257.402          281.71 
       0.270422         262.488         236.523         260.387 
       0.282519         238.723         214.658         239.865 
       0.294636         231.701         195.577         222.172 
       0.306978         204.463         180.942         208.537 
       0.319417         195.655          169.17          195.75 
        0.33169         182.393         157.902          183.58 
       0.343948          173.97         146.306         172.883 
       0.356249         160.825          135.43         163.771 
       0.368458         154.459         126.321         153.096 
        0.38068         145.866         118.703          145.18 
       0.392856         136.013         111.749         138.367 
       0.405069         129.339          104.95         131.363 
       0.417459         122.523         98.3659         124.332 
       0.429752         117.684         92.4558         118.616 
       0.441978         112.647         87.2686         114.116 
       0.454294         104.787         82.5581         108.143 
        0.46658         104.782         78.1384         103.848 
       0.478753         97.7352         73.9689         99.7065 
       0.490964         94.7328         70.0525         95.7465 
       0.503334         90.6359         66.4374         91.8954 
       0.515665         87.2124          63.141         89.2127 
       0.527909         83.9244          60.098         84.7399 
       0.540159         80.9349         57.2189         81.9924 
        0.55248         76.7755         54.4871         78.8679 
       0.564743         75.1908         51.9576         76.4618 
        0.57686          72.857         49.6328         73.8251 
       0.589077         69.1555         47.4382         71.7111 
       0.601441         67.3059         45.3514         69.4509 
        0.61382         65.4389         43.3839         66.9933 
       0.626067         62.7181         41.5479          65.184 
       0.638306         60.8487          39.819         63.1287 
       0.650632         58.8108         38.1809         60.9709 
       0.662899         57.6234         36.6459         59.2243 
       0.675076         55.2841         35.2073         57.6033 
       0.687267         54.4773         33.8441         55.9882 
       0.699615         52.5386          32.536         54.7463 
       0.711937         50.4683         31.2995         52.9044 
       0.724148         50.2024         30.1377         51.9749 
       0.736433         47.5271         29.0292         50.4443 
       0.748747         46.9086         27.9747         49.1664 
       0.761037         45.6103         26.9752         48.0138 
       0.773197         44.5526         26.0349         47.0833 
       0.785376         43.0151         25.1383          45.864 
       0.797761         42.5094         24.2701         44.9372 
       0.810096         41.3968         23.4463         43.8367 
       0.822371         40.4549         22.6647         42.7688 
       0.834626         39.3438         21.9203         42.0403 
       0.846916         38.4155         21.2075         41.0789 
       0.859215         37.2584         20.5261         40.1792 
       0.871383         36.7465         19.8817         39.4513 
        0.88363         35.8127         19.2612         38.7441 
       0.895928         34.9943         18.6649         37.8391 
       0.908253         34.2822         18.0929         37.2348 
       0.920535         33.7087          17.547         36.4679 
       0.932774         33.1213         17.0255          35.777 
        0.94508         32.4409         16.5228         35.0464 
       0.957324         31.7311         16.0428         34.4677 
        0.96953         31.1215         15.5835         33.7927 
       0.981769         30.4797         15.1412         33.2988 
       0.994071         29.8391         14.7139         32.6903 
         1.0064         29.1822         14.3025         32.1412 
        1.01868         28.5909         13.9081         31.6407 
        1.03092         28.3632         13.5304         31.0744 
         1.0432         27.6334         13.1654         30.4861 
        1.05553          27.105         12.8126         30.2028 
        1.06777          26.435         12.4753         29.5719 
           1.08          25.875         12.1505         29.1166 
        1.09227          25.551         11.8362         28.7565 
         1.1046          25.178          11.532         28.2391 
         1.1169         24.7625          11.239         27.8266 
        1.12915         24.4618         10.9578         27.4375 
        1.14142         23.7523         10.6855         27.0143 
        1.15365         23.5347         10.4234         26.6441 
        1.16585         23.2244         10.1708         26.2917 
        1.17807         22.6999          9.9263         25.8217 
        1.19037         22.5103         9.68826         25.6026 
        1.20276         22.1736         9.45643         25.1988 
        1.21504         21.7255         9.23405         24.9179 
        1.22728         21.3144         9.01976         24.5478 
        1.23954         21.0494         8.81179         24.1929 
        1.25184         20.6506            8.61         23.9118 
        1.26414         20.4036         8.41446           23.57 
        1.27632         20.1219         8.22677         23.2692 
         1.2886         19.9045          8.0435         23.0051 
        1.30093          19.426         7.86518         22.7649 
        1.31316         19.2182         7.69358         22.4423 
        1.32541         18.9912         7.52708          22.221 
        1.33772         18.6481          7.3646         21.9421 
        1.35005         18.4053         7.20682         21.7079 
        1.36225          18.158         7.05529         21.4394 
        1.37447         17.7919         6.90783         21.1711 
        1.38676          17.606         6.76392         20.9615 
        1.39907         17.3393         6.62388         20.7216 
        1.41133         17.0763         6.48842           20.48 
        1.42358         16.8747         6.35689         20.2409 
        1.43591         16.6161         6.22811         20.0657 
        1.44818         16.3974         6.10361         19.8527 
        1.46037          16.301         5.98326         19.5957 
        1.47263         16.0033          5.8655         19.4429 
        1.48494         15.8752         5.75046           19.19 
        1.49724         15.6597         5.63861          19.031 
        1.50952         15.4174         5.52997         18.8523 
        1.52178         15.2277         5.42435         18.6263 
        1.53409         14.9551         5.32107         18.4463 
        1.54637          14.923          5.2207         18.2267 
        1.55858         14.6591         5.12349         18.0747 
        1.57081         14.4481         5.02862         17.9147 
        1.58313         14.3345         4.93557         17.7364 
        1.59544         14.0876         4.84493         17.5823 
        1.60767         13.9534         4.75715          17.392 
        1.61994         13.7067         4.67125         17.2491 
        1.63225         13.6463         4.58729         17.1105 
        1.64452         13.4575         4.50563         16.9611 
        1.65676         13.2865         4.42621         16.7802 
          1.669         13.1764         4.34866         16.6262 
        1.68133         12.9229         4.27247         16.4731 
        1.69363         12.7824         4.19833         16.2965 
        1.70585         12.6345         4.12643          16.205 
        1.71809         12.5062         4.05607          16.053 
        1.73038         12.3672         3.98713         15.9304 
        1.74268          12.256         3.91975          15.771 
        1.75493         12.0388         3.85424          15.632 
        1.76714         12.0506         3.79039         15.5117 
        1.77942         11.8952         3.72767         15.3584 
        1.79173         11.6549         3.66621         15.2532 
        1.80402         11.5866         3.60626         15.1345 
         1.8163          11.458         3.54769         15.0082 
         1.8286         11.2931         3.49032         14.8916 
         1.8409         11.1839         3.43427         14.7719 
        1.85315          11.075         3.37964         14.6428 
        1.86537         10.9691          3.3263         14.5364 
        1.87765          10.876         3.27393         14.4209 
        1.88995         10.6835         3.22255         14.3129 
        1.90221         10.6378         3.17245         14.1797 
        1.91445         10.5054         3.12351         14.0939 
        1.92674         10.3924         3.07543         13.9735 
        1.93902         10.2942         3.02836         13.8891 
        1.95124         10.1635         2.98252         13.7805 
         1.9635          10.064         2.93752         13.6675 
        1.97583         9.97794         2.89316         13.5468 
        1.98812         9.89993         2.84989         13.4467 
        2.00039          9.8162         2.80759         13.3657 
        2.01264         9.71374         2.76618         13.2743 
        2.02492         9.63056         2.72556         13.1607 
        2.03717         9.48371         2.68582         13.0702 
        2.04942         9.38411         2.64692          12.977 
        2.06171         9.35528         2.60866         12.8878 
        2.07397         9.23843         2.57124         12.8025 
        2.08629         9.15831          2.5344         12.7197 
        2.09857         9.07651         2.49837         12.6208 
        2.11081         8.99495         2.46319         12.5499 
        2.12309         8.87606          2.4286         12.4377 
        2.13538         8.79658         2.39463         12.3602 
        2.14763           8.716         2.36142         12.2796 
        2.15986         8.67817         2.32892         12.2049 
        2.17214          8.5921         2.29689         12.1012 
        2.18443         8.47826         2.26544         12.0337 
        2.19671         8.45507         2.23462         11.9528 
        2.20898         8.33252         2.20441         11.8772 
        2.22126         8.24036         2.17472          11.794 
        2.23354         8.20896         2.14559         11.7076 
         2.2458         8.11079         2.11705         11.6451 
        2.25807         8.04415           2.089          11.557 
        2.27035         7.98477         2.06143         11.4874 
        2.28263         7.91705         2.03437          11.409 
         2.2949         7.82532         2.00782         11.3425 
        2.30718         7.76986         1.98173         11.2838 
        2.31946          7.7102         1.95609         11.2072 
        2.33169         7.64313         1.93102         11.1382 
        2.34393         7.58813         1.90634         11.0618 
        2.35622         7.53521         1.88202         10.9971 
        2.36847         7.46532         1.85819         10.9261 
        2.38076         7.40493         1.83471         10.8607 
        2.39305         7.30924         1.81163          10.783 
        2.40534          7.2726         1.78895         10.7136 
        2.41762         7.22197         1.76666         10.6658 
        2.42989         7.17764         1.74479         10.6016 
        2.44216         7.11385         1.72329         10.5291 
         2.4544         7.04986          1.7022         10.4681 
        2.46667         7.03724         1.68141         10.4064 
        2.47897         6.97564         1.66093         10.3342 
        2.49124         6.89221         1.64084         10.2749 
        2.50349          6.8572         1.62111         10.2245 
        2.51578         6.80057         1.60164         10.1673 
        2.52805         6.76283         1.58254         10.1081 
        2.54029         6.69638         1.56379         10.0504 
        2.55257         6.68271         1.54528         9.99066 
        2.56487         6.60513         1.52705           9.923 
        2.57716         6.56625         1.50913         9.87437 
        2.58942         6.54413         1.49154         9.81937 
        2.60167         6.49342         1.47425         9.76026 
        2.61395         6.43398          1.4572         9.70758 
        2.62624         6.40878          1.4404         9.65147 
        2.63849         6.38641         1.42392         9.59925 
        2.65073         6.33095         1.40772         9.53899 
        2.66302         6.28858         1.39171         9.48313 
         2.6753         6.25163         1.37595          9.4314 
        2.68756         6.22204         1.36048         9.38797 
        2.69983         6.17826         1.34523         9.32622 
        2.71213         6.14241         1.33018         9.27451 
        2.72441          6.1021         1.31539          9.2262 
        2.73665         6.09146         1.30087         9.17077 
         2.7489         6.06662         1.28656         9.12309 
        2.76118         6.00806         1.27243         9.08225 
        2.77349         5.98464         1.25848         9.02675 
        2.78576         5.96874         1.24479         8.97887 
        2.79802         5.92413         1.23132         8.93046 
        2.81031         5.90785         1.21801         8.88619 
        2.82259         5.86814          1.2049         8.83858 
        2.83483         5.85046         1.19204         8.78896 
         2.8471         5.83577         1.17934          8.7467 
         2.8594         5.82894         1.16678         8.70154 
         2.8717         5.78144         1.15441         8.64817 
        2.88396         5.75887         1.14227         8.60554 
        2.89619         5.72356         1.13033         8.56683 
        2.90847         5.72196         1.11851         8.51525 
        2.92072         5.72478         1.10688          8.4699 
        2.93299         5.70908          1.0954         8.43264 
        2.94526         5.68795         1.08409         8.38515 
        2.95753         5.66897         1.07293         8.33965 
        2.96982         5.64711         1.06191         8.29961 
        2.98209         5.64032         1.05107         8.25142 
        2.99436         5.63583         1.04037         8.21081 
        3.00666         5.64312          1.0298         8.17355 
        3.01894         5.61029          1.0194         8.12669 
        3.03119         5.61562         1.00916         8.08656 
        3.04345          5.6126        0.999061         8.04707 
        3.05573         5.60219        0.989077         8.00334 
          3.068         5.59856         0.97924         7.96674 
        3.08026         5.62375        0.969547         7.92881 
        3.09254         5.61418        0.959968         7.88644 
        3.10483         5.60071        0.950516         7.84979 
         3.1171         5.61337        0.941204         7.81341 
        3.12933         5.61948        0.932042         7.76996 
        3.14159         5.60575        0.922983         7.73239 
