# k  (h/Mpc)    Pcb(k)  (Mpc/h)^3    Pcb_linear(k) (Mpc/h)^3    Pcb_NL(k) (Mpc/h)^3   ShotnoiseSubtracted = false
      0.0156606           16664         16735.6         16616.8 
      0.0273761         14322.8         14470.7         14343.5 
      0.0384619         10849.9         10902.4         10794.6 
      0.0498308          8403.1         8575.55         8468.96 
      0.0625568         7096.86         7288.21         7191.59 
      0.0751274         6294.91         6192.14         6054.72 
      0.0867833         4893.27         4985.36         4944.81 
      0.0984825         4102.68         3945.28          3987.8 
       0.111151         3493.39         3294.24         3343.76 
       0.123864          3133.2         2968.77         3009.39 
       0.135742         2846.21         2669.67         2710.87 
        0.14762         2465.91          2282.7         2391.65 
       0.160083          2076.3         1902.76          2034.4 
       0.172465         1851.98         1660.75         1827.41 
       0.184281         1690.28         1531.01         1700.33 
       0.196406         1575.66         1413.88         1562.06 
       0.209011         1464.02         1257.99         1412.97 
       0.221538         1320.74         1099.37         1310.07 
       0.233611          1250.9         983.649         1220.67 
       0.245665         1141.64         907.871         1124.87 
       0.258103         1110.49         845.149         1060.25 
       0.270422         996.259         776.594         992.602 
       0.282519         931.243         704.803          933.15 
       0.294636         921.086         642.153         880.552 
       0.306978         831.689           594.1          840.88 
       0.319417         808.183         555.449         791.894 
        0.33169         761.555         518.452         747.547 
       0.343948         727.124         480.376         722.238 
       0.356249         685.152         444.667         693.405 
       0.368458         663.436         414.758         658.646 
        0.38068         644.242         389.746          631.51 
       0.392856         608.605         366.913         607.451 
       0.405069         581.562         344.588         588.682 
       0.417459         558.405          322.97          563.04 
       0.429752         546.907         303.565         542.911 
       0.441978         528.615         286.534         527.844 
       0.454294         501.683         271.068         505.277 
        0.46658         490.673         256.556         493.561 
       0.478753         477.285         242.866         477.381 
       0.490964         459.629         230.007         461.978 
       0.503334         435.791         218.137         450.245 
       0.515665         434.755         207.314         440.479 
       0.527909         418.588         197.323         428.816 
       0.540159         408.093          187.87         416.922 
        0.55248         400.141           178.9         405.664 
       0.564743         395.268         170.595         398.275 
        0.57686         379.997         162.962         386.931 
       0.589077          368.07         155.756         378.319 
       0.601441         363.824         148.905         369.986 
        0.61382         356.465         142.444         363.088 
       0.626067         351.061         136.416         355.353 
       0.638306         336.344          130.74         348.555 
       0.650632         331.366         125.361         338.779 
       0.662899         328.638         120.321         334.657 
       0.675076         316.044         115.598         328.585 
       0.687267          308.23         111.122          320.88 
       0.699615         304.014         106.827         315.503 
       0.711937         299.403         102.767         309.839 
       0.724148         289.984         98.9526         305.206 
       0.736433         283.665         95.3128         299.124 
       0.748747         279.397         91.8507          293.51 
       0.761037         274.286         88.5689         289.059 
       0.773197         270.874         85.4815         285.063 
       0.785376         266.885         82.5377         280.127 
       0.797761          260.34          79.687         275.865 
       0.810096          257.53         76.9822         272.056 
       0.822371          247.97         74.4162         267.549 
       0.834626         247.333         71.9718         263.683 
       0.846916         242.017         69.6314         259.802 
       0.859215         242.045         67.3944         256.065 
       0.871383         235.532         65.2783         252.208 
        0.88363         233.966          63.241         249.602 
       0.895928         228.628         61.2834         245.656 
       0.908253         222.508         59.4053         241.656 
       0.920535         221.544         57.6127         238.425 
       0.932774         214.708         55.9006         235.135 
        0.94508         212.647         54.2499         232.682 
       0.957324           212.1         52.6741         229.253 
        0.96953         209.109         51.1661         226.042 
       0.981769         202.718         49.7136         223.899 
       0.994071         201.851         48.3109         220.997 
         1.0064         197.363         46.9601         217.668 
        1.01868         194.708         45.6651         215.129 
        1.03092         190.935          44.425         212.919 
         1.0432         187.371         43.2267         210.292 
        1.05553          184.73         42.0681         207.665 
        1.06777         184.491         40.9605         205.561 
           1.08         179.933         39.8941         202.952 
        1.09227         177.735         38.8624         200.782 
         1.1046         175.102         37.8635         198.637 
         1.1169         172.088         36.9016         195.915 
        1.12915         169.584         35.9781         194.112 
        1.14142         166.904         35.0843         191.582 
        1.15365          164.67         34.2236          189.57 
        1.16585         162.403         33.3942         187.111 
        1.17807         160.251         32.5914         185.704 
        1.19037         158.993         31.8099         183.833 
        1.20276         156.336         31.0487         181.547 
        1.21504         153.635         30.3185         179.599 
        1.22728         150.692         29.6149         177.324 
        1.23954         150.165         28.9321         176.024 
        1.25184         147.319         28.2696         174.005 
        1.26414         145.033         27.6276         172.183 
        1.27632         144.523         27.0113         171.141 
         1.2886         142.242         26.4095         168.791 
        1.30093         138.233         25.8241         166.965 
        1.31316         137.306         25.2606         165.098 
        1.32541         135.555          24.714         163.856 
        1.33772         134.297         24.1805         162.085 
        1.35005         132.356         23.6625         160.267 
        1.36225         130.691         23.1649         158.833 
        1.37447          128.55         22.6808         157.003 
        1.38676         127.184         22.2083         155.519 
        1.39907         124.715         21.7485         153.999 
        1.41133         123.009         21.3037         152.693 
        1.42358         121.263         20.8718         151.252 
        1.43591         120.138          20.449         149.556 
        1.44818         118.998         20.0402         148.298 
        1.46037         116.746         19.6451         146.763 
        1.47263         115.614         19.2584         145.653 
        1.48494         113.943         18.8807         143.976 
        1.49724          112.38         18.5135         142.621 
        1.50952         110.335         18.1568         141.328 
        1.52178         109.811           17.81          139.91 
        1.53409         107.864         17.4709          138.74 
        1.54637         106.372         17.1413         137.532 
        1.55858          104.64         16.8222         136.129 
        1.57081         103.275         16.5107         134.971 
        1.58313         102.096         16.2052          133.66 
        1.59544         100.949         15.9076         132.501 
        1.60767         99.5712         15.6194         131.216 
        1.61994         97.9684         15.3373         130.314 
        1.63225         96.7096         15.0616         128.753 
        1.64452         95.0805         14.7935         127.644 
        1.65676         93.7998         14.5328         126.609 
          1.669            93.2         14.2781         125.581 
        1.68133         91.5375          14.028         124.394 
        1.69363         90.6439         13.7845          123.34 
        1.70585         89.0901         13.5485         122.214 
        1.71809         87.9043         13.3175         121.092 
        1.73038         87.1897         13.0911         120.043 
        1.74268         85.8759         12.8699         118.973 
        1.75493         84.8238         12.6548         117.909 
        1.76714         83.4868         12.4451         116.963 
        1.77942         82.6978         12.2392         115.839 
        1.79173         81.3386         12.0374         114.932 
        1.80402         80.7074         11.8406         113.984 
         1.8163          79.308         11.6483         112.847 
         1.8286         78.2121         11.4599         111.946 
         1.8409         77.5091         11.2759         110.978 
        1.85315         76.2856         11.0965         110.105 
        1.86537         75.4375         10.9214         109.162 
        1.87765         74.7503         10.7494         108.157 
        1.88995         73.5199         10.5807          107.33 
        1.90221         72.5947         10.4162           106.4 
        1.91445          71.336         10.2555         105.482 
        1.92674         70.4824         10.0977         104.635 
        1.93902          69.603         9.94312         103.692 
        1.95124         69.0502         9.79263         102.927 
         1.9635         67.9378         9.64487         101.909 
        1.97583         67.0749         9.49923         101.216 
        1.98812          66.247         9.35715         100.332 
        2.00039         65.1998         9.21826          99.499 
        2.01264         64.7079         9.08232         98.6601 
        2.02492         63.7318         8.94893         97.8621 
        2.03717          62.742         8.81845         96.9985 
        2.04942         62.3141         8.69073         96.3201 
        2.06171         61.1093         8.56511         95.4808 
        2.07397         60.4979         8.44225         94.7548 
        2.08629         59.9055         8.32129         93.9281 
        2.09857         59.0106           8.203          93.192 
        2.11081         57.9711         8.08748         92.3519 
        2.12309          57.631         7.97392         91.7238 
        2.13538          56.716         7.86237         90.9486 
        2.14763         56.0406         7.75334         90.2257 
        2.15986         55.0018         7.64662         89.4866 
        2.17214         54.5976         7.54148         88.7635 
        2.18443         53.9789         7.43822         88.1526 
        2.19671          53.046         7.33702         87.3934 
        2.20898         52.8536         7.23782         86.7003 
        2.22126         51.9835         7.14035         85.9827 
        2.23354         51.2904         7.04471         85.3502 
         2.2458         50.7017         6.95099         84.7142 
        2.25807         50.1089         6.85889         83.9895 
        2.27035         49.5648         6.76838         83.3314 
        2.28263         48.7256         6.67954         82.6691 
         2.2949         48.3524         6.59235          82.037 
        2.30718         47.5187         6.50669         81.4351 
        2.31946         47.0025         6.42251         80.8171 
        2.33169         46.3985         6.34018         80.1875 
        2.34393         45.6631         6.25917         79.5797 
        2.35622         45.4019         6.17931         78.9579 
        2.36847         44.8033         6.10108         78.4096 
        2.38076         44.2062         6.02396         77.7455 
        2.39305         43.6726          5.9482         77.1974 
        2.40534         43.2205         5.87373         76.5624 
        2.41762         42.8061         5.80056         75.9496 
        2.42989         42.1793         5.72874          75.451 
        2.44216         41.8067         5.65814         74.8548 
         2.4544         41.2924          5.5889         74.2838 
        2.46667         40.8607         5.52065          73.699 
        2.47897         40.3726         5.45338         73.1679 
        2.49124          39.829         5.38742         72.6357 
        2.50349         39.3178         5.32265         72.0714 
        2.51578         38.8362         5.25874         71.5998 
        2.52805         38.6249           5.196         71.0385 
        2.54029         38.0872         5.13444          70.481 
        2.55257         37.5218         5.07369         69.9923 
        2.56487          37.262         5.01381         69.5089 
        2.57716          36.772         4.95498         69.0177 
        2.58942         36.3244         4.89723         68.4882 
        2.60167         35.8924         4.84045         67.9823 
        2.61395         35.5266         4.78449         67.4956 
        2.62624         35.2714         4.72933         66.9893 
        2.63849         34.9349         4.67522         66.5266 
        2.65073         34.5602         4.62201         66.0195 
        2.66302          34.083         4.56944         65.5463 
         2.6753         33.7073         4.51773         65.0871 
        2.68756         33.2363         4.46691         64.5898 
        2.69983         33.0572         4.41685         64.1715 
        2.71213         32.7303         4.36744         63.7335 
        2.72441         32.4364         4.31889         63.2605 
        2.73665         32.0774         4.27118         62.8027 
         2.7489         31.9268         4.22423         62.3649 
        2.76118         31.4315         4.17783         61.9375 
        2.77349         31.3037         4.13202         61.5016 
        2.78576         31.0639         4.08708         61.0482 
        2.79802         30.6028         4.04283          60.659 
        2.81031         30.3335         3.99914         60.2305 
        2.82259         30.1743          3.9561         59.7879 
        2.83483         29.8257         3.91387         59.3865 
         2.8471         29.4953         3.87216         58.9848 
         2.8594         29.3918         3.83094         58.5787 
         2.8717         29.0962         3.79034         58.1747 
        2.88396         28.8464         3.75047         57.7542 
        2.89619         28.5927         3.71125         57.3481 
        2.90847         28.4211         3.67244          56.975 
        2.92072         28.1849         3.63425         56.5823 
        2.93299         28.0467         3.59658          56.193 
        2.94526         27.7832         3.55942         55.8303 
        2.95753         27.6369         3.52279         55.4573 
        2.96982         27.5552         3.48662         55.0776 
        2.98209         27.2713         3.45102         54.7132 
        2.99436         27.0888          3.4159         54.3288 
        3.00666         27.0161          3.3812         53.9749 
        3.01894         26.7875         3.34705         53.5952 
        3.03119         26.7005         3.31342         53.2469 
        3.04345         26.5239         3.28026         52.9169 
        3.05573         26.4817         3.24747         52.5669 
          3.068         26.3451         3.21518         52.2144 
        3.08026         26.1705         3.18335         51.8632 
        3.09254         26.0946          3.1519         51.5232 
        3.10483         26.1043         3.12087         51.1933 
         3.1171         26.0416         3.09029         50.8601 
        3.12933         25.9488         3.06021         50.5216 
        3.14159         25.8186         3.03047         50.1879 
