# k  (h/Mpc)    P(k)  (Mpc/h)^3    P_linear(k)  (Mpc/h)^3     P_NL(k)  ShotnoiseSubtracted = false
      0.0156606         19724.1           19722         19572.7 
      0.0273761           16895         17023.4         16852.4 
      0.0384619         12771.7         12813.9         12664.7 
      0.0498308         9866.69         10073.3         9924.09 
      0.0625568         8330.66         8557.65         8424.05 
      0.0751274         7406.68         7268.78         7080.36 
      0.0867833         5742.74          5851.2         5793.76 
      0.0984825         4838.32         4629.91         4683.94 
       0.111151         4131.22         3865.52         3931.05 
       0.123864         3701.76         3483.35         3536.62 
       0.135742         3370.32         3132.24         3185.88 
        0.14762            2929          2678.1         2820.62 
       0.160083         2479.49         2232.27         2406.75 
       0.172465         2211.49         1948.29         2170.07 
       0.184281         2008.99         1796.05         2019.48 
       0.196406         1886.71         1658.62         1858.14 
       0.209011         1760.64         1475.72         1682.97 
       0.221538         1586.46         1289.62         1567.73 
       0.233611         1514.69         1153.86         1466.36 
       0.245665         1375.43         1064.96         1353.04 
       0.258103         1354.02         991.376         1276.77 
       0.270422         1208.95         910.952         1198.05 
       0.282519          1137.9         826.733         1131.41 
       0.294636         1120.62         753.241         1070.39 
       0.306978         1019.46         696.871         1024.57 
       0.319417          995.99         651.531         965.623 
        0.33169         937.092         608.131         913.395 
       0.343948         897.453         563.466         884.491 
       0.356249         848.624          521.58         850.885 
       0.368458         817.777         486.495         811.321 
        0.38068         800.931         457.158         779.555 
       0.392856         759.065         430.375          751.44 
       0.405069         721.893         404.185         727.842 
       0.417459             694         378.829         699.926 
       0.429752         686.489         356.068         675.328 
       0.441978         662.589         336.089         657.677 
       0.454294         631.855         317.948         630.431 
        0.46658         614.707         300.926         617.003 
       0.478753         601.394         284.867         597.755 
       0.490964          578.01         269.783         579.196 
       0.503334         551.483         255.862         565.669 
       0.515665         550.051         243.167         553.231 
       0.527909         527.866         231.447         540.532 
       0.540159          514.41         220.358         526.275 
        0.55248         504.235         209.837         512.456 
       0.564743         499.953         200.096          503.65 
        0.57686         481.763         191.143         490.006 
       0.589077         470.311         182.691         479.065 
       0.601441         461.946         174.655          469.31 
        0.61382         450.114         167.077         461.105 
       0.626067         444.508         160.006         452.011 
       0.638306          427.58         153.348         443.099 
       0.650632          422.99         147.039         431.775 
       0.662899          419.19         141.128         426.721 
       0.675076         404.108         135.587         420.173 
       0.687267         393.286         130.337         410.146 
       0.699615         389.958           125.3         403.637 
       0.711937         383.355         120.538          396.25 
       0.724148         370.421         116.064         390.625 
       0.736433         361.761         111.794         383.392 
       0.748747         357.041         107.734         376.468 
       0.761037         350.271         103.884         371.545 
       0.773197         345.729         100.263         365.846 
       0.785376         340.489         96.8101         360.283 
       0.797761         330.918         93.4664         354.604 
       0.810096         328.143         90.2939         350.155 
       0.822371         317.561         87.2841         344.395 
       0.834626          315.44         84.4171         340.017 
       0.846916         309.122          81.672         334.801 
       0.859215         307.728         79.0481         330.006 
       0.871383         299.915         76.5661         325.465 
        0.88363         297.731         74.1765         322.129 
       0.895928         292.019         71.8803         317.026 
       0.908253         284.617         69.6775          311.94 
       0.920535         281.157         67.5749          308.13 
       0.932774         274.964         65.5668         303.702 
        0.94508         271.261         63.6306         300.553 
       0.957324         269.684         61.7823         296.425 
        0.96953         265.759         60.0135         292.694 
       0.981769         258.495         58.3099         289.611 
       0.994071         257.485         56.6645         285.991 
         1.0064             252         55.0802         281.802 
        1.01868         249.072         53.5613         278.235 
        1.03092         242.009         52.1067         275.686 
         1.0432         238.866         50.7012          272.34 
        1.05553         235.946         49.3422         268.691 
        1.06777         234.359         48.0432         265.831 
           1.08         228.628         46.7924         262.758 
        1.09227         226.702         45.5823         259.646 
         1.1046         222.931         44.4106         257.095 
         1.1169         217.824         43.2824         253.603 
        1.12915          214.97         42.1991         251.261 
        1.14142         211.189         41.1508         248.117 
        1.15365         208.375         40.1413           245.5 
        1.16585         204.819         39.1685         242.548 
        1.17807         202.508         38.2269         240.333 
        1.19037         199.939         37.3102         238.159 
        1.20276         197.082         36.4174         235.076 
        1.21504         192.799          35.561         232.504 
        1.22728         189.616         34.7357         229.614 
        1.23954         188.768         33.9348         227.804 
        1.25184         184.832         33.1577          225.29 
        1.26414         181.326         32.4047         223.059 
        1.27632          180.45         31.6819          221.26 
         1.2886         178.886         30.9761         218.544 
        1.30093         173.872         30.2894         215.978 
        1.31316         170.694         29.6285          213.62 
        1.32541         169.492         28.9873         211.741 
        1.33772          167.45         28.3616         209.605 
        1.35005         164.869          27.754         207.254 
        1.36225         161.959         27.1704         205.338 
        1.37447         159.681         26.6025         202.828 
        1.38676         157.823         26.0483         201.246 
        1.39907         155.334          25.509         198.975 
        1.41133          152.64         24.9874         197.067 
        1.42358         150.811         24.4808         195.211 
        1.43591         148.972         23.9849         193.249 
        1.44818         146.466         23.5054         191.399 
        1.46037          144.72         23.0419         189.379 
        1.47263         142.498         22.5884         187.818 
        1.48494         140.525         22.1454         185.514 
        1.49724         138.511         21.7147         184.142 
        1.50952         135.955         21.2963         182.259 
        1.52178         135.202         20.8895          180.27 
        1.53409          132.27         20.4918         178.771 
        1.54637         130.661         20.1052         177.286 
        1.55858         128.573         19.7309         175.355 
        1.57081         126.606         19.3655         173.834 
        1.58313         124.903         19.0072         172.061 
        1.59544         122.775         18.6581         170.545 
        1.60767         121.789         18.3201         168.976 
        1.61994         119.503         17.9893         167.526 
        1.63225         117.974         17.6659          165.69 
        1.64452         115.822         17.3515         164.206 
        1.65676          114.17         17.0456         162.813 
          1.669         113.267         16.7469         161.386 
        1.68133         110.845         16.4535          159.91 
        1.69363         109.233          16.168         158.481 
        1.70585         107.328         15.8911         157.081 
        1.71809         106.023         15.6202         155.408 
        1.73038         105.212         15.3547         154.167 
        1.74268         104.046         15.0952         152.691 
        1.75493         101.391         14.8429         151.392 
        1.76714         100.715          14.597         150.146 
        1.77942          98.943         14.3555         148.629 
        1.79173         97.4489         14.1188         147.412 
        1.80402         96.6003         13.8879         146.111 
         1.8163         94.5312         13.6624         144.818 
         1.8286          93.304         13.4414         143.495 
         1.8409         92.6413         13.2256         142.172 
        1.85315         90.7826         13.0152         141.032 
        1.86537         89.8933         12.8098         139.862 
        1.87765         88.8883         12.6081         138.661 
        1.88995         87.3231         12.4102         137.417 
        1.90221         86.1211         12.2173         136.282 
        1.91445         85.0552         12.0288         134.991 
        1.92674         83.6194         11.8437         133.858 
        1.93902         82.5011         11.6624         132.659 
        1.95124          81.547         11.4859         131.554 
         1.9635         80.1993         11.3126         130.374 
        1.97583          78.971         11.1417         129.335 
        1.98812         77.9726         10.9751         128.302 
        2.00039         77.0337         10.8122         127.139 
        2.01264         76.0655         10.6527          126.09 
        2.02492         75.2244         10.4963         124.979 
        2.03717         73.9109         10.3432         123.944 
        2.04942         73.4096         10.1934         122.986 
        2.06171         71.7284         10.0461         121.917 
        2.07397         70.9692           9.902         120.945 
        2.08629         70.1203         9.76013         119.894 
        2.09857         69.0724         9.62137         118.932 
        2.11081         67.9054         9.48588         117.832 
        2.12309         66.9752         9.35268         117.006 
        2.13538         66.1473         9.22185         115.978 
        2.14763         65.3016         9.09396         115.054 
        2.15986          64.266         8.96879          114.05 
        2.17214         63.6139         8.84547         113.121 
        2.18443         62.7942         8.72436         112.363 
        2.19671         61.6693         8.60565           111.4 
        2.20898         61.1773          8.4893         110.432 
        2.22126         60.2604         8.37498         109.565 
        2.23354         59.5733          8.2628         108.711 
         2.2458         58.5188         8.15287         107.853 
        2.25807         57.7967         8.04485         106.956 
        2.27035         57.0491         7.93869         106.082 
        2.28263         56.2786          7.8345         105.254 
         2.2949         55.5195         7.73223         104.431 
        2.30718         54.6134         7.63175         103.629 
        2.31946         54.2656         7.53302         102.751 
        2.33169         53.2649         7.43645         101.969 
        2.34393         52.7908         7.34143          101.22 
        2.35622         51.8691         7.24777         100.411 
        2.36847         51.4843         7.15601          99.726 
        2.38076         50.5885         7.06556         98.8173 
        2.39305         50.0135         6.97669         98.1488 
        2.40534         49.4051         6.88935         97.3403 
        2.41762         48.8325         6.80352         96.5459 
        2.42989          48.092         6.71928         95.8727 
        2.44216         47.5885         6.63648         95.0813 
         2.4544         46.8815         6.55526          94.374 
        2.46667         46.3477         6.47522         93.6377 
        2.47897         45.8363         6.39632          92.903 
        2.49124          45.293         6.31895         92.2403 
        2.50349         44.9422         6.24298         91.5204 
        2.51578         44.1655         6.16802         90.9212 
        2.52805         43.6671         6.09444         90.1602 
        2.54029         43.2373         6.02223         89.4414 
        2.55257         42.6419         5.95098         88.8312 
        2.56487         42.3298         5.88074         88.2085 
        2.57716         41.6631         5.81174         87.5476 
        2.58942         41.0937           5.744         86.8801 
        2.60167         40.7184          5.6774         86.2505 
        2.61395         40.1706         5.61176         85.6216 
        2.62624         39.7766         5.54707         84.9331 
        2.63849         39.2746         5.48361         84.3326 
        2.65073           38.93          5.4212         83.7135 
        2.66302         38.4333         5.35954         83.0835 
         2.6753         38.0269         5.29888         82.5076 
        2.68756         37.6194         5.23928         81.8862 
        2.69983         37.1674         5.18056         81.3308 
        2.71213         36.8115         5.12261         80.7502 
        2.72441         36.4369         5.06566         80.1552 
        2.73665         35.9324         5.00971         79.5908 
         2.7489         35.6588         4.95463         79.0273 
        2.76118         35.2685         4.90021          78.464 
        2.77349         34.8919         4.84649         77.9048 
        2.78576         34.5963         4.79378          77.317 
        2.79802         34.2563         4.74187         76.8494 
        2.81031         33.8219         4.69062         76.2835 
        2.82259         33.7102         4.64015         75.7178 
        2.83483         33.2439         4.59061         75.2329 
         2.8471         32.9491          4.5417         74.6919 
         2.8594         32.6643         4.49335         74.1485 
         2.8717         32.5143         4.44572         73.6601 
        2.88396          32.111         4.39896         73.1398 
        2.89619         31.9633         4.35295          72.594 
        2.90847         31.5762         4.30743         72.0814 
        2.92072         31.4076         4.26264         71.6266 
        2.93299         31.2397         4.21846         71.1459 
        2.94526         30.8934         4.17487         70.6564 
        2.95753         30.6959         4.13191         70.1616 
        2.96982          30.469         4.08948         69.6881 
        2.98209         30.2386         4.04773         69.2295 
        2.99436         30.0127         4.00653         68.7252 
        3.00666         29.9803         3.96584         68.2708 
        3.01894         29.6594         3.92579         67.8032 
        3.03119         29.6171         3.88634         67.3658 
        3.04345          29.494         3.84744         66.9362 
        3.05573         29.1521         3.80899         66.4833 
          3.068         29.1549         3.77111         66.0382 
        3.08026         28.9792         3.73378         65.5936 
        3.09254         28.9157         3.69689          65.167 
        3.10483         28.8808         3.66049         64.7438 
         3.1171         28.6863         3.62463          64.313 
        3.12933         28.6052         3.58935          63.881 
        3.14159         28.4909         3.55446         63.4448 
