# k  (h/Mpc)    Pcb(k)  (Mpc/h)^3    Pcb_linear(k) (Mpc/h)^3    Pcb_NL(k) (Mpc/h)^3   ShotnoiseSubtracted = false
      0.0156606         24089.1         24235.3         24034.8 
      0.0273761         20619.8         20951.8         20702.7 
      0.0384619         15577.3         15783.8         15559.4 
      0.0498308         12014.2         12414.5         12187.7 
      0.0625568         10152.4         10550.5         10350.2 
      0.0751274         9056.84         8963.63         8683.41 
      0.0867833         7005.47         7216.62         7128.85 
      0.0984825         5941.96         5710.97         5785.34 
       0.111151         5094.27         4768.52         4864.22 
       0.123864         4560.93         4297.38         4374.44 
       0.135742         4166.34         3864.39          3941.3 
        0.14762          3634.1         3304.24         3506.47 
       0.160083         3102.57         2754.26         3005.75 
       0.172465         2766.77         2403.94         2724.65 
       0.184281         2499.75         2216.14         2536.06 
       0.196406          2372.2          2046.6         2339.76 
       0.209011          2226.5         1820.95         2123.75 
       0.221538         2001.69         1591.33         1989.23 
       0.233611         1928.36         1423.83         1869.23 
       0.245665         1745.08         1314.14         1728.93 
       0.258103          1738.5         1223.35         1634.28 
       0.270422         1550.29         1124.12         1538.28 
       0.282519          1470.6          1020.2         1461.73 
       0.294636         1437.79         929.512         1387.26 
       0.306978         1320.67         859.954         1331.95 
       0.319417         1299.99         804.007          1256.7 
        0.33169         1220.05         750.454         1192.61 
       0.343948         1175.06         695.339         1157.32 
       0.356249         1117.67         643.651         1116.26 
       0.368458         1068.72         600.358         1070.18 
        0.38068          1056.8         564.153         1031.49 
       0.392856         1006.01         531.103         997.633 
       0.405069         951.435         498.787          964.27 
       0.417459         915.067         467.496         934.187 
       0.429752          916.24         439.407         902.091 
       0.441978         883.983         414.754         880.365 
       0.454294         846.861         392.367          845.88 
        0.46658         823.273         371.362          829.39 
       0.478753         809.468         351.546         805.585 
       0.490964         779.301         332.932          781.75 
       0.503334         747.214         315.751         765.703 
       0.515665         743.581         300.085         748.124 
       0.527909         711.874         285.622         734.059 
       0.540159         696.169         271.939         716.829 
        0.55248         681.464         258.956         698.892 
       0.564743         674.857         246.934          687.15 
        0.57686         655.001         235.885         669.751 
       0.589077         646.683         225.455         655.727 
       0.601441         628.438         215.537         643.677 
        0.61382         610.073         206.186         632.225 
       0.626067         604.419         197.461          621.36 
       0.638306         582.745         189.244         608.683 
       0.650632         577.207         181.458         595.542 
       0.662899         572.481         174.163         587.977 
       0.675076         556.165         167.326         580.785 
       0.687267         539.492         160.847         567.552 
       0.699615         539.659         154.631         558.585 
       0.711937         526.054         148.754         547.936 
       0.724148         510.034         143.232         541.247 
       0.736433         498.559         137.964         532.046 
       0.748747         492.221         132.953         522.984 
       0.761037         483.764         128.202         517.038 
       0.773197         474.952         123.733         508.101 
       0.785376         470.332         119.472         501.034 
       0.797761         456.312         115.346         494.398 
       0.810096         449.034         111.431         487.874 
       0.822371          439.06         107.716         480.192 
       0.834626         433.859         104.178         474.992 
       0.846916          428.72          100.79         467.619 
       0.859215         421.727         97.5523         460.708 
       0.871383         412.991         94.4894          454.82 
        0.88363         406.661         91.5405         450.282 
       0.895928         402.084         88.7068         443.469 
       0.908253         392.469         85.9883         436.079 
       0.920535         382.644         83.3936         431.903 
       0.932774         377.956         80.9153         425.178 
        0.94508          372.24         78.5259         421.176 
       0.957324          366.65          76.245         415.583 
        0.96953         362.028         74.0622         410.547 
       0.981769         353.804         71.9597         405.971 
       0.994071         352.539         69.9293          401.16 
         1.0064         346.151          67.974         395.369 
        1.01868         341.662         66.0995         390.494 
        1.03092          331.98         64.3045         387.119 
         1.0432          328.63         62.5699         382.457 
        1.05553         325.441         60.8929         377.162 
        1.06777         320.212         59.2897         372.766 
           1.08         313.143         57.7462         368.697 
        1.09227         312.854         56.2528         364.336 
         1.1046         305.893         54.8069         361.061 
         1.1169          300.21         53.4146         356.352 
        1.12915          295.31         52.0777         352.514 
        1.14142         289.473         50.7839          348.53 
        1.15365         285.899         49.5382           344.9 
        1.16585         281.621         48.3377         341.109 
        1.17807         278.694         47.1756         337.166 
        1.19037         272.723         46.0443         334.293 
        1.20276         270.235         44.9425         329.998 
        1.21504         264.864         43.8856         326.273 
        1.22728         260.779         42.8672         323.125 
        1.23954         258.982         41.8788          319.46 
        1.25184         253.083         40.9198         316.167 
        1.26414          248.43         39.9905         313.188 
        1.27632         245.353         39.0984         310.233 
         1.2886         242.541         38.2274         306.811 
        1.30093         237.724         37.3799         302.812 
        1.31316         232.878         36.5644         300.199 
        1.32541         231.565         35.7731          296.74 
        1.33772          227.07         35.0009         294.193 
        1.35005         224.222          34.251         290.852 
        1.36225          220.13         33.5308          288.15 
        1.37447         216.428           32.83         284.786 
        1.38676         214.285         32.1461          282.74 
        1.39907         211.071         31.4806         279.245 
        1.41133          207.09         30.8368         276.292 
        1.42358         204.307         30.2117          273.72 
        1.43591         201.357         29.5996         271.335 
        1.44818         197.495         29.0079         268.366 
        1.46037         195.833          28.436         265.519 
        1.47263         192.237         27.8763         262.819 
        1.48494         190.757         27.3296         259.773 
        1.49724         186.874          26.798         258.207 
        1.50952         183.968         26.2816         254.982 
        1.52178         181.129         25.7797         252.766 
        1.53409         178.354         25.2888         250.265 
        1.54637         175.331         24.8118         248.213 
        1.55858          173.37         24.3498         245.651 
        1.57081          170.35          23.899         243.104 
        1.58313         168.349         23.4567         240.666 
        1.59544         165.095         23.0259         238.538 
        1.60767         163.685         22.6088         236.444 
        1.61994         160.721         22.2005         233.964 
        1.63225         158.084         21.8015         231.608 
        1.64452         155.507         21.4134         229.566 
        1.65676          153.63         21.0359         227.648 
          1.669         151.747         20.6673         225.258 
        1.68133         148.649         20.3053         223.198 
        1.69363         146.197         19.9529         221.414 
        1.70585         143.965         19.6112         219.257 
        1.71809         141.974         19.2768          216.96 
        1.73038         139.787         18.9492         215.084 
        1.74268          138.56         18.6289             213 
        1.75493         135.906         18.3176         211.303 
        1.76714         134.777         18.0142         209.412 
        1.77942         132.162         17.7161         207.569 
        1.79173         130.452          17.424         205.488 
        1.80402         128.352         17.1391         203.673 
         1.8163          126.26         16.8607         202.073 
         1.8286         124.305          16.588         200.098 
         1.8409         122.631         16.3217         198.244 
        1.85315         120.435          16.062         196.596 
        1.86537         119.033         15.8085         194.909 
        1.87765         117.524         15.5596         193.234 
        1.88995         115.596         15.3154         191.399 
        1.90221         114.074         15.0774         189.904 
        1.91445         112.255         14.8447         188.137 
        1.92674         110.317         14.6162         186.416 
        1.93902         109.079         14.3925         184.738 
        1.95124          107.44         14.1747         183.204 
         1.9635         105.777         13.9608         181.615 
        1.97583         104.198           13.75         179.963 
        1.98812          102.61         13.5443         178.746 
        2.00039         101.497         13.3433             177 
        2.01264          100.18         13.1465         175.533 
        2.02492         98.4108         12.9534         173.925 
        2.03717         97.1067         12.7646         172.574 
        2.04942         95.8025         12.5797         171.052 
        2.06171         94.2498         12.3979         169.501 
        2.07397         92.8787           12.22         168.252 
        2.08629          91.499         12.0449         166.799 
        2.09857          90.401         11.8737         165.465 
        2.11081         88.9975         11.7065         163.948 
        2.12309         87.7988         11.5421         162.658 
        2.13538         86.3923         11.3807          161.28 
        2.14763         85.0647         11.2228         159.941 
        2.15986         84.2252         11.0684          158.51 
        2.17214         82.9649         10.9162         157.362 
        2.18443         82.0652         10.7667         156.159 
        2.19671         80.9941         10.6202          154.79 
        2.20898         79.7034         10.4766         153.403 
        2.22126         78.6638         10.3355         152.279 
        2.23354         77.5827         10.1971         151.112 
         2.2458         76.0394         10.0614         149.783 
        2.25807         75.4994         9.92813         148.606 
        2.27035         74.4078         9.79712          147.43 
        2.28263          73.432         9.66854         146.303 
         2.2949         72.2159         9.54232         145.147 
        2.30718         71.0814         9.41833          143.95 
        2.31946         70.2822         9.29648          142.72 
        2.33169         69.2313         9.17731         141.655 
        2.34393         68.4068         9.06005         140.681 
        2.35622         67.4616         8.94446         139.448 
        2.36847          66.549         8.83121         138.462 
        2.38076          65.422         8.71959          137.31 
        2.39305          64.858         8.60992         136.319 
        2.40534         63.7846         8.50214          135.19 
        2.41762         63.2187         8.39621         134.139 
        2.42989         62.1041         8.29226         133.137 
        2.44216          61.567         8.19007         132.049 
         2.4544         60.8216         8.08984          131.11 
        2.46667         59.7229         7.99105         130.114 
        2.47897         59.3225         7.89368         129.015 
        2.49124         58.4815         7.79821         128.047 
        2.50349         57.4394         7.70445         127.116 
        2.51578         57.0173         7.61195         126.221 
        2.52805         56.0525         7.52113         125.208 
        2.54029         55.5422         7.43202         124.272 
        2.55257         54.8451         7.34409         123.388 
        2.56487         54.3397         7.25742         122.475 
        2.57716         53.7009         7.17226          121.55 
        2.58942         52.9503         7.08866         120.668 
        2.60167         52.2566         7.00647         119.808 
        2.61395          51.817         6.92547         118.889 
        2.62624         51.1039         6.84563         117.961 
        2.63849         50.4739         6.76731         117.159 
        2.65073         49.7737         6.69029         116.264 
        2.66302          49.334          6.6142         115.461 
         2.6753         48.6393         6.53934         114.632 
        2.68756         48.2695         6.46579         113.774 
        2.69983         47.7398         6.39332         112.954 
        2.71213         47.2191         6.32181         112.148 
        2.72441         46.7208         6.25152         111.324 
        2.73665         46.1632         6.18247         110.556 
         2.7489         45.7229          6.1145         109.784 
        2.76118         45.2931         6.04735         108.971 
        2.77349         44.8351         5.98104         108.219 
        2.78576         44.3638         5.91599          107.44 
        2.79802         43.9825         5.85194         106.736 
        2.81031         43.5057         5.78869         105.976 
        2.82259         43.0537          5.7264          105.18 
        2.83483         42.5959         5.66526          104.49 
         2.8471         42.1264          5.6049         103.743 
         2.8594         41.7603         5.54523         103.021 
         2.8717         41.4412         5.48645         102.348 
        2.88396         40.9832         5.42874         101.641 
        2.89619         40.7619         5.37197          100.91 
        2.90847         40.3531         5.31579         100.171 
        2.92072         39.9845         5.26052         99.5585 
        2.93299         39.7373           5.206         98.8895 
        2.94526         39.4213          5.1522         98.1817 
        2.95753         39.1738         5.09918         97.5202 
        2.96982         38.7194         5.04682         96.8864 
        2.98209          38.481          4.9953         96.2178 
        2.99436          38.341         4.94446         95.5465 
        3.00666         38.1017         4.89423         94.9061 
        3.01894         37.8362          4.8448         94.2773 
        3.03119          37.591         4.79613         93.6783 
        3.04345         37.3492         4.74812         93.0701 
        3.05573          37.325         4.70067          92.442 
          3.068         37.0012         4.65392         91.8372 
        3.08026         36.7898         4.60785         91.2293 
        3.09254         36.8199         4.56233         90.6357 
        3.10483         36.5997          4.5174         90.0444 
         3.1171         36.4923         4.47315         89.4445 
        3.12933          36.341         4.42961         88.8534 
        3.14159         36.2497         4.38655         88.2726 
