# k  (h/Mpc)    Pcb(k)  (Mpc/h)^3    Pcb_linear(k) (Mpc/h)^3    Pcb_NL(k) (Mpc/h)^3   ShotnoiseSubtracted = false
      0.0156606         23284.1         23421.1         23230.4 
      0.0273761         19939.1         20248.2         20014.4 
      0.0384619         15067.5         15253.9         15044.4 
      0.0498308         11625.5         11997.8         11786.3 
      0.0625568         9823.05         10196.4         10009.1 
      0.0751274         8758.36         8662.79         8400.49 
      0.0867833         6777.49         6974.42         6892.55 
      0.0984825         5741.67         5519.32         5589.74 
       0.111151         4918.95          4608.5         4698.15 
       0.123864         4404.65         4153.16         4225.46 
       0.135742         4021.11         3734.71         3806.97 
        0.14762         3505.29         3193.36         3383.99 
       0.160083         2987.73         2661.84         2898.32 
       0.172465         2664.43         2323.27         2624.71 
       0.184281         2409.56         2141.78         2442.98 
       0.196406         2282.25         1977.92         2252.69 
       0.209011         2139.84         1759.84         2043.85 
       0.221538         1924.71         1537.93         1912.64 
       0.233611         1851.44         1376.05         1795.87 
       0.245665         1676.08         1270.04         1660.27 
       0.258103         1666.63          1182.3         1568.87 
       0.270422         1486.01         1086.39         1475.88 
       0.282519         1407.79         985.963          1400.9 
       0.294636         1378.34         898.321         1328.81 
       0.306978         1263.88         831.097         1275.12 
       0.319417         1242.44         777.028         1202.84 
        0.33169          1166.6         725.272         1140.79 
       0.343948         1122.29         672.006         1106.68 
       0.356249         1066.22         622.053          1066.9 
       0.368458         1021.04         580.212         1021.87 
        0.38068         1008.13         545.222         984.348 
       0.392856         958.874         513.281          951.43 
       0.405069         907.721          482.05         920.017 
       0.417459         873.021         451.809         890.168 
       0.429752         872.432         424.663          859.45 
       0.441978         841.681         400.837         838.454 
       0.454294         805.803         379.201         805.206 
        0.46658         783.115           358.9         789.307 
       0.478753         769.384         339.749         766.278 
       0.490964         740.144          321.76         743.409 
       0.503334          709.45         305.156         727.779 
       0.515665         706.248         290.015         711.207 
       0.527909         676.368         276.038         697.361 
       0.540159         660.751         262.814         680.584 
        0.55248         647.087         250.266         663.349 
       0.564743         641.196         238.648         652.203 
        0.57686         621.398          227.97         635.494 
       0.589077         612.327          217.89         621.939 
       0.601441         596.089         208.305         610.317 
        0.61382           578.9         199.268         599.574 
       0.626067         573.193         190.835         588.994 
       0.638306         552.532         182.893         576.994 
       0.650632          547.34         175.369         564.119 
       0.662899         542.902         168.319         557.105 
       0.675076         526.531         161.711         550.052 
       0.687267         510.957          155.45         537.323 
       0.699615         510.417         149.442         528.857 
       0.711937         498.447         143.762         518.822 
       0.724148         482.805         138.426         512.279 
       0.736433         471.682         133.334         503.462 
       0.748747         465.664         128.491         494.787 
       0.761037         457.564           123.9         489.058 
       0.773197           449.8         119.581         480.759 
       0.785376         444.767         115.463         474.013 
       0.797761         431.406         111.475         467.426 
       0.810096         425.509         107.691         461.376 
       0.822371          415.26         104.102         454.023 
       0.834626         410.648         100.682         448.986 
       0.846916         405.189         97.4084         441.977 
       0.859215         399.253         94.2789         435.472 
       0.871383           390.7         91.3187         429.869 
        0.88363          385.31         88.4688         425.566 
       0.895928         380.491         85.7302         419.055 
       0.908253         371.198         83.1029         412.119 
       0.920535         362.717         80.5952         407.986 
       0.932774         357.925         78.2002         401.694 
        0.94508         352.405         75.8909         397.809 
       0.957324         347.846         73.6866         392.535 
        0.96953         343.461          71.577         387.804 
       0.981769         335.449          69.545         383.476 
       0.994071         334.146         67.5827         378.886 
         1.0064          328.01         65.6931         373.402 
        1.01868         323.978         63.8815         368.729 
        1.03092         314.504         62.1467         365.541 
         1.0432         311.472         60.4704         361.131 
        1.05553         308.352         58.8496         356.137 
        1.06777         303.636         57.3002         352.045 
           1.08         296.778         55.8085         348.196 
        1.09227         296.348         54.3652         344.046 
         1.1046         290.059         52.9678         340.876 
         1.1169         284.246         51.6222         336.401 
        1.12915         279.954         50.3302         332.871 
        1.14142         274.273         49.0799         329.039 
        1.15365         271.076         47.8759         325.605 
        1.16585         266.649         46.7157         322.013 
        1.17807         263.988         45.5926         318.388 
        1.19037         258.778         44.4992         315.703 
        1.20276         255.986         43.4344         311.609 
        1.21504         250.761          42.413         308.101 
        1.22728          247.01         41.4288         304.945 
        1.23954         245.419         40.4735         301.677 
        1.25184         239.748         39.5467         298.535 
        1.26414         235.095         38.6486         295.728 
        1.27632         232.649         37.7865         292.966 
         1.2886         230.209         36.9447         289.695 
        1.30093          225.37         36.1256         285.967 
        1.31316         220.628         35.3375         283.373 
        1.32541         219.433         34.5727         280.222 
        1.33772         215.273         33.8264         277.759 
        1.35005         212.713         33.1017         274.613 
        1.36225         208.661         32.4057         272.053 
        1.37447         205.249         31.7284          268.81 
        1.38676         203.272         31.0674         266.912 
        1.39907         200.252         30.4242         263.622 
        1.41133         196.361          29.802         260.841 
        1.42358         193.876         29.1979           258.4 
        1.43591         191.171         28.6064         256.133 
        1.44818         187.481         28.0346         253.375 
        1.46037         185.939         27.4818         250.664 
        1.47263         182.333         26.9409         248.201 
        1.48494         180.919         26.4125         245.276 
        1.49724         177.435         25.8987         243.779 
        1.50952         174.453         25.3997         240.838 
        1.52178         172.125         24.9146         238.587 
        1.53409         169.249         24.4402         236.324 
        1.54637         166.481         23.9792         234.376 
        1.55858         164.678         23.5327          231.92 
        1.57081         161.764          23.097         229.591 
        1.58313         159.742         22.6696          227.27 
        1.59544         156.739         22.2533         225.256 
        1.60767         155.283         21.8501         223.265 
        1.61994         152.585         21.4555         220.965 
        1.63225         150.077         21.0699         218.742 
        1.64452         147.671         20.6948          216.81 
        1.65676         145.851         20.3301         214.972 
          1.669         144.081         19.9738         212.764 
        1.68133         141.194         19.6239         210.819 
        1.69363         138.785         19.2834         209.108 
        1.70585         136.635         18.9531         207.113 
        1.71809         134.797           18.63         204.919 
        1.73038         132.888         18.3133         203.178 
        1.74268          131.71         18.0038         201.197 
        1.75493         128.944         17.7029         199.586 
        1.76714         128.097         17.4097         197.818 
        1.77942          125.44         17.1216         196.028 
        1.79173         123.721         16.8393         194.119 
        1.80402         121.865          16.564         192.398 
         1.8163         119.781         16.2949         190.881 
         1.8286         118.054         16.0314         189.003 
         1.8409         116.491          15.774         187.254 
        1.85315         114.339          15.523         185.711 
        1.86537         113.083         15.2781         184.128 
        1.87765         111.663         15.0375         182.548 
        1.88995          109.71         14.8015         180.803 
        1.90221          108.29         14.5714           179.4 
        1.91445         106.603         14.3466         177.699 
        1.92674         104.808         14.1258         176.101 
        1.93902         103.614         13.9096         174.514 
        1.95124         102.114          13.699         173.057 
         1.9635         100.445         13.4923         171.554 
        1.97583         98.9094         13.2886          170.01 
        1.98812          97.462         13.0898         168.839 
        2.00039         96.3615         12.8955         167.195 
        2.01264         95.1657         12.7054         165.816 
        2.02492         93.6263         12.5188         164.292 
        2.03717         92.2943         12.3362         163.013 
        2.04942         91.0642         12.1576         161.593 
        2.06171           89.53         11.9818         160.141 
        2.07397         88.3555           11.81         158.946 
        2.08629          86.995         11.6408         157.559 
        2.09857         85.9865         11.4753         156.306 
        2.11081         84.6053         11.3137         154.866 
        2.12309         83.5214         11.1548         153.667 
        2.13538         82.1252         10.9988         152.339 
        2.14763         80.9466         10.8462         151.089 
        2.15986         80.1134          10.697         149.739 
        2.17214         78.9353         10.5499          148.62 
        2.18443         78.0139         10.4054         147.522 
        2.19671         77.0119         10.2638         146.229 
        2.20898         75.8838         10.1251         144.916 
        2.22126         74.8265         9.98873          143.86 
        2.23354         73.8421         9.85493         142.733 
         2.2458         72.4004         9.72383         141.495 
        2.25807          71.779         9.59499         140.381 
        2.27035         70.7408         9.46837          139.25 
        2.28263         69.8522          9.3441         138.191 
         2.2949         68.5335         9.22213         137.099 
        2.30718         67.5524         9.10229         135.964 
        2.31946         66.8671         8.98453         134.803 
        2.33169         65.8246         8.86936         133.797 
        2.34393         65.1845         8.75603         132.869 
        2.35622         64.1586         8.64432         131.716 
        2.36847         63.3884         8.53488         130.794 
        2.38076         62.2749           8.427         129.674 
        2.39305         61.7141         8.32101          128.76 
        2.40534         60.7319         8.21684         127.686 
        2.41762         60.1677         8.11447         126.683 
        2.42989         59.1488           8.014         125.749 
        2.44216         58.6409         7.91524         124.706 
         2.4544         57.7726         7.81838         123.817 
        2.46667         56.8537         7.72291         122.872 
        2.47897         56.4016         7.62881         121.844 
        2.49124         55.6509         7.53653         120.931 
        2.50349         54.6578         7.44592         120.045 
        2.51578         54.3042         7.35652         119.215 
        2.52805         53.3724         7.26876         118.236 
        2.54029         52.8631         7.18264         117.346 
        2.55257         52.2096         7.09765         116.523 
        2.56487         51.7834         7.01389         115.654 
        2.57716         51.2063         6.93159         114.789 
        2.58942          50.397         6.85079          113.95 
        2.60167         49.8274         6.77137         113.131 
        2.61395         49.4396         6.69308         112.266 
        2.62624         48.6708         6.61592          111.38 
        2.63849         48.1156         6.54023         110.617 
        2.65073         47.4481         6.46579         109.787 
        2.66302          47.058         6.39225         109.006 
         2.6753          46.374         6.31991         108.231 
        2.68756         46.0783         6.24882         107.415 
        2.69983         45.5187         6.17879         106.641 
        2.71213         44.9994         6.10968         105.882 
        2.72441         44.5691         6.04175         105.104 
        2.73665         44.0623         5.97501         104.383 
         2.7489         43.6059         5.90932         103.653 
        2.76118         43.1992         5.84442         102.879 
        2.77349         42.7451         5.78034         102.172 
        2.78576         42.3104         5.71747         101.431 
        2.79802           41.95         5.65557         100.772 
        2.81031         41.4552         5.59445         100.046 
        2.82259         41.0078         5.53425         99.2992 
        2.83483         40.5943         5.47516         98.6499 
         2.8471         40.1337         5.41682         97.9367 
         2.8594         39.7803         5.35916         97.2492 
         2.8717         39.5074         5.30235         96.6195 
        2.88396         39.1068         5.24658         95.9488 
        2.89619         38.8143         5.19171         95.2459 
        2.90847         38.4341         5.13742         94.5493 
        2.92072         38.1234           5.084         93.9714 
        2.93299          37.917         5.03131         93.3429 
        2.94526         37.5735         4.97932         92.6769 
        2.95753         37.3245         4.92808         92.0421 
        2.96982         36.9215         4.87747         91.4378 
        2.98209         36.7357         4.82768         90.8137 
        2.99436          36.531         4.77854         90.1724 
        3.00666         36.3278            4.73         89.5672 
        3.01894         36.1163         4.68223         88.9757 
        3.03119         35.8477         4.63519         88.4084 
        3.04345         35.6028         4.58879         87.8289 
        3.05573         35.5877         4.54293          87.232 
          3.068         35.2989         4.49776         86.6604 
        3.08026         35.1122         4.45323         86.0828 
        3.09254          35.076         4.40923         85.5229 
        3.10483         34.9875         4.36582         84.9652 
         3.1171         34.8382         4.32305         84.3967 
        3.12933          34.604         4.28097         83.8363 
        3.14159         34.5898         4.23936         83.2827 
