# k  (h/Mpc)    P(k)  (Mpc/h)^3    P_linear(k)  (Mpc/h)^3     P_NL(k)  ShotnoiseSubtracted = false
      0.0156606         21515.8         21568.4         21398.7 
      0.0273761         18411.6         18616.4         18414.8 
      0.0384619         13908.9         14012.4           13834 
      0.0498308         10734.6         11015.3           10836 
      0.0625568         9064.75         9357.74          9198.2 
      0.0751274         8070.26         7948.27         7724.17 
      0.0867833            6250         6398.12         6328.84 
      0.0984825         5280.41         5062.64         5124.54 
       0.111151         4516.22         4226.78         4303.77 
       0.123864         4045.07         3808.88         3871.18 
       0.135742         3687.88         3424.94         3487.41 
        0.14762         3210.19         2928.36         3094.02 
       0.160083         2726.87         2440.86         2645.14 
       0.172465         2431.92         2130.34         2390.43 
       0.184281         2203.87         1963.87         2224.73 
       0.196406         2078.84         1813.59         2049.21 
       0.209011          1944.7          1613.6         1857.62 
       0.221538         1750.77         1410.11         1734.74 
       0.233611         1678.35         1261.67         1625.96 
       0.245665         1521.14         1164.46         1501.73 
       0.258103         1505.85            1084         1418.08 
       0.270422         1342.94         996.064         1332.43 
       0.282519         1268.47         903.976          1261.7 
       0.294636         1245.52         823.617         1195.33 
       0.306978         1137.82          761.98         1145.67 
       0.319417         1115.22         712.403         1080.27 
        0.33169         1048.17         664.949         1023.22 
       0.343948         1006.06         616.111         991.853 
       0.356249         953.528          570.31         955.241 
       0.368458         915.941         531.948         912.983 
        0.38068         901.077          499.87         878.381 
       0.392856          855.53         470.584         847.881 
       0.405069         811.601         441.948         820.604 
       0.417459         780.498         414.222         791.715 
       0.429752         776.341         389.334         764.153 
       0.441978         749.019         367.489         744.885 
       0.454294         715.867         347.653         714.666 
        0.46658         695.654          329.04         700.088 
       0.478753         682.243         311.481         678.973 
       0.490964         655.656         294.988          658.33 
       0.503334         627.452         279.766         643.768 
       0.515665         625.189         265.884         629.366 
       0.527909         599.255          253.07         616.126 
       0.540159         584.436         240.946         600.576 
        0.55248         572.701         229.442         585.059 
       0.564743         567.931         218.791         575.177 
        0.57686         548.744         209.001          560.05 
       0.589077         538.333         199.759          547.75 
       0.601441         526.284         190.972          537.11 
        0.61382          511.74         182.686         527.775 
       0.626067         506.042         174.955         517.932 
       0.638306         487.435         167.674         507.502 
       0.650632         482.786         160.776         495.385 
       0.662899         478.658         154.312         489.456 
       0.675076         462.745         148.255         482.696 
       0.687267         449.609         142.514         471.276 
       0.699615          447.58         137.006         463.865 
       0.711937         438.657         131.799           455.2 
       0.724148         424.213         126.907         449.085 
       0.736433         414.202         122.239         441.105 
       0.748747         408.895         117.799         433.325 
       0.761037         401.456          113.59          428.05 
       0.773197         395.549          109.63         421.106 
       0.785376         390.157         105.855         415.024 
       0.797761         378.556         102.199         408.773 
       0.810096         374.778         98.7296         403.638 
       0.822371         364.237         95.4386          397.08 
       0.834626         360.893         92.3037         392.399 
       0.846916         354.844         89.3022         386.273 
       0.859215         351.303         86.4331          380.67 
       0.871383         343.109         83.7193         375.646 
        0.88363         339.567         81.1064         371.843 
       0.895928         334.264         78.5957          366.04 
       0.908253         325.888         76.1871         360.082 
       0.920535         320.119         73.8881         356.093 
       0.932774         314.786         71.6923         350.761 
        0.94508         310.002         69.5752         347.214 
       0.957324         307.267         67.5543         342.575 
        0.96953         303.146         65.6203         338.421 
       0.981769         295.544         63.7574         334.698 
       0.994071         294.388         61.9584         330.609 
         1.0064         288.573          60.226         325.803 
        1.01868           285.3         58.5652         321.647 
        1.03092         276.676         56.9748         318.823 
         1.0432         273.879         55.4379         314.968 
        1.05553         270.775          53.952         310.655 
        1.06777         267.554         52.5316         307.207 
           1.08         261.309          51.164         303.793 
        1.09227         260.226         49.8408          300.14 
         1.1046         255.257         48.5597          297.27 
         1.1169         249.493         47.3261         293.307 
        1.12915         246.169         46.1416         290.423 
        1.14142         241.275         44.9953         286.941 
        1.15365         238.463         43.8915         283.923 
        1.16585         234.175         42.8278         280.697 
        1.17807         231.836         41.7983         277.796 
        1.19037         228.132         40.7959          275.42 
        1.20276         225.041         39.8197         271.818 
        1.21504         220.241         38.8832         268.789 
        1.22728         216.939         37.9809         265.713 
        1.23954          215.71         37.1052          263.25 
        1.25184         210.821         36.2555         260.441 
        1.26414         206.538         35.4321         257.955 
        1.27632         205.104         34.6417         255.653 
         1.2886         203.421           33.87         252.696 
        1.30093         198.381         33.1191         249.555 
        1.31316         194.205         32.3965         247.052 
        1.32541         193.106         31.6954         244.569 
        1.33772         189.983         31.0112         242.279 
        1.35005         187.548         30.3469         239.549 
        1.36225         183.904         29.7088         237.311 
        1.37447          181.09         29.0878         234.408 
        1.38676         179.248         28.4819         232.733 
        1.39907         176.591         27.8922          229.94 
        1.41133         173.227         27.3218         227.583 
        1.42358         171.157         26.7679          225.44 
        1.43591         168.968         26.2256         223.359 
        1.44818         165.715         25.7014         221.066 
        1.46037         164.217         25.1946         218.699 
        1.47263         161.032         24.6987         216.725 
        1.48494         159.419         24.2143         214.089 
        1.49724         156.828         23.7433         212.693 
        1.50952         153.916         23.2858          210.33 
        1.52178         152.571         22.8411         208.126 
        1.53409         149.576         22.4062         206.301 
        1.54637          147.41         21.9836         204.598 
        1.55858         145.652         21.5742         202.389 
        1.57081         143.093         21.1748         200.506 
        1.58313         141.187         20.7829         198.463 
        1.59544         138.571         20.4013         196.688 
        1.60767         137.337         20.0316         194.935 
        1.61994          134.92         19.6699         193.053 
        1.63225         132.867         19.3164         191.062 
        1.64452         130.666         18.9725         189.362 
        1.65676         128.923         18.6381         187.728 
          1.669         127.522         18.3115         185.936 
        1.68133         124.979         17.9907         184.239 
        1.69363         122.818         17.6785         182.662 
        1.70585         120.856         17.3758         181.004 
        1.71809          119.29         17.0795         179.049 
        1.73038         117.965         16.7892         177.588 
        1.74268         116.812         16.5054         175.854 
        1.75493         113.858         16.2296         174.413 
        1.76714         113.384         15.9608         172.916 
        1.77942          111.03         15.6966          171.25 
        1.79173         109.254         15.4378         169.708 
        1.80402          108.01         15.1854         168.197 
         1.8163         105.888         14.9388         166.826 
         1.8286         104.546         14.6972          165.21 
         1.8409         103.503         14.4612         163.675 
        1.85315         101.251         14.2311         162.338 
        1.86537         100.435         14.0065         160.985 
        1.87765         99.1302          13.786         159.609 
        1.88995         97.2814         13.5696         158.097 
        1.90221         96.0991         13.3587         156.853 
        1.91445         94.7257         13.1526         155.337 
        1.92674         93.2215         12.9501          153.99 
        1.93902         92.0025         12.7519         152.604 
        1.95124         90.7604         12.5589         151.317 
         1.9635         89.2658         12.3694         149.995 
        1.97583         87.8833         12.1826         148.703 
        1.98812         86.6517         12.0004         147.611 
        2.00039         85.6543         11.8223         146.207 
        2.01264         84.5589          11.648         145.006 
        2.02492         83.5322         11.4769         143.685 
        2.03717         82.1329         11.3095          142.55 
        2.04942         81.2066         11.1458         141.356 
        2.06171         79.6267         10.9846         140.115 
        2.07397         78.7662         10.8271          139.03 
        2.08629         77.6265          10.672         137.818 
        2.09857         76.6214         10.5202         136.709 
        2.11081         75.3241         10.3721         135.448 
        2.12309         74.3354         10.2264         134.438 
        2.13538         73.1976         10.0834         133.254 
        2.14763         72.2426         9.94356         132.183 
        2.15986         71.3213         9.80669         131.008 
        2.17214         70.3878         9.67185          129.98 
        2.18443         69.4417         9.53942         129.076 
        2.19671         68.5081         9.40963         127.957 
        2.20898         67.7129         9.28241         126.812 
        2.22126         66.6719          9.1574          125.87 
        2.23354         65.8875         9.03475         124.861 
         2.2458         64.6065         8.91455         123.832 
        2.25807         63.9279         8.79643         122.829 
        2.27035         63.0002         8.68035         121.827 
        2.28263         62.1986         8.56643         120.896 
         2.2949         61.0763          8.4546         119.942 
        2.30718         60.2488         8.34474         118.975 
        2.31946         59.7398         8.23678         117.955 
        2.33169         58.7352          8.1312         117.067 
        2.34393          58.288          8.0273         116.236 
        2.35622         57.1735         7.92489          115.26 
        2.36847         56.6989         7.82455         114.472 
        2.38076         55.6928         7.72565         113.443 
        2.39305         55.1169         7.62849         112.673 
        2.40534         54.3236         7.53299         111.736 
        2.41762         53.6964         7.43914         110.835 
        2.42989          52.858         7.34703         110.041 
        2.44216         52.3597         7.25649         109.119 
         2.4544         51.5051         7.16768         108.325 
        2.46667          50.851         7.08016         107.497 
        2.47897         50.3183         6.99389         106.618 
        2.49124         49.8066         6.90929         105.835 
        2.50349         49.0756         6.82622          105.04 
        2.51578         48.5537         6.74427         104.336 
        2.52805         47.8893          6.6638         103.457 
        2.54029         47.4059         6.58485         102.659 
        2.55257         46.7674         6.50694         101.955 
        2.56487         46.5119         6.43015         101.205 
        2.57716           45.87          6.3547         100.444 
        2.58942         45.1779         6.28063         99.7017 
        2.60167         44.6368         6.20781         98.9748 
        2.61395         44.2903         6.13604         98.2331 
        2.62624         43.5444          6.0653         97.4531 
        2.63849         43.0953         5.99591         96.7645 
        2.65073         42.5777         5.92767         96.0632 
        2.66302         42.1684         5.86025         95.3387 
         2.6753         41.6941         5.79392         94.6778 
        2.68756         41.3219         5.72876         93.9564 
        2.69983         40.7855         5.66455         93.2989 
        2.71213         40.3624         5.60119         92.6316 
        2.72441         39.9596         5.53891         91.9511 
        2.73665         39.5087         5.47773         91.3205 
         2.7489         39.0716         5.41751         90.6776 
        2.76118         38.7107         5.35801         90.0065 
        2.77349          38.261         5.29926         89.3777 
        2.78576         37.9118         5.24163         88.7154 
        2.79802         37.5861         5.18488         88.1588 
        2.81031         37.0484         5.12884         87.5122 
        2.82259         36.7777         5.07365         86.8631 
        2.83483          36.328         5.01948         86.3029 
         2.8471         36.0396           4.966         85.6746 
         2.8594         35.6643         4.91313         85.0617 
         2.8717         35.4365         4.86105         84.5136 
        2.88396         35.1243         4.80992           83.92 
        2.89619          34.842         4.75962         83.2906 
        2.90847         34.5056         4.70985         82.6875 
        2.92072         34.2804         4.66087         82.1753 
        2.93299         34.1454         4.61257         81.6329 
        2.94526         33.7657         4.56491         81.0585 
        2.95753         33.5446         4.51793         80.4873 
        2.96982         33.2068         4.47154         79.9521 
        2.98209         33.0858         4.42589         79.4221 
        2.99436         32.7885         4.38084         78.8494 
        3.00666         32.7091         4.33634         78.3214 
        3.01894         32.4281         4.29255         77.8002 
        3.03119         32.2872         4.24942         77.2989 
        3.04345         32.1285         4.20688          76.792 
        3.05573          31.915         4.16484         76.2693 
          3.068         31.7855         4.12342         75.7642 
        3.08026         31.6028         4.08261         75.2557 
        3.09254         31.5224         4.04227          74.765 
        3.10483         31.5394         4.00247         74.2756 
         3.1171         31.3625         3.96326         73.7792 
        3.12933         31.1884         3.92468         73.2894 
        3.14159         31.1373         3.88653         72.7952 
