# k  (h/Mpc)    Pcb(k)  (Mpc/h)^3    Pcb_linear(k) (Mpc/h)^3    Pcb_NL(k) (Mpc/h)^3   ShotnoiseSubtracted = false
      0.0156606         489.399         490.047         487.805 
      0.0273761         426.867         424.268         423.445 
      0.0384619         324.167         319.819         319.855 
      0.0498308         255.238         251.634         251.845 
      0.0625568         215.461         213.897          213.83 
      0.0751274         184.273         181.749         181.503 
      0.0867833         147.637         146.337         146.316 
      0.0984825         118.188         115.813         115.985 
       0.111151         98.7284         96.7048         96.8527 
       0.123864         88.6171         87.1527         87.1893 
       0.135742         79.5021         78.3733         78.3773 
        0.14762         67.6757          67.014         67.1364 
       0.160083         56.3749         55.8607          56.041 
       0.172465         49.3144         48.7561          48.962 
       0.184281         45.5866         44.9477         45.1442 
       0.196406         41.7694         41.5092         41.6387 
       0.209011         37.3369         36.9328         37.0947 
       0.221538         32.8356          32.276         32.5256 
       0.233611         29.3909         28.8787          29.157 
       0.245665         27.3544          26.654         26.8938 
       0.258103         24.9351         24.8127          25.045 
       0.270422         23.1971            22.8         23.0212 
       0.282519         21.0517         20.6923         20.9396 
       0.294636         19.4844          18.853          19.116 
       0.306978          17.606         17.4423         17.7118 
       0.319417         16.6332         16.3075         16.5676 
        0.33169         15.4832         15.2213         15.4703 
       0.343948         14.4758         14.1035         14.3506 
       0.356249         13.2752         13.0551         13.3432 
       0.368458          12.489          12.177         12.4291 
        0.38068         11.6564         11.4427         11.6934 
       0.392856         10.9717         10.7723         11.0253 
       0.405069         10.3532         10.1169         10.3545 
       0.417459         9.56284         9.48222         9.73489 
       0.429752         9.07051          8.9125         9.16018 
       0.441978         8.60618         8.41247          8.6763 
       0.454294         8.07552         7.95839         8.20689 
        0.46658         7.76424         7.53235         7.77418 
       0.478753         7.29378         7.13042            7.37 
       0.490964         6.97648         6.75288         7.00926 
       0.503334         6.63753          6.4044         6.64233 
       0.515665         6.24871         6.08664         6.33808 
       0.527909         5.99033         5.79329         6.02462 
       0.540159         5.66993         5.51577         5.74255 
        0.55248         5.35934         5.25242         5.46803 
       0.564743         5.21346         5.00859         5.24284 
        0.57686         4.96913         4.78448         5.00814 
       0.589077         4.68232         4.57293         4.80567 
       0.601441         4.50063         4.37177         4.59844 
        0.61382         4.30863         4.18211         4.39996 
       0.626067         4.11397         4.00512         4.22029 
       0.638306         3.96248         3.83845         4.04917 
       0.650632         3.83351         3.68055         3.89486 
       0.662899          3.6685         3.53257         3.73856 
       0.675076         3.48859          3.3939         3.60005 
       0.687267         3.35276         3.26249         3.45703 
       0.699615         3.26616          3.1364         3.32875 
       0.711937         3.11722          3.0172         3.21553 
       0.724148         3.03363         2.90521         3.09822 
       0.736433         2.89327         2.79834          2.9827 
       0.748747         2.79499          2.6967         2.88946 
       0.761037          2.6963         2.60035         2.78571 
       0.773197         2.59101          2.5097         2.69804 
       0.785376         2.49791         2.42327         2.60598 
       0.797761         2.41478         2.33958         2.51497 
       0.810096         2.35611         2.26017         2.44224 
       0.822371          2.2883         2.18483         2.35776 
       0.834626         2.21039         2.11306         2.28202 
       0.846916         2.13278         2.04435         2.21985 
       0.859215         2.04484         1.97867         2.15359 
       0.871383         1.98404         1.91655         2.08527 
        0.88363         1.92727         1.85673         2.02465 
       0.895928          1.8798         1.79926         1.96315 
       0.908253         1.82135         1.74412         1.90723 
       0.920535         1.76827         1.69149         1.84977 
       0.932774         1.71023         1.64122         1.79466 
        0.94508         1.66528         1.59276         1.74559 
       0.957324         1.62118         1.54649         1.70189 
        0.96953         1.56543         1.50222         1.65426 
       0.981769         1.51547         1.45957         1.60542 
       0.994071         1.48053         1.41839         1.56906 
         1.0064         1.43778         1.37873         1.52454 
        1.01868         1.39459         1.34071         1.48577 
        1.03092         1.37214          1.3043         1.44429 
         1.0432         1.32857         1.26912         1.40852 
        1.05553         1.29193          1.2351         1.37526 
        1.06777         1.25499         1.20259         1.34093 
           1.08         1.22946         1.17128         1.30686 
        1.09227         1.18743         1.14099         1.27401 
         1.1046         1.16058         1.11166         1.24507 
         1.1169         1.13026         1.08342          1.2151 
        1.12915         1.10278          1.0563         1.18602 
        1.14142         1.08078         1.03006         1.15847 
        1.15365         1.05476         1.00479           1.132 
        1.16585         1.02788        0.980443         1.10497 
        1.17807         1.01134        0.956873         1.08187 
        1.19037        0.971974        0.933926         1.05577 
        1.20276        0.954646        0.911578         1.03028 
        1.21504        0.934998        0.890142         1.01215 
        1.22728         0.91816        0.869485        0.986201 
        1.23954        0.894476        0.849437        0.967949 
        1.25184        0.878489        0.829985         0.94503 
        1.26414        0.857111        0.811135        0.924908 
        1.27632        0.831695        0.793042        0.905318 
         1.2886        0.813847        0.775375        0.885147 
        1.30093        0.792801        0.758186        0.869991 
        1.31316        0.770789        0.741644        0.850864 
        1.32541        0.758723        0.725594        0.834738 
        1.33772         0.74572        0.709931        0.817793 
        1.35005        0.732867        0.694722        0.801801 
        1.36225        0.715215        0.680114        0.784961 
        1.37447        0.700127        0.665899        0.771053 
        1.38676        0.686961        0.652027        0.754719 
        1.39907         0.67247        0.638527        0.740857 
        1.41133        0.655696         0.62547        0.726831 
        1.42358        0.647552         0.61279         0.71153 
        1.43591        0.633123        0.600376         0.70034 
        1.44818        0.620656        0.588375        0.687729 
        1.46037        0.606845        0.576773         0.67334 
        1.47263         0.59563        0.565421        0.661944 
        1.48494         0.58493        0.554332        0.650664 
        1.49724        0.573715        0.543549        0.639064 
        1.50952        0.561313        0.533076        0.625255 
        1.52178        0.550872        0.522895        0.614881 
        1.53409        0.541803        0.512939        0.604605 
        1.54637        0.528442        0.503264        0.593391 
        1.55858        0.521172        0.493893        0.583214 
        1.57081        0.514114        0.484748        0.572827 
        1.58313        0.502796        0.475778        0.563851 
        1.59544        0.494823        0.467041        0.553744 
        1.60767         0.48603        0.458579        0.544586 
        1.61994        0.475429        0.450298        0.536291 
        1.63225        0.466546        0.442204        0.527419 
        1.64452        0.460501        0.434332        0.518074 
        1.65676        0.453336        0.426677        0.509946 
          1.669        0.445487        0.419201        0.501285 
        1.68133        0.436387        0.411856        0.493598 
        1.69363        0.428952         0.40471        0.485937 
        1.70585        0.422272        0.397779         0.47785 
        1.71809        0.414361        0.390996        0.470271 
        1.73038        0.407901         0.38435        0.463245 
        1.74268        0.399533        0.377855        0.455322 
        1.75493        0.396365         0.37154        0.449331 
        1.76714        0.387828        0.365385        0.442238 
        1.77942        0.382152        0.359339        0.435615 
        1.79173        0.376173        0.353415        0.428119 
        1.80402        0.369592        0.347636        0.422343 
         1.8163        0.364671         0.34199        0.414939 
         1.8286        0.356748        0.336459        0.410463 
         1.8409         0.35291        0.331056        0.403489 
        1.85315        0.347734         0.32579        0.397604 
        1.86537        0.340026        0.320648        0.391829 
        1.87765        0.335736        0.315599        0.386378 
        1.88995        0.332041        0.310647        0.381026 
        1.90221        0.327102        0.305818        0.375308 
        1.91445        0.321454        0.301099        0.370232 
        1.92674        0.316268        0.296464        0.364898 
        1.93902        0.310738        0.291927        0.359482 
        1.95124        0.306289        0.287508        0.354532 
         1.9635        0.302901         0.28317        0.349505 
        1.97583        0.298553        0.278894        0.344618 
        1.98812        0.294031        0.274723         0.34045 
        2.00039        0.291035        0.270645         0.33537 
        2.01264         0.28653        0.266654        0.331114 
        2.02492        0.282665        0.262738        0.326529 
        2.03717         0.27706        0.258907        0.322214 
        2.04942        0.274644        0.255157        0.317796 
        2.06171        0.270342        0.251469        0.313556 
        2.07397        0.265999        0.247862        0.309593 
        2.08629         0.26346        0.244311        0.305403 
        2.09857        0.259265        0.240837        0.301518 
        2.11081        0.255366        0.237446        0.297139 
        2.12309        0.252339        0.234112        0.294025 
        2.13538        0.248734        0.230837        0.290005 
        2.14763        0.246288        0.227635        0.286485 
        2.15986        0.242148        0.224502        0.282932 
        2.17214        0.239335        0.221416        0.279295 
        2.18443        0.236909        0.218384        0.275751 
        2.19671        0.233309        0.215412        0.272587 
        2.20898        0.231094          0.2125        0.268915 
        2.22126        0.227238        0.209638        0.265874 
        2.23354         0.22526         0.20683        0.262719 
         2.2458        0.222449        0.204079        0.258884 
        2.25807        0.219848        0.201375        0.256264 
        2.27035        0.216554        0.198717        0.253164 
        2.28263        0.214032        0.196109        0.250239 
         2.2949        0.211911        0.193549        0.246923 
        2.30718         0.20876        0.191034        0.244127 
        2.31946        0.207551        0.188563        0.241352 
        2.33169        0.203882        0.186146        0.238485 
        2.34393         0.20158        0.183767        0.235947 
        2.35622        0.199759        0.181423        0.233011 
        2.36847        0.198052        0.179126         0.23039 
        2.38076        0.195526        0.176862        0.227819 
        2.39305        0.192915        0.174637        0.225135 
        2.40534        0.190688        0.172451        0.222566 
        2.41762         0.18931        0.170302        0.220074 
        2.42989        0.186556        0.168194        0.217517 
        2.44216        0.184614        0.166121        0.215199 
         2.4544        0.182752        0.164088        0.212884 
        2.46667        0.180604        0.162085        0.210362 
        2.47897        0.178587         0.16011        0.208018 
        2.49124        0.176829        0.158173        0.205803 
        2.50349        0.175104        0.156271        0.203455 
        2.51578         0.17302        0.154395        0.201218 
        2.52805        0.171786        0.152553         0.19913 
        2.54029        0.170424        0.150746        0.197066 
        2.55257        0.168351        0.148962        0.195002 
        2.56487        0.166737        0.147204        0.192907 
        2.57716        0.165284        0.145477        0.190792 
        2.58942          0.1635        0.143781        0.188699 
        2.60167        0.162096        0.142114        0.186799 
        2.61395        0.160737        0.140471        0.184838 
        2.62624        0.159052        0.138852        0.182949 
        2.63849        0.157752        0.137263        0.181063 
        2.65073         0.15593        0.135701        0.179186 
        2.66302        0.154988        0.134157        0.177266 
         2.6753        0.153463        0.132639        0.175494 
        2.68756        0.152567        0.131147        0.173748 
        2.69983        0.150889        0.129677        0.171764 
        2.71213        0.149409        0.128227        0.170197 
        2.72441        0.148146        0.126801        0.168574 
        2.73665        0.147152        0.125401        0.166862 
         2.7489        0.146846        0.124022        0.165211 
        2.76118        0.145543         0.12266        0.163542 
        2.77349        0.143772        0.121315        0.162016 
        2.78576        0.143176        0.119995        0.160534 
        2.79802        0.141724        0.118696        0.158643 
        2.81031        0.141013        0.117413        0.157235 
        2.82259        0.139832         0.11615         0.15572 
        2.83483        0.138677         0.11491        0.154111 
         2.8471        0.137948        0.113686        0.152826 
         2.8594        0.137481        0.112475        0.151394 
         2.8717        0.136256        0.111283        0.149828 
        2.88396        0.135829        0.110113        0.148486 
        2.89619         0.13495        0.108961        0.147133 
        2.90847         0.13419        0.107822        0.145699 
        2.92072        0.133019          0.1067        0.144262 
        2.93299        0.132543        0.105595        0.142938 
        2.94526        0.131823        0.104503         0.14167 
        2.95753        0.130772        0.103428        0.140331 
        2.96982        0.130485        0.102366        0.138955 
        2.98209        0.129537        0.101321        0.137696 
        2.99436        0.129476         0.10029        0.136457 
        3.00666        0.128981       0.0992709         0.13514 
        3.01894         0.12849       0.0982684        0.133987 
        3.03119        0.127863       0.0972811        0.132816 
        3.04345        0.127362       0.0963073        0.131616 
        3.05573        0.127401       0.0953448        0.130435 
          3.068         0.12692       0.0943966        0.129236 
        3.08026        0.126249       0.0934623        0.128156 
        3.09254        0.126462       0.0925388        0.127019 
        3.10483        0.126091       0.0916276        0.125911 
         3.1171        0.125685         0.09073         0.12476 
        3.12933         0.12556       0.0898469        0.123533 
        3.14159        0.125157       0.0889736        0.122586 
