# k  (h/Mpc)    Pcb(k)  (Mpc/h)^3    Pcb_linear(k) (Mpc/h)^3    Pcb_NL(k) (Mpc/h)^3   ShotnoiseSubtracted = false
      0.0156606         11718.1         11753.9         11680.1 
      0.0273761         10102.9         10164.9         10098.1 
      0.0384619         7664.82         7658.89          7607.4 
      0.0498308          5955.8         6024.57         5975.49 
      0.0625568         5027.62         5120.32          5074.3 
      0.0751274         4434.21         4350.36         4283.29 
      0.0867833         3463.03         3502.56         3484.72 
      0.0984825         2876.32         2771.85         2796.91 
       0.111151         2436.16         2314.46         2341.69 
       0.123864         2186.94         2085.81         2108.56 
       0.135742          1979.2         1875.67         1899.01 
        0.14762         1703.66         1603.79         1663.44 
       0.160083         1423.12         1336.86         1406.95 
       0.172465         1267.78         1166.82         1254.56 
       0.184281         1165.54         1075.67         1166.47 
       0.196406         1074.17         993.381         1069.54 
       0.209011         989.471         883.857         965.095 
       0.221538         891.953         772.408         884.983 
       0.233611         831.488         691.105         817.609 
       0.245665         767.808         637.864         752.272 
       0.258103         727.413         593.797         707.426 
       0.270422          661.67          545.63         659.138 
       0.282519         610.434          495.19          614.45 
       0.294636         604.596         451.173         576.356 
       0.306978          539.34         417.411         547.407 
       0.319417         519.781         390.256         514.842 
        0.33169         489.075         364.262         484.564 
       0.343948         466.083          337.51         464.757 
       0.356249         436.597         312.421         444.169 
       0.368458         423.428         291.407         419.257 
        0.38068         405.682         273.834         400.299 
       0.392856         380.617         257.792         383.777 
       0.405069         365.419         242.106         370.527 
       0.417459         349.375         226.918         351.509 
       0.429752         337.863         213.284         338.344 
       0.441978         326.797         201.318         327.888 
       0.454294         306.686         190.451         312.792 
        0.46658         304.418         180.255         304.037 
       0.478753         291.515         170.637         293.292 
       0.490964         281.714         161.602         282.949 
       0.503334         265.847         153.263         274.728 
       0.515665         263.066         145.658         268.362 
       0.527909         254.854         138.638         259.133 
       0.540159         247.658         131.997         251.688 
        0.55248         242.638         125.695         244.102 
       0.564743          236.56         119.859         238.772 
        0.57686         228.088         114.496         231.294 
       0.589077         219.024         109.434         226.264 
       0.601441         215.751          104.62         220.749 
        0.61382         213.386         100.081         215.341 
       0.626067         207.819         95.8456         210.212 
       0.638306         198.361         91.8572         205.942 
       0.650632         193.183         88.0783         199.373 
       0.662899         192.934         84.5372          195.95 
       0.675076         185.892         81.2185         191.565 
       0.687267         181.117         78.0739         187.363 
       0.699615          177.55         75.0564         183.622 
       0.711937         173.356         72.2039         179.877 
       0.724148         170.107         69.5238         177.237 
       0.736433         165.992         66.9665         173.143 
       0.748747         162.348          64.534         169.609 
       0.761037         159.891         62.2283         166.149 
       0.773197          156.61          60.059          164.25 
       0.785376         154.744         57.9907         160.534 
       0.797761         151.497         55.9878         158.484 
       0.810096         147.963         54.0875         155.419 
       0.822371         143.247         52.2846         152.803 
       0.834626         141.531         50.5672         150.193 
       0.846916         139.931         48.9228          147.93 
       0.859215          138.17         47.3511         145.478 
       0.871383         135.347         45.8644         143.036 
        0.88363         132.851          44.433         141.355 
       0.895928         130.232         43.0575         139.338 
       0.908253         126.746          41.738         136.768 
       0.920535          126.16         40.4785         135.032 
       0.932774         122.461         39.2756          132.75 
        0.94508         121.502         38.1158         131.066 
       0.957324         120.105         37.0087         129.204 
        0.96953         119.448         35.9492           127.1 
       0.981769         115.634         34.9286         125.935 
       0.994071         114.872         33.9431         124.132 
         1.0064         112.102          32.994         122.306 
        1.01868         111.057         32.0842         120.907 
        1.03092         109.078         31.2129         119.409 
         1.0432         107.207         30.3709         117.827 
        1.05553         104.711         29.5569         116.663 
        1.06777         104.535         28.7787          115.31 
           1.08         102.469         28.0295         113.771 
        1.09227         101.045         27.3046         112.419 
         1.1046         99.2749         26.6028         111.035 
         1.1169          98.118          25.927         109.517 
        1.12915         96.7077         25.2781         108.375 
        1.14142         95.1087         24.6501         107.023 
        1.15365          93.286         24.0454         105.826 
        1.16585         92.1845         23.4627         104.555 
        1.17807         90.7331         22.8987         103.634 
        1.19037         90.5624         22.3495         102.548 
        1.20276          88.567         21.8147         101.327 
        1.21504         87.9391         21.3017         100.129 
        1.22728         86.0087         20.8074         99.1188 
        1.23954         85.3592         20.3276         97.9908 
        1.25184          83.656         19.8621         97.0648 
        1.26414         82.5753          19.411         96.0689 
        1.27632         81.7731         18.9781          95.396 
         1.2886         80.4266         18.5553          94.031 
        1.30093         79.2807         18.1439          92.976 
        1.31316         78.4795         17.7481         92.2777 
        1.32541          77.707          17.364         91.3701 
        1.33772         76.4936         16.9892         90.4241 
        1.35005         75.7922         16.6252         89.5279 
        1.36225         74.6179         16.2756         88.6437 
        1.37447         72.9904         15.9354         87.6995 
        1.38676         73.0309         15.6035         86.7519 
        1.39907         71.5976         15.2804         86.1281 
        1.41133         70.3586         14.9679         85.4569 
        1.42358         69.5839         14.6645         84.3985 
        1.43591         69.0844         14.3674         83.6522 
        1.44818         68.0906         14.0802         82.8059 
        1.46037         67.2406         13.8026         82.1705 
        1.47263         66.2183         13.5309         81.5039 
        1.48494         65.5308         13.2655          80.675 
        1.49724         64.4762         13.0075         79.8566 
        1.50952         63.9985         12.7569         79.0999 
        1.52178         63.1561         12.5132         78.4935 
        1.53409         62.6084          12.275         77.8161 
        1.54637          61.108         12.0434         77.0551 
        1.55858          60.514         11.8192         76.3177 
        1.57081          60.035         11.6004         75.7686 
        1.58313         59.0547         11.3857         75.1421 
        1.59544         58.3046         11.1766         74.3946 
        1.60767         57.7273         10.9741           73.78 
        1.61994         56.8473         10.7759         73.2437 
        1.63225         56.1354         10.5823         72.4421 
        1.64452         55.5297         10.3939         71.9337 
        1.65676          54.702         10.2107         71.2473 
          1.669         54.3286         10.0318         70.7131 
        1.68133         53.7542         9.85601         70.0614 
        1.69363         52.8167         9.68499         69.5685 
        1.70585         52.5135         9.51912         68.9731 
        1.71809         51.4037         9.35681         68.4287 
        1.73038         51.0259         9.19777         67.8391 
        1.74268         50.3105         9.04233         67.2657 
        1.75493         49.7842         8.89121          66.703 
        1.76714         49.1685         8.74393         66.1406 
        1.77942         48.8726         8.59924         65.6345 
        1.79173         48.0185         8.45745         65.0274 
        1.80402         47.5807         8.31917         64.6032 
         1.8163         46.9537         8.18405         63.9887 
         1.8286         46.2924          8.0517         63.6136 
         1.8409          45.727          7.9224         62.9815 
        1.85315         45.2341         7.79637         62.6224 
        1.86537         44.7027         7.67334         62.0918 
        1.87765         44.2775         7.55251         61.5153 
        1.88995         43.6676         7.43399          61.019 
        1.90221         43.3075         7.31843         60.5434 
        1.91445         42.6225         7.20551         60.1449 
        1.92674            42.2          7.0946         59.6219 
        1.93902          41.738         6.98601         59.1429 
        1.95124         41.3254         6.88028         58.7686 
         1.9635          40.649         6.77646         58.2538 
        1.97583         40.2886         6.67413         57.8812 
        1.98812         39.6207         6.57431         57.3777 
        2.00039         39.3937         6.47673         56.9265 
        2.01264         38.7612         6.38122         56.5477 
        2.02492         38.4351          6.2875         56.1209 
        2.03717         37.8747         6.19582         55.6478 
        2.04942         37.4295         6.10608         55.2475 
        2.06171         37.0891         6.01783         54.7814 
        2.07397         36.5711         5.93151          54.427 
        2.08629          36.182         5.84652         53.9886 
        2.09857         35.8579          5.7634         53.6312 
        2.11081         35.3418         5.68224         53.1911 
        2.12309         35.0245         5.60245         52.7871 
        2.13538         34.5325         5.52408         52.4488 
        2.14763         34.2221         5.44747         52.0428 
        2.15986         34.0167          5.3725         51.6323 
        2.17214         33.3972         5.29863         51.3309 
        2.18443         33.1406         5.22607         50.8701 
        2.19671         32.6323         5.15497         50.5062 
        2.20898          32.206         5.08527         50.1255 
        2.22126         32.0548         5.01679         49.7534 
        2.23354         31.6375         4.94959         49.4542 
         2.2458         31.3079         4.88374         49.0687 
        2.25807         30.7864         4.81903         48.6925 
        2.27035         30.4903         4.75544         48.3636 
        2.28263          30.141         4.69303         48.0274 
         2.2949          29.885         4.63177         47.6873 
        2.30718         29.5678         4.57158         47.3277 
        2.31946         29.2515         4.51244         46.9965 
        2.33169         28.9553         4.45459         46.6494 
        2.34393         28.5607         4.39768         46.2919 
        2.35622         28.2369         4.34157          46.023 
        2.36847         27.9185          4.2866         45.6472 
        2.38076         27.6796         4.23242         45.3756 
        2.39305         27.3504         4.17919         45.0607 
        2.40534         27.0945         4.12687         44.6792 
        2.41762         26.7193         4.07546         44.3975 
        2.42989         26.5385         4.02499         44.0872 
        2.44216         26.2146         3.97539         43.7883 
         2.4544         25.9517         3.92674          43.496 
        2.46667         25.5978         3.87879          43.176 
        2.47897         25.3968         3.83153         42.8934 
        2.49124         25.1728         3.78519         42.5859 
        2.50349         24.8494         3.73968         42.3214 
        2.51578         24.5094         3.69478         42.0337 
        2.52805         24.3487          3.6507         41.7248 
        2.54029         24.1486         3.60744         41.4429 
        2.55257         23.8944         3.56476         41.1587 
        2.56487         23.6759         3.52269         40.8808 
        2.57716         23.4082         3.48136         40.5896 
        2.58942         23.1675         3.44078         40.3472 
        2.60167         22.9396         3.40089         40.0498 
        2.61395         22.7272         3.36157         39.7798 
        2.62624         22.5343         3.32281         39.5278 
        2.63849         22.3594          3.2848         39.2584 
        2.65073         22.0827         3.24741         38.9774 
        2.66302         21.8057         3.21048         38.7404 
         2.6753         21.6924         3.17414         38.4855 
        2.68756         21.5269         3.13844          38.249 
        2.69983         21.3324         3.10327         37.9659 
        2.71213          21.137         3.06856         37.7227 
        2.72441         20.9702         3.03444         37.4553 
        2.73665         20.7511         3.00092         37.2093 
         2.7489         20.5432         2.96793         36.9708 
        2.76118         20.4189         2.93533         36.7035 
        2.77349         20.3085         2.90315         36.4874 
        2.78576         20.0758         2.87157         36.2581 
        2.79802         19.8748         2.84048         36.0136 
        2.81031         19.7726         2.80978         35.7973 
        2.82259         19.6719         2.77955         35.5588 
        2.83483         19.4191         2.74987          35.312 
         2.8471         19.3664         2.72057         35.0754 
         2.8594         19.2004         2.69161         34.8603 
         2.8717         19.0216         2.66308         34.6268 
        2.88396         18.8562         2.63507         34.3948 
        2.89619          18.824         2.60751         34.1845 
        2.90847         18.6793         2.58024         33.9631 
        2.92072         18.5262         2.55341         33.7586 
        2.93299         18.4687         2.52695         33.5498 
        2.94526         18.3767         2.50084         33.3305 
        2.95753         18.2813          2.4751         33.1156 
        2.96982         18.2155         2.44969         32.9112 
        2.98209         18.0644         2.42468         32.7074 
        2.99436         18.0366             2.4         32.5003 
        3.00666         17.9113         2.37562          32.289 
        3.01894          17.853         2.35163         32.0765 
        3.03119         17.7049           2.328         31.8752 
        3.04345          17.743          2.3047         31.6844 
        3.05573         17.6559         2.28167          31.487 
          3.068         17.5811         2.25898         31.2777 
        3.08026         17.5701         2.23662         31.0861 
        3.09254         17.4928         2.21452         30.9002 
        3.10483         17.4576         2.19271          30.712 
         3.1171         17.4671         2.17123         30.5242 
        3.12933         17.4081          2.1501         30.3346 
        3.14159         17.3411          2.1292         30.1411 
