# k  (h/Mpc)    Pcb(k)  (Mpc/h)^3    Pcb_linear(k) (Mpc/h)^3    Pcb_NL(k) (Mpc/h)^3   ShotnoiseSubtracted = false
      0.0156606         15770.7           15835         15725.2 
      0.0273761           13562         13692.4         13577.9 
      0.0384619         10276.3         10316.1         10220.5 
      0.0498308         7962.87         8114.43         8020.35 
      0.0625568         6724.21         6896.34         6810.65 
      0.0751274         5958.79         5859.22          5736.9 
      0.0867833         4635.28         4717.33         4681.77 
      0.0984825         3879.88         3733.17         3772.23 
       0.111151         3300.47         3117.14         3161.99 
       0.123864         2960.49         2809.17         2846.09 
       0.135742          2687.4         2526.15         2563.68 
        0.14762         2325.74         2159.98         2258.85 
       0.160083         1955.01         1800.47         1919.31 
       0.172465         1743.56         1571.47         1721.67 
       0.184281          1593.3          1448.7          1601.8 
       0.196406         1481.93         1337.87         1470.82 
       0.209011         1374.79         1190.37         1329.84 
       0.221538         1240.28         1040.27          1230.7 
       0.233611          1171.5          930.77         1145.01 
       0.245665         1071.07         859.065         1054.74 
       0.258103         1037.43         799.716         993.733 
       0.270422          932.34         734.846         929.535 
       0.282519         869.478         666.914         872.439 
       0.294636          860.62         607.633         822.431 
       0.306978         775.304         562.162         784.661 
       0.319417          752.06         525.589         738.753 
        0.33169         708.705         490.581         696.932 
       0.343948         676.132         454.552         672.628 
       0.356249         636.349         420.763          645.27 
       0.368458         616.696         392.462         612.134 
        0.38068         597.209         368.794         586.466 
       0.392856         563.511         347.189         563.734 
       0.405069         539.058         326.063         546.221 
       0.417459          517.18         305.608         521.469 
       0.429752         505.048         287.246         502.697 
       0.441978         488.316          271.13         488.453 
       0.454294         462.522         256.496         467.322 
        0.46658          453.36         242.764         456.118 
       0.478753         439.928          229.81         440.926 
       0.490964         423.832         217.642         426.483 
       0.503334          401.15         206.411         415.352 
       0.515665         399.904         196.169         406.319 
       0.527909         385.384         186.715         395.012 
       0.540159         375.665          177.77         383.931 
        0.55248         368.313         169.283         373.419 
       0.564743         363.018         161.424         366.417 
        0.57686         348.952         154.201         355.789 
       0.589077         337.246         147.383         347.928 
       0.601441         333.522           140.9         340.075 
        0.61382         327.392         134.787         333.475 
       0.626067         321.943         129.083         326.207 
       0.638306         307.971         123.711         319.985 
       0.650632         302.846         118.622         310.763 
       0.662899          300.52         113.853         306.814 
       0.675076         288.957         109.383         300.948 
       0.687267         281.777         105.148         293.989 
       0.699615         277.575         101.084         288.904 
       0.711937         273.108         97.2426         283.703 
       0.724148         264.934         93.6332         279.431 
       0.736433         259.206          90.189         273.713 
       0.748747         254.961         86.9131         268.502 
       0.761037         250.426         83.8077         264.188 
       0.773197         247.026         80.8862         260.675 
       0.785376         243.564         78.1007          255.91 
       0.797761         237.682         75.4032         252.169 
       0.810096         234.704         72.8438         248.477 
       0.822371         225.846         70.4157         244.354 
       0.834626         225.229         68.1028          240.67 
       0.846916         220.586         65.8882         237.162 
       0.859215         220.394         63.7714         233.711 
       0.871383          214.46         61.7691         230.075 
        0.88363         212.733         59.8414         227.684 
       0.895928         207.817         57.9889         224.138 
       0.908253         202.133         56.2119         220.411 
       0.920535         201.425         54.5156         217.446 
       0.932774          194.86         52.8956         214.412 
        0.94508         193.078         51.3335         212.161 
       0.957324         192.625         49.8425         208.971 
        0.96953         189.972         48.4156         205.934 
       0.981769         184.071         47.0411         204.043 
       0.994071          183.22         45.7138         201.362 
         1.0064          179.01         44.4356         198.302 
        1.01868         176.604         43.2103         196.064 
        1.03092         173.473         42.0368         193.967 
         1.0432         170.099         40.9029          191.55 
        1.05553         167.493         39.8066         189.242 
        1.06777         167.309         38.7586         187.327 
           1.08         163.168         37.7495         184.884 
        1.09227         161.262         36.7733         182.988 
         1.1046         158.735         35.8281         180.944 
         1.1169         156.294         34.9179         178.476 
        1.12915         153.907          34.044         176.779 
        1.14142         151.458         33.1982         174.472 
        1.15365         149.474         32.3839         172.641 
        1.16585         147.378         31.5991          170.39 
        1.17807         145.333         30.8394         169.161 
        1.19037         144.368         30.0998         167.405 
        1.20276           141.7         29.3796         165.349 
        1.21504          139.56         28.6887         163.571 
        1.22728         136.822         28.0229          161.55 
        1.23954         136.199         27.3768         160.288 
        1.25184         133.516         26.7499         158.466 
        1.26414         131.551         26.1424         156.804 
        1.27632         131.033         25.5592         155.943 
         1.2886         128.687         24.9898         153.723 
        1.30093         125.251         24.4358         152.082 
        1.31316         124.738         23.9027         150.439 
        1.32541         122.932         23.3854         149.313 
        1.33772         121.735         22.8806         147.695 
        1.35005          120.06         22.3904          146.05 
        1.36225         118.595         21.9196          144.75 
        1.37447         116.449         21.4615          143.13 
        1.38676         115.457         21.0144         141.691 
        1.39907         113.009         20.5793         140.393 
        1.41133         111.504         20.1585         139.234 
        1.42358         109.924         19.7498         137.889 
        1.43591         109.067         19.3497         136.338 
        1.44818         108.012         18.9629         135.219 
        1.46037         105.892          18.589         133.841 
        1.47263         104.715         18.2232         132.834 
        1.48494         103.449         17.8658         131.358 
        1.49724         101.911         17.5182         130.045 
        1.50952         100.125         17.1807         128.904 
        1.52178         99.4837         16.8526         127.678 
        1.53409         98.0061         16.5317         126.585 
        1.54637         96.3783         16.2199         125.457 
        1.55858         95.0291         15.9178         124.224 
        1.57081         93.6928         15.6231         123.154 
        1.58313          92.631          15.334         121.999 
        1.59544         91.6135         15.0524         120.927 
        1.60767         90.2464         14.7797         119.763 
        1.61994         88.8961         14.5128         118.982 
        1.63225         87.6618         14.2519         117.537 
        1.64452         86.3182         13.9982         116.569 
        1.65676         85.1724         13.7515         115.607 
          1.669         84.5762         13.5106         114.674 
        1.68133         83.2641         13.2739         113.585 
        1.69363         82.3344         13.0435         112.663 
        1.70585          81.074         12.8201         111.616 
        1.71809         79.8652         12.6015         110.685 
        1.73038          79.129         12.3873         109.666 
        1.74268         77.8475          12.178         108.732 
        1.75493         77.1087         11.9745         107.753 
        1.76714         75.8255         11.7761         106.878 
        1.77942         75.2177         11.5813         105.894 
        1.79173         73.9246         11.3903         105.038 
        1.80402         73.2312         11.2041         104.208 
         1.8163         72.1502         11.0221          103.15 
         1.8286         71.1202         10.8439         102.385 
         1.8409          70.329         10.6697         101.496 
        1.85315         69.2201            10.5         100.722 
        1.86537         68.5002         10.3343         99.8405 
        1.87765         67.7979         10.1715         98.8974 
        1.88995         66.7332         10.0119         98.1804 
        1.90221          65.916          9.8563         97.3326 
        1.91445         64.7018         9.70423         96.5323 
        1.92674         64.0675         9.55485         95.7557 
        1.93902         63.2497          9.4086         94.8941 
        1.95124         62.7776          9.2662         94.2288 
         1.9635         61.6642         9.12639         93.2864 
        1.97583          61.001         8.98858         92.6729 
        1.98812         60.2594         8.85414         91.8513 
        2.00039         59.2674         8.72271          91.107 
        2.01264          58.759         8.59408         90.3441 
        2.02492         57.8846         8.46786         89.6386 
        2.03717         57.0519         8.34439         88.8428 
        2.04942         56.4942         8.22354          88.228 
        2.06171         55.5558         8.10468         87.4596 
        2.07397         54.9734         7.98842         86.8166 
        2.08629         54.4547         7.87396         86.0579 
        2.09857         53.6974         7.76202         85.4007 
        2.11081         52.6014         7.65272         84.6431 
        2.12309         52.3377         7.54526         84.0561 
        2.13538          51.556         7.43971         83.3614 
        2.14763         50.9841         7.33654         82.7098 
        2.15986         50.0721         7.23556         82.0435 
        2.17214         49.5798         7.13607         81.4159 
        2.18443         49.1239         7.03836         80.8152 
        2.19671          48.233          6.9426         80.1266 
        2.20898         48.0108         6.84873          79.507 
        2.22126         47.2462          6.7565         78.8534 
        2.23354         46.6052           6.666         78.2884 
         2.2458         46.1064         6.57732         77.7094 
        2.25807          45.654         6.49017         77.0466 
        2.27035         45.0491         6.40453         76.4554 
        2.28263         44.3316         6.32047         75.8505 
         2.2949          43.916         6.23796         75.2847 
        2.30718         43.2925         6.15691         74.7371 
        2.31946         42.7157         6.07725         74.1867 
        2.33169         42.2161         5.99935         73.6046 
        2.34393         41.5195         5.92269         73.0447 
        2.35622         41.2879         5.84713         72.4811 
        2.36847          40.755          5.7731         71.9687 
        2.38076         40.2804         5.70013         71.3915 
        2.39305         39.7501         5.62844         70.8793 
        2.40534         39.3649         5.55798         70.2951 
        2.41762          38.959         5.48873         69.7474 
        2.42989         38.3217         5.42077         69.2893 
        2.44216         38.0564         5.35397         68.7524 
         2.4544         37.6046         5.28845         68.2382 
        2.46667         37.1639         5.22387         67.6985 
        2.47897         36.7275         5.16022         67.2193 
        2.49124         36.2327         5.09781         66.7305 
        2.50349         35.7398         5.03652         66.2284 
        2.51578         35.3461         4.97605         65.7841 
        2.52805         35.2328         4.91668         65.2776 
        2.54029         34.6949         4.85843         64.7832 
        2.55257         34.1944         4.80094         64.3309 
        2.56487         33.9238         4.74428         63.8836 
        2.57716          33.506         4.68861         63.4458 
        2.58942         33.1115         4.63396         62.9591 
        2.60167         32.6435         4.58024         62.4883 
        2.61395         32.3965         4.52728         62.0517 
        2.62624         32.1387         4.47509         61.5995 
        2.63849         31.8237         4.42389         61.1721 
        2.65073         31.4764         4.37354         60.7031 
        2.66302         31.1259          4.3238          60.282 
         2.6753         30.7438         4.27487         59.8625 
        2.68756         30.3121         4.22678         59.4107 
        2.69983         30.1164         4.17941          59.022 
        2.71213         29.8238         4.13266         58.6239 
        2.72441          29.609         4.08671         58.1882 
        2.73665         29.3145         4.04158          57.773 
         2.7489         29.1014         3.99714         57.3755 
        2.76118         28.6884         3.95324         56.9774 
        2.77349         28.5503          3.9099         56.5884 
        2.78576         28.3468         3.86737         56.1752 
        2.79802         27.9569          3.8255          55.806 
        2.81031         27.7158         3.78415         55.4257 
        2.82259         27.5011         3.74343         55.0207 
        2.83483          27.225         3.70347          54.644 
         2.8471         26.9114         3.66401         54.2797 
         2.8594         26.7899           3.625         53.9218 
         2.8717         26.4906         3.58658         53.5463 
        2.88396         26.3151         3.54885         53.1583 
        2.89619         26.0773         3.51174         52.7978 
        2.90847         25.9036         3.47502          52.454 
        2.92072         25.7554         3.43888          52.089 
        2.93299         25.6147         3.40324         51.7295 
        2.94526         25.3461         3.36807         51.4006 
        2.95753         25.2105         3.33341         51.0655 
        2.96982         25.1533         3.29919         50.7185 
        2.98209         24.9098          3.2655         50.3839 
        2.99436         24.6983         3.23227         50.0364 
        3.00666         24.6887         3.19943         49.7077 
        3.01894         24.4837         3.16712         49.3572 
        3.03119         24.3734          3.1353         49.0371 
        3.04345         24.2654         3.10392          48.734 
        3.05573         24.2086          3.0729          48.414 
          3.068         24.0875         3.04234         48.0924 
        3.08026         23.9399         3.01222          47.772 
        3.09254         23.8759         2.98246         47.4631 
        3.10483         23.8705          2.9531         47.1599 
         3.1171         23.8193         2.92417         46.8532 
        3.12933         23.7566          2.8957         46.5467 
        3.14159         23.6302         2.86756         46.2424 
