# k  (h/Mpc)    Pcb(k)  (Mpc/h)^3    Pcb_linear(k) (Mpc/h)^3    Pcb_NL(k) (Mpc/h)^3   ShotnoiseSubtracted = false
      0.0156606           13825         13874.6           13783 
      0.0273761         11902.9           11998         11908.4 
      0.0384619         9024.68         9039.72         8967.39 
      0.0498308         7001.76          7110.6         7040.33 
      0.0625568         5911.48         6043.26         5978.47 
      0.0751274         5227.37         5134.47         5041.17 
      0.0867833         4073.47         4133.84         4107.72 
      0.0984825         3397.28         3271.42         3303.44 
       0.111151         2883.98         2731.59         2767.35 
       0.123864         2587.81         2461.72         2491.37 
       0.135742         2345.64          2213.7         2243.99 
        0.14762         2024.94         1892.83         1971.63 
       0.160083         1696.66         1577.78         1671.48 
       0.172465         1512.54          1377.1         1495.02 
       0.184281         1386.18         1269.53         1390.58 
       0.196406         1283.37          1172.4          1275.8 
       0.209011         1186.64         1043.14         1152.42 
       0.221538          1070.4         911.608            1062 
       0.233611         1004.89         815.653         984.801 
       0.245665         922.838         752.816         906.547 
       0.258103         884.946         700.807         853.356 
       0.270422         799.314         643.961         796.746 
       0.282519         741.592         584.431         745.289 
       0.294636         734.773         532.481         700.963 
       0.306978          658.75         492.634         667.388 
       0.319417         636.839         460.585         628.009 
        0.33169         599.964         429.907         591.736 
       0.343948         571.797         398.333         569.571 
       0.356249         536.947         368.723         545.442 
       0.368458         520.903         343.923         516.126 
        0.38068         501.689         323.182         493.675 
       0.392856          472.11         304.249         473.904 
       0.405069         452.641         285.736          458.66 
       0.417459         433.545         267.811         436.358 
       0.429752         421.089          251.72         420.389 
       0.441978         407.356         237.598         407.963 
       0.454294         384.162         224.773         389.817 
        0.46658         378.717          212.74         379.762 
       0.478753         365.404         201.388         366.724 
       0.490964         352.481         190.725         354.288 
       0.503334         332.775         180.882         344.538 
       0.515665         330.879         171.908         336.888 
       0.527909         319.672         163.623         326.499 
       0.540159          311.34         155.784         317.202 
        0.55248         305.253         148.346         308.167 
       0.564743         299.274          141.46         301.968 
        0.57686         287.937          135.13          292.87 
       0.589077         277.248         129.155           286.5 
       0.601441          273.98         123.474          279.76 
        0.61382         270.127         118.117          273.72 
       0.626067         264.583         113.118         267.489 
       0.638306         252.495         108.411         262.308 
       0.650632         247.225         103.951         254.363 
       0.662899         245.955         99.7718         250.664 
       0.675076         236.649         95.8551         245.419 
       0.687267         230.682         92.1437         239.928 
       0.699615         226.774         88.5824          235.45 
       0.711937         222.394         85.2159         231.065 
       0.724148         216.836         82.0528         227.598 
       0.736433         212.113         79.0346         222.672 
       0.748747         207.987         76.1639          218.29 
       0.761037         204.663         73.4425         214.332 
       0.773197         201.186         70.8824         211.703 
       0.785376         198.797         68.4413         207.375 
       0.797761           194.1         66.0775         204.613 
       0.810096         190.875         63.8347         201.168 
       0.822371         183.853         61.7069         197.818 
       0.834626         182.821           59.68         194.601 
       0.846916         179.819         57.7393         191.764 
       0.859215         178.801         55.8843         188.848 
       0.871383         174.323         54.1297         185.751 
        0.88363         172.167         52.4403         183.742 
       0.895928         168.381          50.817         181.024 
       0.908253         163.751         49.2597         177.831 
       0.920535         163.189         47.7732           175.5 
       0.932774         157.786         46.3536         172.851 
        0.94508         156.554         44.9847         170.932 
       0.957324         155.852         43.6781         168.352 
        0.96953         154.062         42.4276         165.746 
       0.981769         149.279         41.2232         164.271 
       0.994071         148.556           40.06         162.033 
         1.0064         144.931         38.9399         159.574 
        1.01868         143.202         37.8661         157.831 
        1.03092         140.892         36.8378         156.015 
         1.0432         138.234         35.8441         154.017 
        1.05553         135.672         34.8834         152.327 
        1.06777          135.44          33.965          150.72 
           1.08         132.359         33.0808         148.699 
        1.09227         130.902         32.2253         147.194 
         1.1046         128.671          31.397         145.406 
         1.1169         127.067         30.5993         143.446 
        1.12915         125.006         29.8335         141.976 
        1.14142         123.091         29.0924         140.152 
        1.15365         121.249         28.3787         138.658 
        1.16585         119.586          27.691         136.913 
        1.17807         117.755         27.0253           135.9 
        1.19037         117.316         26.3772         134.449 
        1.20276         114.788          25.746         132.818 
        1.21504         113.608         25.1405         131.345 
        1.22728         111.284         24.5571         129.865 
        1.23954         110.539         23.9909         128.627 
        1.25184         108.175         23.4415         127.258 
        1.26414         106.865         22.9091          125.96 
        1.27632         106.098         22.3981         125.285 
         1.2886         104.124         21.8991         123.423 
        1.30093          101.96         21.4137         122.099 
        1.31316         101.506         20.9465         120.955 
        1.32541         100.081         20.4932          119.96 
        1.33772         98.8756         20.0508         118.694 
        1.35005         97.7207         19.6212         117.421 
        1.36225         96.4357         19.2087         116.349 
        1.37447         94.4517         18.8072         115.093 
        1.38676         94.1492         18.4154         113.843 
        1.39907         92.0316         18.0341         112.946 
        1.41133         90.7255         17.6653         112.042 
        1.42358         89.6464         17.3072         110.827 
        1.43591         89.0441         16.9566         109.669 
        1.44818         87.9463         16.6176         108.731 
        1.46037         86.4445           16.29         107.722 
        1.47263         85.0638         15.9694         106.885 
        1.48494          84.501         15.6562         105.783 
        1.49724          83.037         15.3516         104.661 
        1.50952         81.9096         15.0558         103.739 
        1.52178          81.026         14.7683         102.864 
        1.53409         80.2873         14.4871         101.961 
        1.54637         78.4105         14.2138         101.003 
        1.55858         77.6705         13.9492         100.056 
        1.57081         76.6639         13.6909         99.2233 
        1.58313         75.6108         13.4375         98.3527 
        1.59544         74.8052         13.1908         97.4386 
        1.60767         73.7886         12.9518         96.5681 
        1.61994         72.8276         12.7179         95.9379 
        1.63225         71.7153         12.4893         94.7975 
        1.64452         70.8519          12.267         94.0941 
        1.65676         69.7971         12.0508         93.2524 
          1.669         69.3096         11.8396         92.5002 
        1.68133         68.5029         11.6322         91.6446 
        1.69363         67.4829         11.4303         90.9652 
        1.70585         66.8114         11.2346         90.1134 
        1.71809         65.5079          11.043         89.4739 
        1.73038         64.7969         10.8553         88.5907 
        1.74268         63.8671         10.6719         87.8972 
        1.75493         63.3155         10.4935         87.1086 
        1.76714         62.3299         10.3197         86.3725 
        1.77942         61.9716         10.1489         85.6531 
        1.79173         60.8832         9.98159         84.8933 
        1.80402         60.2157         9.81838         84.2818 
         1.8163         59.4839         9.65891         83.4575 
         1.8286         58.5931         9.50272         82.9174 
         1.8409         57.7038         9.35011         82.1504 
        1.85315         56.9646         9.20137           81.61 
        1.86537          56.403         9.05616         80.8705 
        1.87765         55.6971         8.91356         80.0952 
        1.88995         54.9988         8.77368         79.5176 
        1.90221         54.4941         8.63729         78.8597 
        1.91445         53.5509         8.50403         78.2743 
        1.92674         53.0504         8.37313         77.6273 
        1.93902         52.3848         8.24497         76.9497 
        1.95124         51.9767         8.12018         76.4549 
         1.9635         50.9866         7.99766         75.7217 
        1.97583           50.49         7.87689         75.2262 
        1.98812         49.8018         7.75908          74.555 
        2.00039         49.2588         7.64391          73.966 
        2.01264         48.5252         7.53119         73.3966 
        2.02492         47.9756         7.42058         72.8463 
        2.03717         47.3333         7.31238         72.2023 
        2.04942         46.7226         7.20647         71.7128 
        2.06171         46.1534         7.10231         71.0744 
        2.07397         45.5241         7.00043         70.5946 
        2.08629         45.0245         6.90013         69.9766 
        2.09857         44.6486         6.80204         69.4957 
        2.11081         43.7297         6.70625         68.8909 
        2.12309         43.3985         6.61208         68.3882 
        2.13538         42.8728         6.51959         67.8727 
        2.14763         42.4548         6.42917         67.3574 
        2.15986         42.0355         6.34068         66.8216 
        2.17214         41.3086          6.2535         66.3869 
        2.18443         41.1037         6.16787         65.8212 
        2.19671         40.3349         6.08395         65.2895 
        2.20898         39.9599          6.0017         64.7937 
        2.22126         39.5092         5.92087         64.2929 
        2.23354         38.9752         5.84157         63.8687 
         2.2458         38.6339         5.76385         63.3802 
        2.25807          38.148         5.68748         62.8629 
        2.27035         37.6688         5.61243         62.4042 
        2.28263         37.1834         5.53877         61.9378 
         2.2949         36.6711         5.46647         61.4922 
        2.30718         36.3627         5.39544         61.0442 
        2.31946         35.8479         5.32563         60.6086 
        2.33169         35.4979         5.25736         60.1331 
        2.34393         34.9531         5.19019         59.6751 
        2.35622         34.6453         5.12397         59.2537 
        2.36847         34.2014          5.0591         58.8021 
        2.38076         33.9775         4.99515         58.4002 
        2.39305         33.5406         4.93233         57.9762 
        2.40534         33.1701         4.87058         57.4833 
        2.41762         32.7759          4.8099         57.0728 
        2.42989         32.3119         4.75035         56.7044 
        2.44216         32.0769         4.69181         56.2749 
         2.4544          31.773         4.63439          55.885 
        2.46667         31.2113          4.5778         55.4415 
        2.47897         30.9882         4.52202         55.0669 
        2.49124         30.6068         4.46732         54.6619 
        2.50349         30.2457         4.41361         54.2988 
        2.51578          29.902         4.36062         53.9188 
        2.52805         29.7101          4.3086         53.5065 
        2.54029         29.4353         4.25755         53.1372 
        2.55257         29.0437         4.20717         52.7702 
        2.56487          28.752         4.15752          52.397 
        2.57716         28.4785         4.10874         52.0493 
        2.58942         28.0918         4.06085         51.6736 
        2.60167           27.77         4.01376         51.2727 
        2.61395         27.5324         3.96736         50.9344 
        2.62624         27.2814         3.92162         50.5846 
        2.63849         27.0501         3.87676         50.2289 
        2.65073         26.7329         3.83263         49.8567 
        2.66302         26.4203         3.78904          49.539 
         2.6753         26.1673         3.74616         49.1926 
        2.68756         25.8747         3.70403         48.8505 
        2.69983         25.6813         3.66251         48.5146 
        2.71213         25.3228         3.62154         48.1943 
        2.72441         25.2272         3.58128         47.8387 
        2.73665         24.9542         3.54172         47.5154 
         2.7489         24.7769         3.50279         47.1985 
        2.76118         24.5257         3.46431         46.8535 
        2.77349         24.3183         3.42633         46.5618 
        2.78576         24.1372         3.38907         46.2363 
        2.79802         23.8292         3.35237         45.9214 
        2.81031         23.6591         3.31614         45.6282 
        2.82259         23.4747         3.28046         45.3039 
        2.83483         23.2263         3.24543         44.9938 
         2.8471           23.12         3.21085         44.6974 
         2.8594         22.8687         3.17667         44.4143 
         2.8717         22.6406           3.143         44.1067 
        2.88396         22.5595         3.10994         43.7979 
        2.89619         22.4077         3.07742         43.5123 
        2.90847         22.2291         3.04523         43.2196 
        2.92072         22.0794         3.01357         42.9507 
        2.93299         21.9878         2.98234         42.6554 
        2.94526         21.8292         2.95152         42.3807 
        2.95753          21.642         2.92115         42.1161 
        2.96982         21.6282         2.89115         41.8352 
        2.98209         21.4158         2.86164         41.5629 
        2.99436         21.3114         2.83251         41.2937 
        3.00666         21.1876         2.80374         41.0219 
        3.01894         21.1273         2.77542         40.7409 
        3.03119          20.948         2.74754         40.4706 
        3.04345         20.8546         2.72003         40.2184 
        3.05573         20.7816         2.69285         39.9657 
          3.068         20.7511         2.66607         39.6993 
        3.08026         20.7322         2.63968         39.4411 
        3.09254         20.6002          2.6136         39.1984 
        3.10483         20.5993         2.58786         38.9536 
         3.1171         20.5098         2.56251         38.7024 
        3.12933         20.5013         2.53757          38.455 
        3.14159         20.4835          2.5129         38.2055 
