# k  (h/Mpc)    Pcb(k)  (Mpc/h)^3    Pcb_linear(k) (Mpc/h)^3    Pcb_NL(k) (Mpc/h)^3   ShotnoiseSubtracted = false
      0.0156606         2151.58         2152.83         2142.41 
      0.0273761         1870.79         1863.05         1858.27 
      0.0384619         1421.53         1404.16         1402.88 
      0.0498308         1115.23         1104.71         1104.29 
      0.0625568          940.99             939         937.722 
      0.0751274         812.492         797.849         795.302 
      0.0867833         645.714         642.389         642.101 
      0.0984825         522.037         508.386         510.111 
       0.111151         436.949         424.505         426.158 
       0.123864         392.459         382.572         383.749 
       0.135742         352.444         344.032         345.167 
        0.14762         299.405         294.168         296.942 
       0.160083          248.71         245.208         248.404 
       0.172465         218.816         214.021         217.835 
       0.184281         202.816         197.303         201.339 
       0.196406         185.061          182.21         185.282 
       0.209011         166.459         162.121         165.637 
       0.221538         147.527         141.679         146.614 
       0.233611         132.702         126.766         132.242 
       0.245665         124.487         117.001         121.861 
       0.258103          112.21         108.918         113.753 
       0.270422         105.296         100.083          104.76 
       0.282519         95.5122          90.831          95.851 
       0.294636         90.4719         82.7572         88.0497 
       0.306978         80.2607         76.5644         82.0254 
       0.319417          76.465         71.5833         76.8712 
        0.33169         71.0586         66.8154         71.9228 
       0.343948          67.268         61.9084         67.0706 
       0.356249         61.6269         57.3065         63.0192 
       0.368458         58.6467          53.452         58.6694 
        0.38068          54.864         50.2286          55.408 
       0.392856         51.3648         47.2861         52.5134 
       0.405069         48.5539         44.4089         49.4477 
       0.417459         45.2462          41.623         46.7491 
       0.429752         43.2614         39.1222         44.2338 
       0.441978          41.147         36.9272         42.2525 
       0.454294         38.3143          34.934         39.9793 
        0.46658         37.7838         33.0639         38.0647 
       0.478753         35.1673         31.2996         36.3085 
       0.490964         33.9041         29.6423         34.7753 
       0.503334         32.4432         28.1127         33.0613 
       0.515665          30.705         26.7178         31.8681 
       0.527909           29.38         25.4301         30.2013 
       0.540159         28.0626         24.2119         28.9709 
        0.55248          26.229         23.0559         27.7032 
       0.564743         25.8547         21.9856         26.7575 
        0.57686         24.9225         21.0019         25.6852 
       0.589077         23.4319         20.0732         24.8141 
       0.601441         22.5505         19.1902         23.8667 
        0.61382         21.7249         18.3577         22.8915 
       0.626067         20.8429         17.5808         22.1273 
       0.638306         20.1135         16.8492         21.2906 
       0.650632         19.5705         16.1561         20.6014 
       0.662899         18.6535         15.5065         19.8498 
       0.675076         17.7788         14.8978          19.185 
       0.687267         17.4432          14.321         18.5178 
       0.699615         16.8675         13.7675          17.954 
       0.711937         15.9861         13.2442         17.3793 
       0.724148          15.868         12.7526         16.8806 
       0.736433         14.9546         12.2836         16.3155 
       0.748747         14.6193         11.8374         15.8607 
       0.761037         14.2637         11.4144         15.4061 
       0.773197         13.6904         11.0165         14.9891 
       0.785376         13.1965         10.6371         14.5568 
       0.797761         12.8547         10.2698         14.1294 
       0.810096         12.5265         9.92118         13.7906 
       0.822371         12.1885         9.59048         13.3625 
       0.834626         11.7883         9.27546         13.0392 
       0.846916         11.3969         8.97384         12.6941 
       0.859215         10.9734         8.68554         12.3813 
       0.871383         10.7341         8.41283         12.0926 
        0.88363         10.4546         8.15027         11.7786 
       0.895928         10.2429         7.89798          11.468 
       0.908253         9.95054         7.65594         11.2074 
       0.920535         9.62724         7.42492         10.9254 
       0.932774          9.4578         7.20427         10.6279 
        0.94508         9.13482         6.99153         10.4234 
       0.957324         8.94103         6.78845         10.2101 
        0.96953         8.62459          6.5941         9.96715 
       0.981769         8.51173         6.40691         9.73162 
       0.994071         8.30733         6.22613         9.52657 
         1.0064         8.02064         6.05204         9.32677 
        1.01868         7.84816         5.88515         9.12764 
        1.03092         7.69936         5.72533         8.92265 
         1.0432         7.41455          5.5709         8.73884 
        1.05553         7.29185         5.42158         8.58334 
        1.06777         7.07177         5.27885         8.40285 
           1.08         6.95045         5.14141         8.23378 
        1.09227         6.78775         5.00845         8.06765 
         1.1046         6.63667         4.87972         7.90035 
         1.1169         6.42191         4.75575         7.75264 
        1.12915         6.39977         4.63672         7.63427 
        1.14142         6.15725         4.52154         7.46591 
        1.15365         6.05621         4.41062         7.33093 
        1.16585         5.97152         4.30373          7.2146 
        1.17807         5.81187         4.20027          7.0623 
        1.19037         5.67145         4.09954         6.93994 
        1.20276         5.54232         4.00144         6.80859 
        1.21504         5.43955         3.90734         6.70612 
        1.22728         5.30534         3.81667         6.57471 
        1.23954         5.21792         3.72867          6.4851 
        1.25184         5.10223         3.64328          6.3633 
        1.26414         5.03487         3.56054         6.24559 
        1.27632          4.8791         3.48112         6.15761 
         1.2886         4.82004         3.40357         6.05378 
        1.30093         4.71307         3.32812         5.97192 
        1.31316         4.58932          3.2555         5.86521 
        1.32541         4.52558         3.18505         5.78571 
        1.33772         4.44224          3.1163         5.68247 
        1.35005          4.3679         3.04953         5.60162 
        1.36225         4.28054         2.98541         5.50571 
        1.37447         4.19723         2.92302         5.43644 
        1.38676         4.11018         2.86212         5.35065 
        1.39907         4.02776         2.80287         5.27791 
        1.41133         3.96605         2.74555         5.19771 
        1.42358         3.89681         2.68989         5.11729 
        1.43591         3.84085          2.6354         5.05843 
        1.44818         3.74142         2.58272         4.98314 
        1.46037         3.67025         2.53179         4.90987 
        1.47263          3.6159         2.48196         4.84618 
        1.48494         3.56509         2.43328         4.77792 
        1.49724         3.49442         2.38595         4.71111 
        1.50952         3.47584         2.33998         4.65008 
        1.52178         3.38529         2.29529         4.59177 
        1.53409         3.31593         2.25159         4.52038 
        1.54637         3.27095         2.20911         4.46478 
        1.55858         3.21927         2.16798         4.39804 
        1.57081         3.15959         2.12784         4.35666 
        1.58313         3.10435         2.08846          4.2962 
        1.59544         3.05678         2.05011         4.24747 
        1.60767           3.018         2.01297         4.18964 
        1.61994         2.95614         1.97662         4.14344 
        1.63225          2.9084         1.94109           4.091 
        1.64452         2.86174         1.90654         4.03791 
        1.65676         2.81038         1.87293         3.99202 
          1.669         2.77959         1.84011         3.94458 
        1.68133         2.70825         1.80788         3.90081 
        1.69363         2.70211          1.7765         3.85608 
        1.70585         2.65633         1.74608         3.80782 
        1.71809         2.62293         1.71631         3.76705 
        1.73038         2.57551         1.68713         3.72098 
        1.74268         2.52866         1.65862         3.68106 
        1.75493          2.4993          1.6309         3.64042 
        1.76714         2.46984         1.60389         3.59462 
        1.77942          2.4291         1.57735         3.55906 
        1.79173         2.39611         1.55134         3.51594 
        1.80402         2.35974         1.52597         3.48008 
         1.8163          2.3387         1.50119         3.44494 
         1.8286         2.29279         1.47691         3.41285 
         1.8409         2.25923          1.4532           3.376 
        1.85315         2.23367         1.43008         3.33164 
        1.86537         2.20463         1.40751          3.3048 
        1.87765         2.17315         1.38535         3.26961 
        1.88995         2.13828         1.36361         3.23697 
        1.90221         2.11076         1.34241         3.20232 
        1.91445         2.08743          1.3217         3.17669 
        1.92674          2.0658         1.30135         3.13763 
        1.93902         2.02682         1.28143         3.10302 
        1.95124         1.99853         1.26204         3.07842 
         1.9635         1.98263           1.243         3.04627 
        1.97583         1.94498         1.22423         3.01746 
        1.98812         1.92288         1.20592         2.98938 
        2.00039         1.89851         1.18802         2.95837 
        2.01264         1.86853          1.1705         2.93712 
        2.02492         1.85156         1.15331         2.90851 
        2.03717         1.83226         1.13649         2.87847 
        2.04942          1.8044         1.12003         2.85051 
        2.06171         1.77907         1.10384          2.8232 
        2.07397         1.75994         1.08801         2.79942 
        2.08629         1.74266         1.07242         2.77742 
        2.09857         1.71965         1.05717         2.75031 
        2.11081         1.69758         1.04229         2.72472 
        2.12309         1.68199         1.02765         2.70359 
        2.13538         1.65563         1.01328         2.67853 
        2.14763         1.64715        0.999223          2.6544 
        2.15986          1.6252         0.98547         2.63434 
        2.17214         1.59577         0.97192         2.60588 
        2.18443         1.58665        0.958612         2.58647 
        2.19671         1.56815        0.945569         2.56523 
        2.20898         1.54852        0.932785         2.54444 
        2.22126          1.5325        0.920223         2.52346 
        2.23354         1.51443        0.907898         2.50174 
         2.2458         1.50385        0.895819         2.47853 
        2.25807         1.48017        0.883949         2.45919 
        2.27035         1.46517        0.872285         2.44117 
        2.28263         1.44407        0.860837         2.42155 
         2.2949         1.43632        0.849599         2.40214 
        2.30718         1.41999         0.83856         2.38388 
        2.31946         1.39965        0.827711         2.36443 
        2.33169         1.38903        0.817101         2.34601 
        2.34393         1.38154         0.80666          2.3284 
        2.35622         1.36012        0.796369          2.3102 
        2.36847         1.34923        0.786286         2.29112 
        2.38076         1.32941        0.776347         2.27328 
        2.39305         1.31878        0.766583          2.2542 
        2.40534         1.30737        0.756987         2.23984 
        2.41762         1.29087        0.747556         2.22282 
        2.42989         1.27994          0.7383         2.20734 
        2.44216         1.27044        0.729201         2.19003 
         2.4544         1.25949        0.720278         2.17547 
        2.46667         1.24282        0.711482         2.15911 
        2.47897         1.23339        0.702813         2.14146 
        2.49124         1.21871        0.694312         2.12725 
        2.50349           1.209        0.685964          2.1107 
        2.51578         1.19822        0.677729         2.09381 
        2.52805         1.18332        0.669643         2.08046 
        2.54029         1.17721        0.661709         2.06547 
        2.55257         1.16278         0.65388         2.05075 
        2.56487         1.15252        0.646163         2.03752 
        2.57716         1.14734        0.638581          2.0222 
        2.58942         1.13858        0.631138         2.00873 
        2.60167         1.12813         0.62382         1.99439 
        2.61395         1.11465        0.616608         1.98216 
        2.62624         1.10777          0.6095         1.96804 
        2.63849         1.09885        0.602526         1.95416 
        2.65073         1.08951        0.595669         1.94093 
        2.66302         1.08073        0.588894         1.92795 
         2.6753         1.07824        0.582229          1.9156 
        2.68756         1.06578         0.57568         1.90368 
        2.69983         1.05777        0.569228         1.89056 
        2.71213         1.04784        0.562861         1.87857 
        2.72441         1.04115        0.556603          1.8661 
        2.73665         1.03471        0.550455         1.85557 
         2.7489         1.02711        0.544404         1.84459 
        2.76118         1.01881        0.538424         1.83069 
        2.77349         1.01515        0.532521          1.8194 
        2.78576         1.00967        0.526729         1.80811 
        2.79802           1.003        0.521026         1.79583 
        2.81031         0.99477        0.515395         1.78525 
        2.82259        0.987816        0.509849         1.77334 
        2.83483        0.984674        0.504406         1.76298 
         2.8471        0.979079        0.499031         1.75178 
         2.8594        0.973417        0.493719         1.74129 
         2.8717        0.969706        0.488485         1.73166 
        2.88396        0.962026        0.483347          1.7209 
        2.89619        0.958078        0.478293         1.71004 
        2.90847         0.95298        0.473291          1.6998 
        2.92072        0.950998        0.468369         1.69007 
        2.93299         0.94606        0.463515          1.6794 
        2.94526        0.944747        0.458726          1.6698 
        2.95753        0.940094        0.454005         1.66034 
        2.96982        0.936621        0.449343         1.65018 
        2.98209        0.934129        0.444756         1.64078 
        2.99436        0.931936        0.440229          1.6313 
        3.00666        0.930955        0.435757         1.62169 
        3.01894        0.927711        0.431356         1.61281 
        3.03119        0.925402        0.427023         1.60337 
        3.04345        0.922581        0.422748         1.59436 
        3.05573        0.921562        0.418523         1.58614 
          3.068        0.919732        0.414361         1.57716 
        3.08026        0.919352         0.41026          1.5679 
        3.09254        0.920164        0.406206         1.55903 
        3.10483        0.920345        0.402206         1.55081 
         3.1171        0.921017        0.398266         1.54242 
        3.12933        0.920526         0.39439         1.53355 
        3.14159        0.919914        0.390556         1.52522 
