# k  (h/Mpc)    Pcb(k)  (Mpc/h)^3    Pcb_linear(k) (Mpc/h)^3    Pcb_NL(k) (Mpc/h)^3   ShotnoiseSubtracted = false
      0.0156606         13608.2         13656.4         13566.1 
      0.0273761         11718.1         11809.3         11721.1 
      0.0384619         8885.44         8897.64         8826.45 
      0.0498308         6895.19         6998.87          6929.7 
      0.0625568         5821.73         5948.31         5884.55 
      0.0751274         5146.99         5053.81         4961.98 
      0.0867833         4011.82         4068.91          4043.2 
      0.0984825         3344.84         3220.04         3251.55 
       0.111151         2839.02         2688.68         2723.88 
       0.123864         2547.78         2423.05         2452.24 
       0.135742         2309.06         2178.93         2208.75 
        0.14762         1992.93          1863.1         1940.67 
       0.160083         1669.51            1553         1645.23 
       0.172465          1488.3         1355.48         1471.54 
       0.184281         1364.51         1249.59         1368.74 
       0.196406         1262.82         1153.99         1255.76 
       0.209011         1167.36         1026.76         1134.32 
       0.221538         1053.05         897.291         1045.33 
       0.233611         988.014         802.842         969.334 
       0.245665          907.85         740.993         892.309 
       0.258103         869.654         689.801         839.954 
       0.270422         786.122         633.847         784.233 
       0.282519         728.988         575.252         733.584 
       0.294636         722.387         524.118         689.954 
       0.306978         647.357         484.898         656.906 
       0.319417         625.712         453.351         618.146 
        0.33169         589.492         423.155         582.443 
       0.343948         561.828         392.078         560.625 
       0.356249          527.54         362.933         536.876 
       0.368458         511.836         338.521          508.02 
        0.38068         492.751         318.106         485.922 
       0.392856         463.589         299.471         466.461 
       0.405069         444.629         281.249         451.457 
       0.417459         425.855         263.605         429.505 
       0.429752         413.464         247.767         413.787 
       0.441978         400.011         233.866         401.556 
       0.454294         377.114         221.243         383.695 
        0.46658         372.045         209.399         373.798 
       0.478753          358.78         198.225         360.965 
       0.490964           346.2         187.729         348.724 
       0.503334         326.823         178.042         339.127 
       0.515665          324.86         169.208         331.597 
       0.527909         314.009         161.053         321.372 
       0.540159         305.815         153.338          312.22 
        0.55248         299.869         146.017         303.327 
       0.564743         293.874         139.238         297.226 
        0.57686         282.821         133.008         288.271 
       0.589077         272.264         127.127         282.001 
       0.601441         269.059         121.534         275.367 
        0.61382         265.396         116.262         269.422 
       0.626067         259.882         111.342         263.288 
       0.638306         247.999         106.708         258.188 
       0.650632         242.732         102.319         250.368 
       0.662899         241.613         98.2049         246.728 
       0.675076         232.527         94.3497         241.564 
       0.687267         226.688         90.6966          236.16 
       0.699615         222.829         87.1913         231.753 
       0.711937         218.476         83.8776         227.436 
       0.724148         213.171         80.7642         224.023 
       0.736433         208.546         77.7934         219.175 
       0.748747         204.456         74.9677         214.862 
       0.761037         201.254         72.2891         210.966 
       0.773197         197.792         69.7692         208.378 
       0.785376         195.502         67.3665         204.118 
       0.797761         190.931         65.0398         201.399 
       0.810096         187.689         62.8322         198.009 
       0.822371         180.864         60.7378         194.711 
       0.834626         179.796         58.7427         191.545 
       0.846916         176.968         56.8325         188.752 
       0.859215         175.877         55.0067         185.882 
       0.871383         171.567         53.2796         182.833 
        0.88363         169.386         51.6167         180.857 
       0.895928         165.714         50.0189         178.181 
       0.908253         161.198         48.4861         175.038 
       0.920535         160.655          47.023         172.743 
       0.932774         155.391         45.6256         170.136 
        0.94508         154.219         44.2783         168.247 
       0.957324          153.48         42.9922         165.708 
        0.96953         151.821         41.7613         163.143 
       0.981769         147.126         40.5758         161.691 
       0.994071         146.434         39.4309         159.488 
         1.0064         142.864         38.3284         157.068 
        1.01868         141.212         37.2714         155.353 
        1.03092         138.974         36.2593         153.565 
         1.0432          136.39         35.2812         151.598 
        1.05553         133.827         34.3356         149.935 
        1.06777         133.615         33.4316         148.353 
           1.08         130.644         32.5612         146.364 
        1.09227         129.205         31.7192         144.883 
         1.1046         127.018         30.9039         143.122 
         1.1169         125.476         30.1188         141.193 
        1.12915         123.469          29.365         139.747 
        1.14142         121.603         28.6355         137.951 
        1.15365         119.755          27.933         136.481 
        1.16585         118.154         27.2561         134.763 
        1.17807          116.35         26.6008         133.765 
        1.19037         115.968         25.9629         132.338 
        1.20276         113.465         25.3416         130.732 
        1.21504         112.369         24.7457         129.282 
        1.22728          110.08         24.1715         127.826 
        1.23954         109.344         23.6141         126.607 
        1.25184         107.019         23.0734         125.259 
        1.26414         105.765         22.5494         123.982 
        1.27632         104.978         22.0464         123.317 
         1.2886         103.061         21.5552         121.484 
        1.30093         101.014         21.0774         120.182 
        1.31316         100.529         20.6175         119.055 
        1.32541         99.1771         20.1713         118.076 
        1.33772         97.9606         19.7359          116.83 
        1.35005         96.8645         19.3131         115.577 
        1.36225         95.5889          18.907         114.522 
        1.37447         93.6243         18.5118         113.285 
        1.38676         93.3838         18.1262         112.055 
        1.39907          91.308         17.7509         111.172 
        1.41133         90.0091         17.3879         110.282 
        1.42358          88.979         17.0354         109.087 
        1.43591         88.3856         16.6903         107.946 
        1.44818         87.2944         16.3567         107.023 
        1.46037         85.8535         16.0341         106.031 
        1.47263          84.478         15.7186         105.207 
        1.48494         83.9403         15.4103         104.122 
        1.49724          82.489         15.1105         103.017 
        1.50952          81.432         14.8194          102.11 
        1.52178         80.5451         14.5363         101.249 
        1.53409         79.8521         14.2596         100.359 
        1.54637         77.9631         13.9906         99.4165 
        1.55858         77.2629         13.7301         98.4845 
        1.57081         76.3076         13.4759          97.665 
        1.58313          75.251         13.2265          96.808 
        1.59544         74.4513         12.9836         95.9083 
        1.60767         73.4866         12.7484         95.0516 
        1.61994         72.5412         12.5182         94.4312 
        1.63225         71.4441         12.2932         93.3088 
        1.64452         70.6155         12.0743         92.6164 
        1.65676         69.5622         11.8615         91.7879 
          1.669         69.0932         11.6537         91.0475 
        1.68133         68.3217         11.4495         90.2054 
        1.69363         67.2799         11.2508         89.5366 
        1.70585         66.6603         11.0581         88.6982 
        1.71809         65.3446         10.8696         88.0688 
        1.73038         64.6576         10.6848         87.1994 
        1.74268         63.7577         10.5043         86.5168 
        1.75493         63.1949         10.3287         85.7406 
        1.76714          62.255         10.1576         85.0161 
        1.77942          61.917         9.98953         84.3079 
        1.79173         60.8299         9.82483         83.5601 
        1.80402         60.1783         9.66418         82.9582 
         1.8163         59.4646         9.50722         82.1468 
         1.8286         58.5753         9.35348         81.6152 
         1.8409         57.6981         9.20327         80.8603 
        1.85315          56.982         9.05686         80.3283 
        1.86537         56.4298         8.91394         79.6005 
        1.87765          55.732         8.77357         78.8373 
        1.88995         55.0523         8.63589         78.2688 
        1.90221         54.5704         8.50165         77.6212 
        1.91445         53.6507         8.37048         77.0451 
        1.92674         53.1509         8.24163         76.4082 
        1.93902         52.4951         8.11548         75.7412 
        1.95124         52.0881         7.99266         75.2542 
         1.9635         51.1058         7.87206         74.5325 
        1.97583         50.6141         7.75319         74.0448 
        1.98812         49.9191         7.63722         73.3841 
        2.00039         49.4261         7.52386         72.8044 
        2.01264         48.6632         7.41291         72.2439 
        2.02492         48.1481         7.30404         71.7022 
        2.03717         47.5036         7.19754         71.0684 
        2.04942         46.9052          7.0933         70.5866 
        2.06171         46.3489         6.99077         69.9582 
        2.07397         45.7162         6.89049         69.4859 
        2.08629         45.2232         6.79177         68.8776 
        2.09857         44.8669         6.69521         68.4043 
        2.11081         43.9741         6.60093         67.8089 
        2.12309         43.6285         6.50824         67.3142 
        2.13538         43.1118          6.4172         66.8067 
        2.14763         42.7058          6.3282         66.2996 
        2.15986         42.3279          6.2411         65.7721 
        2.17214         41.5723         6.15529         65.3443 
        2.18443         41.3838         6.07101         64.7875 
        2.19671         40.6191         5.98841         64.2641 
        2.20898         40.2219         5.90744         63.7761 
        2.22126         39.7998         5.82789         63.2831 
        2.23354         39.2682         5.74983         62.8657 
         2.2458          38.941         5.67333         62.3848 
        2.25807         38.4183         5.59816         61.8756 
        2.27035         37.9604         5.52429         61.4241 
        2.28263         37.4804         5.45178         60.9651 
         2.2949         36.9783         5.38062         60.5264 
        2.30718         36.6751          5.3107         60.0855 
        2.31946         36.1719         5.24199         59.6568 
        2.33169         35.8326          5.1748         59.1887 
        2.34393         35.2829         5.10868         58.7379 
        2.35622         34.9682          5.0435         58.3232 
        2.36847         34.5277         4.97964         57.8787 
        2.38076         34.3148          4.9167         57.4831 
        2.39305         33.8841         4.85487         57.0657 
        2.40534         33.5134         4.79409         56.5806 
        2.41762         33.1169         4.73436         56.1765 
        2.42989         32.6608         4.67574         55.8138 
        2.44216         32.4198         4.61812         55.3911 
         2.4544         32.1152         4.56161         55.0073 
        2.46667         31.5502          4.5059         54.5708 
        2.47897         31.3368           4.451         54.2021 
        2.49124         30.9656         4.39716         53.8035 
        2.50349          30.606          4.3443          53.446 
        2.51578         30.2483         4.29214          53.072 
        2.52805         30.0443         4.24093         52.6662 
        2.54029         29.7965         4.19068         52.3026 
        2.55257         29.4032          4.1411         51.9415 
        2.56487         29.1219         4.09223         51.5741 
        2.57716         28.8441         4.04421         51.2319 
        2.58942         28.4576         3.99707          50.862 
        2.60167         28.1349         3.95073         50.4675 
        2.61395         27.8978         3.90505         50.1345 
        2.62624         27.6339         3.86004         49.7901 
        2.63849         27.4106         3.81587         49.4401 
        2.65073         27.0939         3.77244         49.0738 
        2.66302         26.7708         3.72954          48.761 
         2.6753         26.5285         3.68733           48.42 
        2.68756           26.24         3.64585         48.0833 
        2.69983         26.0521         3.60499         47.7527 
        2.71213         25.6964         3.56467         47.4374 
        2.72441         25.5913         3.52504         47.0874 
        2.73665         25.3146          3.4861         46.7692 
         2.7489         25.1345         3.44777         46.4572 
        2.76118         24.8928         3.40991         46.1177 
        2.77349         24.6846         3.37252         45.8306 
        2.78576         24.5073         3.33584         45.5102 
        2.79802         24.1818         3.29972         45.2002 
        2.81031          24.025         3.26406         44.9116 
        2.82259         23.8454         3.22894         44.5924 
        2.83483         23.5919         3.19446         44.2872 
         2.8471         23.5022         3.16043         43.9955 
         2.8594          23.238         3.12678         43.7168 
         2.8717         23.0126         3.09364          43.414 
        2.88396          22.923          3.0611         43.1101 
        2.89619         22.7847         3.02909         42.8289 
        2.90847         22.6032         2.99741         42.5408 
        2.92072         22.4395         2.96624         42.2761 
        2.93299         22.3576          2.9355         41.9855 
        2.94526         22.2024         2.90517         41.7151 
        2.95753         22.0122         2.87527         41.4547 
        2.96982         21.9974         2.84574         41.1781 
        2.98209         21.7844         2.81669         40.9102 
        2.99436         21.6949         2.78802         40.6452 
        3.00666         21.5516          2.7597         40.3777 
        3.01894         21.5027         2.73183         40.1011 
        3.03119          21.322         2.70439          39.835 
        3.04345         21.2315         2.67732         39.5867 
        3.05573         21.1571         2.65056          39.338 
          3.068         21.1292          2.6242         39.0758 
        3.08026         21.1207         2.59822         38.8217 
        3.09254         20.9841         2.57255         38.5828 
        3.10483         20.9755         2.54722         38.3419 
         3.1171         20.8947         2.52227         38.0946 
        3.12933         20.8754         2.49772         37.8511 
        3.14159         20.8661         2.47344         37.6055 
