# k  (h/Mpc)    Pcb(k)  (Mpc/h)^3    Pcb_linear(k) (Mpc/h)^3    Pcb_NL(k) (Mpc/h)^3   ShotnoiseSubtracted = false
      0.0156606         20551.5         20659.1         20499.6 
      0.0273761         17625.5         17861.4         17674.9 
      0.0384619         13333.9         13456.3         13292.1 
      0.0498308         10304.5         10584.1         10419.4 
      0.0625568         8706.15         8995.04         8848.01 
      0.0751274         7748.57         7642.19         7435.22 
      0.0867833         6006.56         6152.77         6089.18 
      0.0984825         5069.09          4869.1         4927.29 
       0.111151         4332.83          4065.6         4137.09 
       0.123864         3883.09         3663.91         3721.89 
       0.135742         3538.07         3294.76         3353.03 
        0.14762         3077.82         2817.18          2971.9 
       0.160083         2610.56         2348.28         2538.43 
       0.172465         2328.67         2049.59         2291.52 
       0.184281         2113.88         1889.48         2132.64 
       0.196406         1989.64         1744.93         1963.36 
       0.209011         1859.56         1552.54         1779.07 
       0.221538         1675.54         1356.77         1659.44 
       0.233611         1603.09         1213.96         1553.85 
       0.245665         1454.69         1120.44         1434.46 
       0.258103          1436.2         1043.03         1354.09 
       0.270422         1282.27         958.422         1271.49 
       0.282519         1209.07         869.821         1202.43 
       0.294636         1189.64         792.503         1138.42 
       0.306978         1084.58         733.198         1090.44 
       0.319417         1061.65         685.498         1027.95 
        0.33169         998.818         639.839         973.021 
       0.343948         957.723         592.847          942.75 
       0.356249         906.997         548.778         907.459 
       0.368458         873.168         511.867         866.316 
        0.38068         857.239         480.998         832.945 
       0.392856         813.326          452.82         803.472 
       0.405069         773.044         425.267         777.954 
       0.417459         743.714         398.588         749.376 
       0.429752         737.848          374.64         723.169 
       0.441978         712.219         353.621         704.617 
       0.454294         680.309         334.533         675.725 
        0.46658         661.593         316.624         661.663 
       0.478753         648.371         299.729          641.37 
       0.490964         623.472         283.859         621.676 
       0.503334         595.947          269.21         607.548 
       0.515665         594.352         255.853         594.078 
       0.527909         570.367         243.522         581.037 
       0.540159         556.263         231.856         566.038 
        0.55248         545.488         220.786         551.291 
       0.564743         541.329         210.537         541.915 
        0.57686         522.363         201.116         527.458 
       0.589077         511.272         192.224         515.756 
       0.601441          501.55         183.768         505.509 
        0.61382         488.379         175.795         496.723 
       0.626067          482.99         168.355         487.196 
       0.638306         465.064          161.35          477.48 
       0.650632         460.638         154.712         465.684 
       0.662899         456.817         148.492         460.188 
       0.675076         441.145         142.663           453.5 
       0.687267         429.279         137.139         442.705 
       0.699615         426.656         131.839         435.725 
       0.711937         419.204         126.828         427.668 
       0.724148         405.363          122.12         421.754 
       0.736433          395.98         117.628         414.111 
       0.748747         391.091         113.356         406.722 
       0.761037         384.034         109.306         401.605 
       0.773197         379.064         105.495         395.261 
       0.785376         373.731         101.862         389.423 
       0.797761         363.076         98.3442         383.389 
       0.810096         360.135         95.0061           378.6 
       0.822371         349.382         91.8393         372.405 
       0.834626         346.873         88.8226         367.854 
       0.846916         340.503         85.9343         362.149 
       0.859215         338.398         83.1734         356.934 
       0.871383         330.284          80.562         352.134 
        0.88363         327.772         78.0477         348.546 
       0.895928         322.125         75.6317          343.06 
       0.908253         314.129          73.314         337.523 
       0.920535         309.829         71.1016         333.591 
       0.932774         303.957         68.9887         328.693 
        0.94508         299.796         66.9514         325.317 
       0.957324         297.904         65.0068         320.922 
        0.96953         293.859         63.1457         316.975 
       0.981769         286.342         61.3531          313.55 
       0.994071         285.415         59.6219         309.677 
         1.0064         279.691         57.9549         305.162 
        1.01868         276.685         56.3567         301.267 
        1.03092         268.689         54.8262         298.576 
         1.0432         265.828         53.3473          294.96 
        1.05553         262.769         51.9175         290.959 
        1.06777         260.552         50.5506         287.794 
           1.08         254.522         49.2346         284.542 
        1.09227         253.022         47.9613         281.131 
         1.1046         248.694         46.7285         278.407 
         1.1169         243.102         45.5414         274.661 
        1.12915         240.058         44.4016         272.049 
        1.14142         235.655         43.2986         268.716 
        1.15365         232.946         42.2364         265.882 
        1.16585         228.937         41.2129         262.782 
        1.17807         226.657         40.2221          260.22 
        1.19037         223.641         39.2575          257.94 
        1.20276         220.601         38.3181         254.576 
        1.21504         215.952          37.417         251.763 
        1.22728         212.714         36.5487         248.744 
        1.23954         211.746          35.706         246.623 
        1.25184         207.249         34.8883         243.949 
        1.26414         203.278          34.096         241.582 
        1.27632         202.268         33.3355         239.514 
         1.2886         200.797         32.5928         236.667 
        1.30093         195.532         31.8703         233.802 
        1.31316         191.772         31.1749         231.346 
        1.32541         190.697         30.5003         229.165 
        1.33772         188.107         29.8419         226.937 
        1.35005         185.588         29.2026         224.387 
        1.36225          182.26         28.5885         222.298 
        1.37447          179.71          27.991         219.569 
        1.38676         177.859         27.4079         217.944 
        1.39907         175.205         26.8404         215.397 
        1.41133         172.178         26.2916         213.251 
        1.42358         170.203         25.7586         211.241 
        1.43591         168.237         25.2367         209.212 
        1.44818         165.219         24.7323         207.131 
        1.46037          163.63         24.2446         204.927 
        1.47263         160.851         23.7674         203.161 
        1.48494         159.011         23.3013         200.668 
        1.49724         156.722          22.848         199.286 
        1.50952         153.846         22.4078         197.162 
        1.52178          152.92         21.9798         195.032 
        1.53409         149.814         21.5613         193.373 
        1.54637         147.951         21.1546         191.776 
        1.55858         145.954         20.7607         189.686 
        1.57081         143.671         20.3763         187.986 
        1.58313         141.783         19.9993         186.069 
        1.59544         139.292          19.632          184.41 
        1.60767         138.235         19.2763         182.748 
        1.61994         135.791         18.9282         181.073 
        1.63225         133.984          18.588         179.155 
        1.64452         131.727         18.2571         177.554 
        1.65676         129.935         17.9353         176.026 
          1.669           128.8         17.6211         174.418 
        1.68133         126.241         17.3123         172.826 
        1.69363         124.235         17.0119         171.307 
        1.70585         122.251         16.7206         169.781 
        1.71809         120.792         16.4355         167.948 
        1.73038          119.77         16.1561           166.6 
        1.74268         118.607         15.8831         164.985 
        1.75493         115.501         15.6176         163.609 
        1.76714         115.036         15.3589         162.234 
        1.77942         112.901         15.1048         160.625 
        1.79173         111.155         14.8557         159.246 
        1.80402         110.152         14.6128         157.832 
         1.8163         107.873         14.3755         156.496 
         1.8286         106.587          14.143          155.02 
         1.8409         105.781         13.9159         153.578 
        1.85315         103.572         13.6945         152.333 
        1.86537         102.758         13.4784         151.071 
        1.87765          101.52         13.2662         149.781 
        1.88995         99.7321          13.058          148.39 
        1.90221         98.4955          12.855         147.197 
        1.91445         97.2548         12.6567         145.783 
        1.92674         95.7389         12.4618         144.539 
        1.93902         94.4653         12.2711         143.241 
        1.95124         93.3629         12.0854         142.036 
         1.9635         91.8274          11.903         140.783 
        1.97583         90.4717         11.7233         139.611 
        1.98812         89.3361         11.5479         138.543 
        2.00039         88.3079         11.3765         137.252 
        2.01264         87.2128         11.2088         136.124 
        2.02492         86.3028         11.0442           134.9 
        2.03717         84.8185         10.8831         133.815 
        2.04942         84.1332         10.7255         132.731 
        2.06171         82.3285         10.5705         131.576 
        2.07397         81.5182         10.4188         130.537 
        2.08629         80.4953         10.2696         129.402 
        2.09857         79.3884         10.1236         128.359 
        2.11081         78.0537         9.98101         127.174 
        2.12309         77.0045         9.84086         126.252 
        2.13538         76.0222         9.70319         125.139 
        2.14763         75.0722         9.56863          124.14 
        2.15986         74.0139         9.43693         123.044 
        2.17214         73.2037         9.30717         122.061 
        2.18443         72.2397         9.17973         121.229 
        2.19671           71.16         9.05484         120.185 
        2.20898         70.4579         8.93241         119.121 
        2.22126         69.4206         8.81212         118.214 
        2.23354         68.6582         8.69409         117.274 
         2.2458         67.3816         8.57842          116.33 
        2.25807         66.6662         8.46476         115.375 
        2.27035         65.7461         8.35306         114.433 
        2.28263         64.8971         8.24343         113.548 
         2.2949         63.9097         8.13582         112.657 
        2.30718         62.9836          8.0301          111.77 
        2.31946         62.5603         7.92621         110.812 
        2.33169         61.4476         7.82461         109.973 
        2.34393         60.9923         7.72463         109.179 
        2.35622          59.839         7.62608         108.287 
        2.36847         59.4189         7.52952         107.548 
        2.38076         58.4181         7.43435         106.569 
        2.39305         57.8044         7.34085         105.851 
        2.40534         57.0407         7.24895         104.976 
        2.41762         56.3779         7.15864         104.122 
        2.42989         55.5152         7.07001         103.384 
        2.44216         54.9635         6.98288         102.522 
         2.4544         54.1197         6.89743         101.769 
        2.46667         53.5239          6.8132         100.984 
        2.47897          52.937         6.73018         100.174 
        2.49124          52.386         6.64878         99.4503 
        2.50349          51.865         6.56884         98.6883 
        2.51578         51.0625         6.48997          98.035 
        2.52805         50.4869         6.41255         97.2083 
        2.54029         49.9824         6.33657         96.4466 
        2.55257         49.3298          6.2616         95.7868 
        2.56487         49.0463          6.1877         95.0997 
        2.57716         48.2806         6.11509         94.3808 
        2.58942         47.6215         6.04382         93.6761 
        2.60167         47.0865         5.97374         92.9929 
        2.61395         46.6083         5.90468         92.3062 
        2.62624         45.9736         5.83661         91.5694 
        2.63849           45.47         5.76983         90.9181 
        2.65073         45.0371         5.70416         90.2567 
        2.66302         44.5019         5.63929         89.5711 
         2.6753         44.0709         5.57546         88.9538 
        2.68756         43.6192         5.51275         88.2799 
        2.69983         43.0552         5.45097         87.6721 
        2.71213         42.6497            5.39         87.0426 
        2.72441         42.2112         5.33007         86.4031 
        2.73665         41.6933          5.2712         85.8053 
         2.7489         41.2742         5.21325         85.1985 
        2.76118         40.8958         5.15599         84.5769 
        2.77349         40.4381         5.09946         83.9794 
        2.78576         40.0668         5.04399         83.3512 
        2.79802         39.7266         4.98938         82.8389 
        2.81031         39.1799         4.93546         82.2307 
        2.82259         38.9962         4.88235           81.62 
        2.83483         38.4873         4.83022         81.0969 
         2.8471          38.178         4.77876         80.5081 
         2.8594          37.821         4.72788         79.9261 
         2.8717         37.6414         4.67777         79.4066 
        2.88396         37.2074         4.62857          78.846 
        2.89619         36.9935         4.58016         78.2535 
        2.90847         36.5876         4.53227         77.6921 
        2.92072         36.3769         4.48514         77.2084 
        2.93299         36.2198         4.43865         76.6971 
        2.94526         35.8036         4.39279         76.1617 
        2.95753         35.5799         4.34758         75.6243 
        2.96982         35.2632         4.30294         75.1185 
        2.98209         35.0513         4.25901         74.6233 
        2.99436         34.7733         4.21566         74.0812 
        3.00666         34.7351         4.17284         73.5861 
        3.01894          34.359          4.1307         73.0893 
        3.03119         34.3253          4.0892         72.6186 
        3.04345          34.155         4.04826         72.1482 
        3.05573         33.8141         4.00781         71.6576 
          3.068         33.7463         3.96795         71.1803 
        3.08026         33.5691         3.92867         70.7006 
        3.09254         33.5002         3.88986          70.241 
        3.10483         33.4604         3.85156         69.7838 
         3.1171         33.2832         3.81382         69.3175 
        3.12933         33.1477          3.7767          68.854 
        3.14159         33.0222         3.73999         68.3863 
