# k  (h/Mpc)    P(k)  (Mpc/h)^3    P_linear(k)  (Mpc/h)^3     P_NL(k)  ShotnoiseSubtracted = false
      0.0156606         17830.5         17781.8         17652.7 
      0.0273761         15289.4         15349.5         15207.9 
      0.0384619           11566         11554.3         11433.1 
      0.0498308         8945.08         9083.34         8963.01 
      0.0625568         7551.45          7716.8         7608.26 
      0.0751274         6703.26         6554.66         6400.79 
      0.0867833         5204.45         5276.41         5230.42 
      0.0984825         4371.28         4175.12          4221.4 
       0.111151          3725.7         3485.83         3540.48 
       0.123864         3339.84         3141.22         3185.89 
       0.135742         3036.41          2824.6          2869.8 
        0.14762         2633.79         2415.08         2534.92 
       0.160083         2221.79         2013.04         2158.52 
       0.172465         1981.68         1756.95         1941.42 
       0.184281         1805.07         1619.67          1806.5 
       0.196406         1687.33         1495.73         1660.41 
       0.209011         1570.27          1330.8         1502.58 
       0.221538          1415.9         1162.97         1395.51 
       0.233611         1345.34         1040.55         1302.07 
       0.245665         1225.02         960.378         1200.37 
       0.258103         1197.52         894.022         1131.85 
       0.270422         1071.68         821.496         1060.49 
       0.282519         1004.52         745.548         998.532 
       0.294636         991.939         679.273         943.122 
       0.306978         898.235         628.439         901.387 
       0.319417         874.511         587.551         849.095 
        0.33169         823.543         548.414         802.077 
       0.343948         787.078         508.135          775.61 
       0.356249         742.482         470.362         745.182 
       0.368458         717.663         438.723         708.739 
        0.38068         699.186         412.267         680.041 
       0.392856         661.322         388.113         654.589 
       0.405069         630.632         364.495          634.34 
       0.417459         605.784          341.63         607.833 
       0.429752         595.491         321.103         586.236 
       0.441978         575.177         303.087         570.295 
       0.454294         546.884         286.727         546.179 
        0.46658         533.454         271.376         533.898 
       0.478753         520.118         256.894         516.677 
       0.490964         500.309         243.291         500.234 
       0.503334         475.462         230.738          487.88 
       0.515665         474.398         219.289          477.28 
       0.527909         456.006          208.72         465.244 
       0.540159         444.391          198.72         452.518 
        0.55248           435.6         189.232         440.433 
       0.564743         431.063         180.448         432.603 
        0.57686         414.574         172.374         420.493 
       0.589077          402.69         164.752          411.09 
       0.601441         397.123         157.504         402.269 
        0.61382         388.125         150.671         394.992 
       0.626067         382.593         144.295          386.78 
       0.638306         367.182          138.29         379.324 
       0.650632          362.35         132.601          368.99 
       0.662899         359.093          127.27         364.618 
       0.675076         345.426         122.273         358.357 
       0.687267         336.618         117.539         349.868 
       0.699615         332.521         112.996         344.151 
       0.711937         327.411         108.702         337.953 
       0.724148         316.527         104.667         332.961 
       0.736433         309.363         100.817         326.495 
       0.748747         304.998         97.1548         320.449 
       0.761037         299.154         93.6835         315.845 
       0.773197         295.482         90.4177         311.314 
       0.785376         290.865         87.3039         306.185 
       0.797761         283.333         84.2885         301.399 
       0.810096         280.637         81.4276         297.426 
       0.822371         270.551         78.7133         292.506 
       0.834626         269.456         76.1278         288.459 
       0.846916         263.562         73.6522         284.158 
       0.859215         263.359          71.286         280.093 
       0.871383         256.252         69.0477          276.01 
        0.88363         254.614         66.8928         273.165 
       0.895928         248.991         64.8221         268.818 
       0.908253         242.429         62.8356         264.495 
       0.920535         240.719         60.9394         261.026 
       0.932774         233.959         59.1285         257.407 
        0.94508         231.339         57.3824         254.724 
       0.957324         230.441         55.7157         251.061 
        0.96953         227.035         54.1206         247.676 
       0.981769         220.236         52.5842         245.243 
       0.994071         219.287         51.1004         242.101 
         1.0064         214.439         49.6716         238.495 
        1.01868         211.612         48.3019         235.616 
        1.03092         206.699         46.9901         233.295 
         1.0432         203.153         45.7226         230.437 
        1.05553         200.454         44.4971         227.473 
        1.06777         199.881         43.3256         225.142 
           1.08         194.841         42.1977         222.376 
        1.09227         192.519         41.1064         219.892 
         1.1046         189.605         40.0498         217.629 
         1.1169         185.761         39.0323         214.643 
        1.12915         183.139         38.0554         212.703 
        1.14142         180.178           37.11         209.953 
        1.15365         177.605         36.1997         207.744 
        1.16585          174.95         35.3224         205.097 
        1.17807         172.679         34.4733         203.459 
        1.19037         170.961         33.6465          201.48 
        1.20276         168.347         32.8414         198.939 
        1.21504         164.923         32.0691         196.796 
        1.22728         161.829         31.3249         194.279 
        1.23954         161.299         30.6026         192.881 
        1.25184         158.173         29.9018          190.68 
        1.26414          155.48         29.2227          188.71 
        1.27632         154.873         28.5709         187.438 
         1.2886         152.828         27.9344          184.96 
        1.30093         148.375         27.3151         182.914 
        1.31316         146.579         26.7192         180.846 
        1.32541          145.06         26.1409         179.439 
        1.33772         143.656         25.5766         177.525 
        1.35005         141.344         25.0287         175.532 
        1.36225         139.269         24.5024         173.944 
        1.37447         137.208         23.9903         171.885 
        1.38676         135.486         23.4905         170.363 
        1.39907         133.102         23.0042         168.606 
        1.41133         131.057         22.5337         167.123 
        1.42358         129.273         22.0769         165.555 
        1.43591         127.779         21.6297         163.744 
        1.44818         126.258         21.1973          162.31 
        1.46037         124.139         20.7794         160.618 
        1.47263         122.794         20.3704         159.381 
        1.48494         120.821         19.9709         157.489 
        1.49724         119.169         19.5824         156.116 
        1.50952          116.97         19.2051         154.643 
        1.52178         116.458         18.8383         153.022 
        1.53409         113.976         18.4796         151.762 
        1.54637         112.591          18.131         150.466 
        1.55858          110.54         17.7934         148.882 
        1.57081         109.071          17.464         147.626 
        1.58313         107.727         17.1408         146.152 
        1.59544         106.293          16.826         144.889 
        1.60767         105.079         16.5212         143.498 
        1.61994         103.218         16.2228         142.438 
        1.63225          101.93         15.9312         140.772 
        1.64452          100.03         15.6476         139.526 
        1.65676         98.5814         15.3718         138.391 
          1.669         97.9839         15.1025         137.249 
        1.68133         95.8906         14.8379         135.967 
        1.69363         94.9205         14.5804         134.777 
        1.70585         93.1497         14.3307         133.565 
        1.71809         92.0054         14.0864         132.248 
        1.73038           91.29         13.8469         131.155 
        1.74268         90.0332         13.6129         129.947 
        1.75493         88.4117         13.3854         128.799 
        1.76714         87.2256         13.1637         127.767 
        1.77942         86.1318         12.9459         126.499 
        1.79173         84.8187         12.7324         125.517 
        1.80402         84.1436         12.5242         124.447 
         1.8163         82.4394         12.3208         123.246 
         1.8286         81.2844         12.1216         122.205 
         1.8409         80.6517         11.9269          121.13 
        1.85315         79.3123         11.7372         120.168 
        1.86537         78.3514          11.552         119.155 
        1.87765         77.6577         11.3701          118.09 
        1.88995         76.3326         11.1916         117.132 
        1.90221         75.2866         11.0177         116.124 
        1.91445         74.1776         10.8477         115.078 
        1.92674         72.9784         10.6807         114.147 
        1.93902         72.0919         10.5172         113.122 
        1.95124         71.3922          10.358         112.242 
         1.9635         70.2849         10.2017         111.168 
        1.97583         69.2344         10.0477         110.373 
        1.98812         68.3249         9.89741         109.427 
        2.00039          67.392          9.7505         108.495 
        2.01264         66.7668         9.60671         107.585 
        2.02492         65.8065         9.46562         106.686 
        2.03717         64.7055          9.3276         105.754 
        2.04942         64.3962         9.19251         105.003 
        2.06171          62.958         9.05964         104.085 
        2.07397         62.2691         8.92969         103.273 
        2.08629         61.5452         8.80174         102.371 
        2.09857         60.5846         8.67661         101.562 
        2.11081         59.6522         8.55443         100.633 
        2.12309         59.0749         8.43431         99.9529 
        2.13538         58.2386         8.31632         99.0928 
        2.14763         57.4314         8.20099         98.2989 
        2.15986         56.3741         8.08811         97.4761 
        2.17214         55.9772          7.9769         96.6707 
        2.18443         55.2807         7.86768         96.0271 
        2.19671         54.2608         7.76063         95.2015 
        2.20898          54.032         7.65571         94.4207 
        2.22126         53.1637         7.55261         93.6444 
        2.23354         52.4736         7.45145         92.9428 
         2.2458         51.7639         7.35231         92.2365 
        2.25807         51.0567         7.25489          91.452 
        2.27035         50.5211         7.15916         90.7214 
        2.28263         49.7396          7.0652         90.0032 
         2.2949         49.2876         6.97297         89.3054 
        2.30718          48.338         6.88236         88.6423 
        2.31946         47.9551         6.79332         87.9413 
        2.33169         47.1717         6.70624         87.2625 
        2.34393         46.5693         6.62055         86.6051 
        2.35622         46.1224         6.53609         85.9249 
        2.36847         45.5858         6.45333         85.3359 
        2.38076         44.8369         6.37176         84.5853 
        2.39305         44.3188         6.29163         83.9971 
        2.40534         43.8533         6.21286          83.307 
        2.41762         43.3506         6.13546         82.6297 
        2.42989         42.8406         6.05949         82.0831 
        2.44216         42.3519         5.98482         81.4214 
         2.4544         41.7993         5.91158         80.7989 
        2.46667         41.3316         5.83939         80.1625 
        2.47897         40.8627         5.76824         79.5719 
        2.49124         40.3051         5.69847         78.9987 
        2.50349         39.9268         5.62996         78.3746 
        2.51578          39.346         5.56236         77.8672 
        2.52805         38.9425           5.496          77.241 
        2.54029         38.5062         5.43088         76.6232 
        2.55257         37.9265         5.36663         76.0984 
        2.56487         37.6086         5.30329         75.5714 
        2.57716         37.1179         5.24106         75.0266 
        2.58942         36.6125         5.17997           74.45 
        2.60167         36.3128         5.11992         73.9057 
        2.61395         35.8035         5.06072         73.3712 
        2.62624         35.6012         5.00238         72.8014 
        2.63849         35.1657         4.94515         72.2958 
        2.65073         34.7969         4.88887         71.7531 
        2.66302         34.3029         4.83327          71.229 
         2.6753         33.9019         4.77856         70.7273 
        2.68756         33.5106         4.72482         70.1897 
        2.69983         33.2688         4.67186         69.7309 
        2.71213         32.9118         4.61961          69.247 
        2.72441         32.5476         4.56824         68.7335 
        2.73665         32.1242         4.51779         68.2352 
         2.7489          32.052         4.46812         67.7567 
        2.76118         31.5546         4.41904         67.2919 
        2.77349         31.3595         4.37059         66.8091 
        2.78576         31.1044         4.32306          66.314 
        2.79802          30.695         4.27625         65.9022 
        2.81031         30.3689         4.23003         65.4228 
        2.82259         30.2918         4.18452         64.9407 
        2.83483         29.8674         4.13984         64.5156 
         2.8471         29.5464         4.09573         64.0712 
         2.8594         29.3945         4.05213         63.6121 
         2.8717         29.1866         4.00918         63.1808 
        2.88396         28.8744         3.96701          62.731 
        2.89619         28.6925         3.92552          62.274 
        2.90847         28.4585         3.88447         61.8587 
        2.92072          28.233         3.84408         61.4464 
        2.93299         28.0555         3.80424         61.0243 
        2.94526         27.7991         3.76493         60.6212 
        2.95753         27.6395         3.72618         60.2105 
        2.96982         27.5379         3.68792         59.7979 
        2.98209         27.2534         3.65027            59.4 
        2.99436         27.1076         3.61312         58.9768 
        3.00666         26.9974         3.57642         58.5935 
        3.01894         26.7783          3.5403         58.1856 
        3.03119         26.6513         3.50473         57.8064 
        3.04345         26.4947         3.46965         57.4448 
        3.05573         26.3697         3.43497         57.0631 
          3.068         26.3348         3.40081         56.6789 
        3.08026         26.1518         3.36715         56.2973 
        3.09254         26.0416         3.33388         55.9256 
        3.10483         26.0521         3.30105         55.5659 
         3.1171         25.8903         3.26872         55.2036 
        3.12933         25.8727          3.2369         54.8317 
        3.14159         25.7381         3.20544         54.4643 
