# k  (h/Mpc)    Pcb(k)  (Mpc/h)^3    Pcb_linear(k) (Mpc/h)^3    Pcb_NL(k) (Mpc/h)^3   ShotnoiseSubtracted = false
      0.0156606         8534.56         8553.62         8503.87 
      0.0273761         7374.99         7398.28         7359.41 
      0.0384619         5600.02         5574.72         5547.71 
      0.0498308         4362.57         4385.31         4360.73 
      0.0625568         3681.84          3727.2         3703.17 
      0.0751274         3231.69         3166.77         3130.75 
      0.0867833         2534.09         2549.66         2541.11 
      0.0984825          2090.1         2017.76          2033.4 
       0.111151         1763.83         1684.81         1701.18 
       0.123864         1584.26         1518.37         1532.14 
       0.135742         1430.38          1365.4         1379.57 
        0.14762         1225.32         1167.49         1202.47 
       0.160083         1019.75         973.175         1013.57 
       0.172465         906.748         849.398         899.463 
       0.184281         837.163         783.046         835.494 
       0.196406         766.996         723.142         765.926 
       0.209011         701.993         643.413         689.808 
       0.221538         631.247         562.283         627.022 
       0.233611         581.619         503.098         575.691 
       0.245665         541.844         464.341         529.541 
       0.258103          503.06         432.262          497.11 
       0.270422         463.517         397.199          461.61 
       0.282519         424.235          360.48         428.107 
       0.294636         417.981         328.438         399.628 
       0.306978         370.413          303.86         377.866 
       0.319417         355.564         284.092          355.11 
        0.33169         333.296         265.169         333.713 
       0.343948          317.99         245.695         317.834 
       0.356249         296.432         227.431         302.723 
       0.368458         286.552         212.134         284.633 
        0.38068          272.69         199.341         270.973 
       0.392856         254.813         187.663         259.261 
       0.405069         244.127         176.244         248.782 
       0.417459          232.75         165.188         235.461 
       0.429752         224.178         155.263         226.089 
       0.441978           216.2         146.552         218.535 
       0.454294         201.631         138.642         207.856 
        0.46658         201.679          131.22         201.163 
       0.478753         190.554         124.218         193.758 
       0.490964         184.615         117.641           186.5 
       0.503334         175.021          111.57         180.484 
       0.515665         171.261         106.034         175.903 
       0.527909         166.073         100.924          168.67 
       0.540159          160.66          96.089         163.743 
        0.55248         156.178         91.5013         158.279 
       0.564743         151.601         87.2535         154.287 
        0.57686         146.702         83.3493         149.236 
       0.589077         140.344         79.6639         145.739 
       0.601441         137.459         76.1596         141.918 
        0.61382         135.497         72.8555         137.754 
       0.626067         130.536         69.7722         134.261 
       0.638306         125.603         66.8688         131.122 
       0.650632         121.304         64.1179         126.583 
       0.662899         121.247         61.5401         123.869 
       0.675076         116.922         59.1242         120.904 
       0.687267         114.144         56.8351         118.095 
       0.699615         110.937         54.6384         115.671 
       0.711937         107.769         52.5619         112.643 
       0.724148         106.608         50.6109         111.063 
       0.736433         102.782         48.7493         108.166 
       0.748747         100.698         46.9785         105.831 
       0.761037         98.6852            45.3         103.361 
       0.773197         96.5268         43.7209          102.17 
       0.785376         94.5312         42.2152         99.6026 
       0.797761         93.4254         40.7572         98.1454 
       0.810096         90.2061         39.3738         95.9652 
       0.822371         88.3753         38.0614         94.1908 
       0.834626         86.4867         36.8111         92.5834 
       0.846916         85.4176         35.6141         91.0014 
       0.859215         83.6896         34.4699         89.2125 
       0.871383         82.5153         33.3877         87.7171 
        0.88363         80.2931         32.3457          86.533 
       0.895928         78.7386         31.3444         85.1184 
       0.908253         76.7521         30.3838         83.6084 
       0.920535         76.3923          29.467         82.3799 
       0.932774         74.7257         28.5913           80.93 
        0.94508         73.7951          27.747          79.583 
       0.957324         72.0488         26.9411         78.5557 
        0.96953         72.1185         26.1698           77.17 
       0.981769         69.6948         25.4268         76.3181 
       0.994071         68.9416         24.7094         75.1909 
         1.0064         67.4274         24.0185         74.0684 
        1.01868         66.6015         23.3562         73.0989 
        1.03092         65.4139         22.7219         72.0582 
         1.0432         64.3019          22.109         70.9724 
        1.05553         62.6529         21.5164         70.3793 
        1.06777         62.3449         20.9499         69.3702 
           1.08         60.9705         20.4045          68.407 
        1.09227         60.1307         19.8768         67.4143 
         1.1046         59.2064         19.3659         66.5763 
         1.1169         58.5368          18.874         65.6117 
        1.12915         57.6548         18.4016         64.9432 
        1.14142         56.5467         17.9444         64.1428 
        1.15365          55.618         17.5042         63.4091 
        1.16585         54.8235           17.08         62.5392 
        1.17807         53.9671         16.6694         61.8068 
        1.19037         53.8536         16.2697         61.2193 
        1.20276          52.826         15.8804         60.4956 
        1.21504         52.3044         15.5069         59.7862 
        1.22728         51.2183         15.1471         59.1401 
        1.23954         50.6504         14.7978         58.3512 
        1.25184         49.8244         14.4589         57.8431 
        1.26414          49.049         14.1306         57.1241 
        1.27632         48.6553         13.8154         56.5763 
         1.2886         48.1429         13.5076          55.928 
        1.30093         47.4162         13.2081         55.2093 
        1.31316         46.6769           12.92         54.8198 
        1.32541         46.3975         12.6404         54.1895 
        1.33772         45.5319         12.3675         53.6234 
        1.35005         45.0566         12.1026         53.1126 
        1.36225         44.2864         11.8481         52.5826 
        1.37447         43.2434         11.6004         52.0234 
        1.38676         43.4225         11.3588         51.5367 
        1.39907         42.7319         11.1236         51.1001 
        1.41133         41.8476         10.8961         50.6263 
        1.42358         41.3936         10.6752         50.0543 
        1.43591         41.0102          10.459         49.6461 
        1.44818         40.5278         10.2499         49.0557 
        1.46037         39.9938         10.0478         48.6698 
        1.47263          39.696         9.85005         48.2785 
        1.48494         38.9041         9.65686         47.7635 
        1.49724         38.6952         9.46902         47.3265 
        1.50952         38.2591         9.28658          46.917 
        1.52178         37.6655         9.10921         46.5147 
        1.53409         37.3716         8.93577         46.1006 
        1.54637         36.7806         8.76721           45.65 
        1.55858         36.0007         8.60397         45.2325 
        1.57081         36.0503         8.44466         44.9135 
        1.58313         35.6279          8.2884         44.5151 
        1.59544         34.9913         8.13619         44.1089 
        1.60767         34.5593         7.98878         43.7017 
        1.61994         34.1429         7.84451         43.3503 
        1.63225         33.9301         7.70352         42.9917 
        1.64452         33.5136         7.56638         42.6525 
        1.65676         33.0999         7.43302         42.2677 
          1.669         32.7887         7.30278         41.9777 
        1.68133         32.4631         7.17484         41.5761 
        1.69363         31.9239         7.05034         41.2236 
        1.70585         31.7133         6.92959          40.979 
        1.71809         31.1663         6.81143          40.541 
        1.73038         31.0009         6.69566         40.3013 
        1.74268         30.5463         6.58251         39.8929 
        1.75493         30.2295         6.47249         39.6117 
        1.76714         29.9714         6.36528         39.3265 
        1.77942         29.6552         6.25995         39.0067 
        1.79173         29.2374         6.15674         38.6863 
        1.80402         28.9171         6.05607         38.4775 
         1.8163         28.7297         5.95771         38.0322 
         1.8286          28.235         5.86136         37.8129 
         1.8409         27.9991         5.76723          37.502 
        1.85315         27.6867         5.67549          37.264 
        1.86537         27.3276         5.58593         36.9835 
        1.87765          27.196         5.49796         36.6869 
        1.88995         26.7867         5.41169         36.3503 
        1.90221         26.5238         5.32756         36.0922 
        1.91445         26.1531         5.24537         35.8498 
        1.92674         25.9215         5.16462         35.5644 
        1.93902         25.6304         5.08557         35.3274 
        1.95124         25.2034          5.0086         35.1137 
         1.9635         25.0622         4.93303         34.8152 
        1.97583         24.7982         4.85854         34.5893 
        1.98812         24.5821         4.78587         34.3333 
        2.00039         24.2896         4.71483         34.0787 
        2.01264         23.9988         4.64531         33.8576 
        2.02492         23.8276         4.57708         33.5844 
        2.03717         23.4537         4.51034         33.3534 
        2.04942         23.2592         4.44502         33.0966 
        2.06171         23.0911         4.38077         32.8874 
        2.07397         22.8364         4.31793         32.6232 
        2.08629         22.6017         4.25606         32.3892 
        2.09857         22.3458         4.19556         32.1817 
        2.11081         22.0929         4.13648         31.9491 
        2.12309         21.9375         4.07839         31.7223 
        2.13538         21.6083         4.02134         31.5277 
        2.14763         21.4748         3.96557         31.2974 
        2.15986         21.2222         3.91099         31.0749 
        2.17214         21.0135         3.85722         30.8817 
        2.18443         20.8127          3.8044         30.6372 
        2.19671          20.555         3.75264          30.431 
        2.20898         20.3737          3.7019         30.2128 
        2.22126          20.251         3.65205         30.0199 
        2.23354          20.069         3.60313         29.8367 
         2.2458         19.8733          3.5552         29.6421 
        2.25807         19.5838         3.50809         29.4044 
        2.27035         19.3996          3.4618         29.2305 
        2.28263         19.2478         3.41636         29.0401 
         2.2949          19.086         3.37177         28.8505 
        2.30718         18.9017         3.32796         28.6477 
        2.31946          18.775          3.2849         28.4545 
        2.33169         18.5451         3.24279          28.268 
        2.34393         18.3748         3.20136         28.0963 
        2.35622         18.1851         3.16051         27.9156 
        2.36847         17.9892          3.1205         27.7106 
        2.38076         17.8352         3.08105         27.5592 
        2.39305         17.6953         3.04231          27.382 
        2.40534         17.5044         3.00422         27.1647 
        2.41762         17.3269         2.96679         27.0371 
        2.42989         17.2076         2.93006         26.8206 
        2.44216         16.9931         2.89395         26.6708 
         2.4544          16.984         2.85853         26.4846 
        2.46667         16.7524         2.82363         26.3248 
        2.47897         16.5466         2.78922         26.1451 
        2.49124         16.4806         2.75549         25.9805 
        2.50349         16.2607         2.72236         25.8071 
        2.51578         16.1648         2.68967         25.6691 
        2.52805         16.0095         2.65758         25.4962 
        2.54029          15.883          2.6261         25.3347 
        2.55257         15.7724         2.59502         25.1692 
        2.56487         15.5866          2.5644         25.0215 
        2.57716         15.4789         2.53431         24.8435 
        2.58942         15.3957         2.50477          24.713 
        2.60167          15.167         2.47573          24.554 
        2.61395         15.1206          2.4471            24.4 
        2.62624         15.0261         2.41889         24.2403 
        2.63849         14.8565         2.39122         24.1149 
        2.65073         14.7339         2.36401         23.9506 
        2.66302         14.6444         2.33712         23.8168 
         2.6753         14.5823         2.31067         23.6614 
        2.68756         14.4342         2.28468         23.5271 
        2.69983         14.3091         2.25907         23.3685 
        2.71213         14.1826          2.2338         23.2157 
        2.72441         14.1101         2.20897         23.0821 
        2.73665         13.9963         2.18457         22.9444 
         2.7489         13.9608         2.16055          22.804 
        2.76118         13.8038         2.13682         22.6687 
        2.77349          13.728         2.11339         22.5348 
        2.78576         13.6215         2.09041         22.4085 
        2.79802         13.5657         2.06777         22.2615 
        2.81031         13.4694         2.04543         22.1233 
        2.82259         13.3397         2.02342         22.0064 
        2.83483         13.3331         2.00181         21.8746 
         2.8471         13.2599         1.98048         21.7305 
         2.8594         13.1582          1.9594         21.5952 
         2.8717         13.0983         1.93863         21.4769 
        2.88396         13.0168         1.91824         21.3471 
        2.89619         12.9883         1.89818         21.2186 
        2.90847         12.9008         1.87833         21.1087 
        2.92072         12.8575          1.8588         20.9604 
        2.93299         12.7503         1.83953          20.854 
        2.94526         12.7115         1.82052         20.7405 
        2.95753         12.6779         1.80179         20.6083 
        2.96982         12.6139         1.78329         20.4893 
        2.98209         12.5886         1.76508         20.3733 
        2.99436         12.5349         1.74712         20.2468 
        3.00666         12.5169         1.72937         20.1272 
        3.01894         12.4672         1.71191         20.0257 
        3.03119         12.4469         1.69471         19.9075 
        3.04345          12.372         1.67774         19.7811 
        3.05573         12.3708         1.66098         19.6701 
          3.068           12.33         1.64446         19.5639 
        3.08026         12.3251         1.62818         19.4384 
        3.09254         12.2831         1.61209         19.3341 
        3.10483         12.2937         1.59622         19.2336 
         3.1171         12.3234         1.58058         19.1204 
        3.12933         12.2822          1.5652         19.0098 
        3.14159         12.2394         1.54998          18.895 
