# k  (h/Mpc)    Pcb(k)  (Mpc/h)^3    Pcb_linear(k) (Mpc/h)^3    Pcb_NL(k) (Mpc/h)^3   ShotnoiseSubtracted = false
      0.0156606         4923.09         4929.35         4903.37 
      0.0273761         4267.22         4264.53         4248.74 
      0.0384619         3242.37         3213.72         3205.34 
      0.0498308         2534.65         2528.19         2521.62 
      0.0625568         2138.63         2148.86         2141.39 
      0.0751274          1863.1         1825.79          1813.7 
      0.0867833         1469.97         1470.02         1467.83 
      0.0984825         1200.64         1163.36         1169.98 
       0.111151         1008.66         971.404         978.041 
       0.123864         906.204         875.443         880.905 
       0.135742         815.828         787.249         792.832 
        0.14762         694.989         673.142         686.327 
       0.160083         577.025         561.106         576.076 
       0.172465         510.849         489.741         507.985 
       0.184281         473.278         451.485         470.837 
       0.196406         431.792         416.946         432.198 
       0.209011         391.717         370.977         387.949 
       0.221538         350.074         324.199         347.925 
       0.233611         318.097         290.075         316.551 
       0.245665         298.627         267.728         291.355 
       0.258103         271.243         249.232         272.769 
       0.270422         253.521         229.016         252.123 
       0.282519          230.52         207.845         232.252 
       0.294636         223.517          189.37         215.121 
       0.306978         197.232         175.199         201.919 
       0.319417         188.712         163.801         189.537 
        0.33169         175.876         152.891         177.753 
       0.343948         167.727         141.662         167.397 
       0.356249          154.98         131.132         158.573 
       0.368458         148.791         122.312         148.237 
        0.38068         140.451         114.936         140.572 
       0.392856         130.967         108.203         133.975 
       0.405069         124.495         101.619         127.194 
       0.417459         117.868         95.2441         120.386 
       0.429752         113.196         89.5215         114.852 
       0.441978         108.308         84.4989         110.495 
       0.454294         100.748          79.938         104.711 
        0.46658         100.711         75.6585         100.552 
       0.478753         93.8984         71.6214         96.5421 
       0.490964         91.0055         67.8292         92.7078 
       0.503334         87.0966         64.3289         88.9789 
       0.515665         83.7331         61.1371         86.3813 
       0.527909         80.5351         58.1906         82.0505 
       0.540159         77.6514          55.403         79.3902 
        0.55248         73.5629         52.7579         76.3649 
       0.564743         72.0932         50.3086         74.0352 
        0.57686         69.8509         48.0576         71.4821 
       0.589077         66.2665         45.9327         69.4352 
       0.601441         64.4659         43.9121         67.2467 
        0.61382          62.638          42.007         64.8671 
       0.626067         60.0357         40.2293         63.1152 
       0.638306         58.2465         38.5552         61.1252 
       0.650632         56.3175         36.9691         59.0359 
       0.662899         55.0979         35.4828         57.3447 
       0.675076         52.8395         34.0899         55.7751 
       0.687267         52.0897           32.77         54.2113 
       0.699615         50.2293         31.5035         53.0088 
       0.711937         48.2118         30.3062         51.2253 
       0.724148         47.9652         29.1813         50.3254 
       0.736433         45.3804         28.1079         48.8433 
       0.748747         44.7935         27.0869          47.606 
       0.761037           43.55         26.1191         46.4899 
       0.773197          42.526         25.2086          45.589 
       0.785376         41.0316         24.3405         44.4084 
       0.797761         40.5284         23.4998          43.511 
       0.810096         39.4942         22.7022         42.4455 
       0.822371         38.5759         21.9454         41.4115 
       0.834626         37.5046         21.2246         40.7061 
       0.846916         36.6026         20.5344         39.7752 
       0.859215         35.4784         19.8747          38.904 
       0.871383         34.9876         19.2507         38.1992 
        0.88363         34.1017         18.6499         37.5144 
       0.895928          33.326         18.0726         36.6382 
       0.908253         32.6466         17.5187         36.0531 
       0.920535         32.0659         16.9901         35.3105 
       0.932774         31.5135         16.4852         34.6415 
        0.94508         30.8433         15.9984         33.9341 
       0.957324         30.1827         15.5337         33.3738 
        0.96953         29.5594          15.089         32.7202 
       0.981769          28.989         14.6606          32.242 
       0.994071         28.3511          14.247         31.6529 
         1.0064         27.7229         13.8486         31.1212 
        1.01868           27.16         13.4667         30.6365 
        1.03092         26.9472          13.101         30.0882 
         1.0432         26.2261         12.7476         29.5186 
        1.05553         25.7354         12.4059         29.2443 
        1.06777         25.0802         12.0793         28.6334 
           1.08         24.5602         11.7649         28.1925 
        1.09227          24.238         11.4606         27.8438 
         1.1046         23.8849          11.166         27.3428 
         1.1169         23.4741         10.8824         26.9435 
        1.12915         23.2075           10.61         26.5667 
        1.14142         22.5099         10.3464         26.1569 
        1.15365         22.3133         10.0926         25.7985 
        1.16585         22.0231         9.84802         25.4573 
        1.17807         21.5055         9.61127         25.0022 
        1.19037         21.3183         9.38078         24.7901 
        1.20276         20.9965         9.15631         24.3991 
        1.21504         20.5798         8.94099         24.1271 
        1.22728         20.1763          8.7335         23.7687 
        1.23954         19.9231         8.53213         23.4251 
        1.25184         19.5472         8.33675         23.1529 
        1.26414         19.3104         8.14741          22.822 
        1.27632         19.0316         7.96568         22.5307 
         1.2886         18.8245         7.78822          22.275 
        1.30093         18.3722         7.61556         22.0424 
        1.31316         18.1754         7.44941         21.7301 
        1.32541          17.954         7.28819         21.5158 
        1.33772         17.6271         7.13087         21.2457 
        1.35005         17.4015          6.9781          21.019 
        1.36225         17.1629         6.83137          20.759 
        1.37447         16.8202         6.68859         20.4992 
        1.38676         16.6327         6.54925         20.2963 
        1.39907         16.3786         6.41366         20.0639 
        1.41133         16.1348          6.2825           19.83 
        1.42358         15.9367         6.15514         19.5986 
        1.43591         15.6973         6.03045         19.4288 
        1.44818         15.4789          5.9099         19.2226 
        1.46037         15.3905         5.79337         18.9738 
        1.47263         15.1026         5.67935         18.8258 
        1.48494         14.9857         5.56796          18.581 
        1.49724          14.765         5.45966          18.427 
        1.50952         14.5553         5.35446          18.254 
        1.52178         14.3673         5.25219         18.0352 
        1.53409         14.1047         5.15219         17.8609 
        1.54637         14.0765         5.05501         17.6482 
        1.55858         13.8385         4.96088         17.5011 
        1.57081         13.6174         4.86903         17.3461 
        1.58313         13.5166         4.77893         17.1735 
        1.59544         13.2832         4.69117         17.0243 
        1.60767         13.1553         4.60618           16.84 
        1.61994         12.9224           4.523         16.7016 
        1.63225         12.8594          4.4417         16.5675 
        1.64452         12.6854         4.36263         16.4228 
        1.65676         12.5195         4.28574         16.2477 
          1.669         12.4166         4.21064         16.0985 
        1.68133         12.1768         4.13687         15.9503 
        1.69363          12.041         4.06509         15.7793 
        1.70585         11.9028         3.99547         15.6907 
        1.71809         11.7815         3.92734         15.5435 
        1.73038         11.6531         3.86059         15.4249 
        1.74268         11.5407         3.79535         15.2705 
        1.75493         11.3382         3.73191         15.1359 
        1.76714         11.3499          3.6701         15.0194 
        1.77942         11.2015         3.60937          14.871 
        1.79173         10.9775         3.54986         14.7691 
        1.80402         10.9174         3.49181         14.6541 
         1.8163         10.7901          3.4351         14.5319 
         1.8286         10.6316         3.37955          14.419 
         1.8409         10.5311         3.32528         14.3031 
        1.85315         10.4245         3.27238         14.1781 
        1.86537         10.3294         3.22074         14.0751 
        1.87765         10.2388         3.17002         13.9632 
        1.88995         10.0542         3.12027         13.8587 
        1.90221          10.016         3.07177         13.7297 
        1.91445         9.88763         3.02438         13.6466 
        1.92674         9.78053         2.97782           13.53 
        1.93902         9.69345         2.93224         13.4483 
        1.95124         9.56939         2.88786         13.3432 
         1.9635          9.4762         2.84429         13.2337 
        1.97583         9.39668         2.80134         13.1168 
        1.98812         9.32159         2.75944         13.0199 
        2.00039         9.23592         2.71848         12.9416 
        2.01264          9.1418         2.67839          12.853 
        2.02492         9.06536         2.63906          12.743 
        2.03717         8.92573         2.60058         12.6554 
        2.04942         8.83045         2.56291         12.5651 
        2.06171         8.80508         2.52587         12.4788 
        2.07397         8.69371         2.48964         12.3962 
        2.08629         8.61674         2.45397         12.3161 
        2.09857         8.53805         2.41908         12.2203 
        2.11081         8.46516         2.38501         12.1516 
        2.12309          8.3537         2.35152         12.0429 
        2.13538         8.28189         2.31863          11.968 
        2.14763         8.19934         2.28647         11.8899 
        2.15986         8.16351           2.255         11.8175 
        2.17214         8.08435           2.224         11.7171 
        2.18443         7.97991         2.19355         11.6518 
        2.19671         7.95404          2.1637         11.5735 
        2.20898         7.83706         2.13445         11.5002 
        2.22126         7.75625          2.1057         11.4197 
        2.23354         7.72371          2.0775          11.336 
         2.2458         7.63252         2.04986         11.2755 
        2.25807         7.57061          2.0227         11.1902 
        2.27035         7.51347         1.99601         11.1228 
        2.28263         7.45076         1.96981         11.0469 
         2.2949          7.3656          1.9441         10.9825 
        2.30718         7.31119         1.91884         10.9257 
        2.31946         7.25815         1.89401         10.8515 
        2.33169         7.19433         1.86973         10.7847 
        2.34393          7.1447         1.84584         10.7108 
        2.35622         7.09422         1.82229         10.6481 
        2.36847         7.02888         1.79922         10.5794 
        2.38076          6.9699         1.77648          10.516 
        2.39305         6.88348         1.75413         10.4408 
        2.40534         6.84762         1.73218         10.3736 
        2.41762         6.79842          1.7106         10.3273 
        2.42989         6.75856         1.68941         10.2652 
        2.44216           6.701          1.6686         10.1949 
         2.4544         6.63801         1.64818         10.1359 
        2.46667         6.62736         1.62805         10.0761 
        2.47897         6.56906         1.60821         10.0063 
        2.49124         6.49223         1.58876         9.94884 
        2.50349         6.46029         1.56966             9.9 
        2.51578         6.40386         1.55081         9.84466 
        2.52805         6.36967         1.53231         9.78729 
        2.54029         6.30897         1.51416          9.7314 
        2.55257         6.29725         1.49624         9.67359 
        2.56487          6.2265         1.47858         9.60807 
        2.57716         6.18798         1.46123         9.56099 
        2.58942         6.16538          1.4442         9.50773 
        2.60167         6.11861         1.42746          9.4505 
        2.61395          6.0615         1.41095         9.39949 
        2.62624         6.04336         1.39469         9.34516 
        2.63849         6.02107         1.37873          9.2946 
        2.65073         5.96714         1.36304         9.23625 
        2.66302         5.93165         1.34754         9.18217 
         2.6753         5.89238         1.33229         9.13207 
        2.68756         5.86454          1.3173         9.09002 
        2.69983         5.82625         1.30254         9.03023 
        2.71213         5.79074         1.28797         8.98017 
        2.72441         5.75493         1.27365         8.93339 
        2.73665         5.74178         1.25958         8.87971 
         2.7489         5.71967         1.24573         8.83356 
        2.76118         5.66658         1.23205         8.79401 
        2.77349         5.64477         1.21854         8.74027 
        2.78576         5.62785         1.20529         8.69391 
        2.79802         5.58796         1.19224         8.64703 
        2.81031         5.57081         1.17935         8.60417 
        2.82259         5.53664         1.16666         8.55807 
        2.83483         5.52248         1.15421         8.51002 
         2.8471         5.50473         1.14191          8.4691 
         2.8594         5.49694         1.12975         8.42538 
         2.8717         5.45258         1.11778          8.3737 
        2.88396         5.43475         1.10602         8.33242 
        2.89619         5.40156         1.09445         8.29494 
        2.90847         5.40025         1.08301           8.245 
        2.92072         5.40085         1.07175         8.20109 
        2.93299          5.3907         1.06064         8.16501 
        2.94526          5.3698         1.04968         8.11904 
        2.95753         5.35227         1.03888         8.07498 
        2.96982         5.33127         1.02821         8.03621 
        2.98209         5.32491         1.01771         7.98955 
        2.99436         5.31903         1.00735         7.95022 
        3.00666          5.3284        0.997122         7.91415 
        3.01894          5.2999        0.987052         7.86877 
        3.03119         5.30468        0.977135         7.82991 
        3.04345         5.29967        0.967354         7.79168 
        3.05573         5.29048        0.957687         7.74934 
          3.068         5.28452        0.948162          7.7139 
        3.08026         5.30943        0.938777         7.67718 
        3.09254         5.30176        0.929501         7.63615 
        3.10483         5.29361        0.920349         7.60066 
         3.1171         5.30421        0.911333         7.56543 
        3.12933         5.30905        0.902462         7.52337 
        3.14159         5.29722        0.893691         7.48699 
