# k  (h/Mpc)    Pcb(k)  (Mpc/h)^3    Pcb_linear(k) (Mpc/h)^3    Pcb_NL(k) (Mpc/h)^3   ShotnoiseSubtracted = false
      0.0156606         18635.9         18724.9           18586 
      0.0273761         15999.5           16190         16033.8 
      0.0384619           12112         12197.3         12062.3 
      0.0498308         9369.94         9593.98         9459.26 
      0.0625568         7915.01         8153.66         8032.57 
      0.0751274         7033.36         6927.39         6756.16 
      0.0867833         5459.17          5577.3         5525.57 
      0.0984825         4592.74         4413.71         4463.94 
       0.111151         3918.39         3685.36         3745.49 
       0.123864         3513.03         3321.25         3370.26 
       0.135742         3196.16         2986.63          3036.1 
        0.14762         2775.12         2553.71          2685.1 
       0.160083         2345.17         2128.66         2288.87 
       0.172465         2091.99         1857.91         2061.33 
       0.184281         1904.02         1712.78         1918.23 
       0.196406         1783.59         1581.74         1764.06 
       0.209011         1662.33         1407.35          1597.1 
       0.221538         1498.94         1229.89         1485.64 
       0.233611         1427.41         1100.43         1387.95 
       0.245665         1298.42         1015.65         1280.12 
       0.258103         1273.36         945.486         1207.51 
       0.270422         1138.88         868.792         1132.26 
       0.282519         1069.52         788.477         1067.73 
       0.294636         1055.38          718.39         1009.36 
       0.306978         957.701         664.631          965.45 
       0.319417         934.088         621.392          909.68 
        0.33169         879.634         580.002         859.894 
       0.343948         841.529         537.406         832.152 
       0.356249         794.956         497.458          800.04 
       0.368458          767.71         463.998         761.891 
        0.38068         749.823         436.016         731.556 
       0.392856          709.95         410.473         704.676 
       0.405069         676.575         385.497         682.755 
       0.417459         650.432         361.313         655.414 
       0.429752         641.252         339.604         632.259 
       0.441978         619.304         320.551         615.412 
       0.454294         589.874         303.249         589.656 
        0.46658         574.801         287.014         576.772 
       0.478753         561.529         271.699         558.474 
       0.490964         540.209         257.313         540.932 
       0.503334         514.366         244.035         527.938 
       0.515665          513.34         231.926         516.412 
       0.527909         493.329         220.749         503.996 
       0.540159         480.921         210.174         490.445 
        0.55248         471.616         200.139         477.464 
       0.564743         467.418         190.848         469.138 
        0.57686         449.942         182.308         456.223 
       0.589077         438.074         174.247          446.01 
       0.601441         431.667         166.582          436.69 
        0.61382          421.43         159.355         428.956 
       0.626067         416.037         152.611         420.265 
       0.638306          399.79         146.261         412.077 
       0.650632          395.14         140.244         401.195 
       0.662899         391.727         134.605         396.498 
       0.675076         377.245         129.321         390.063 
       0.687267         367.674         124.314         380.769 
       0.699615         363.871          119.51         374.657 
       0.711937          358.33         114.968         367.863 
       0.724148         346.416           110.7         362.524 
       0.736433         338.583         106.628         355.654 
       0.748747          334.14         102.755         349.152 
       0.761037         327.907         99.0838         344.378 
       0.773197         324.024         95.6297         339.264 
       0.785376         319.097         92.3365         333.913 
       0.797761         310.671         89.1473         328.632 
       0.810096         308.133         86.1215         324.436 
       0.822371         297.616         83.2508         319.082 
       0.834626         296.274         80.5162         314.852 
       0.846916         290.016          77.898         310.089 
       0.859215         289.632         75.3953          305.66 
       0.871383         282.101         73.0281         301.338 
        0.88363          280.48         70.7489         298.237 
       0.895928         274.665         68.5589         293.493 
       0.908253         267.684         66.4579         288.793 
       0.920535         265.436         64.4524         285.121 
       0.932774         258.723         62.5371         281.107 
        0.94508          255.77         60.6904         278.179 
       0.957324         254.714         58.9276         274.276 
        0.96953         251.045         57.2405         270.713 
       0.981769         243.913         55.6156         267.955 
       0.994071         243.055         54.0463         264.563 
         1.0064         237.847         52.5351         260.661 
        1.01868         234.978         51.0864         257.423 
        1.03092         229.123         49.6991         254.985 
         1.0432         225.709         48.3585         251.878 
        1.05553         222.906         47.0623         248.562 
        1.06777         222.101         45.8233          245.97 
           1.08           216.7         44.6303         243.045 
        1.09227         214.407         43.4762         240.232 
         1.1046          211.22         42.3586         237.828 
         1.1169         206.756         41.2826         234.575 
        1.12915          204.01         40.2493         232.449 
        1.14142         200.718         39.2494         229.485 
        1.15365          198.01         38.2866         227.068 
        1.16585          194.99         37.3588         224.251 
        1.17807         192.701         36.4607         222.338 
        1.19037         190.673         35.5863         220.253 
        1.20276         187.954         34.7347         217.435 
        1.21504         184.073         33.9179         215.077 
        1.22728         180.894         33.1308         212.344 
        1.23954         180.326         32.3669         210.772 
        1.25184         176.834         31.6257         208.402 
        1.26414         173.765         30.9075         206.292 
        1.27632          173.12          30.218         204.757 
         1.2886         171.349         29.5449         202.151 
        1.30093         166.414         28.8899          199.85 
        1.31316          164.03         28.2596         197.612 
        1.32541         162.696          27.648         195.985 
        1.33772         161.074         27.0512         193.945 
        1.35005         158.536         26.4716         191.769 
        1.36225          156.11          25.915         190.014 
        1.37447         153.995         25.3734          187.72 
        1.38676         152.149         24.8448         186.162 
        1.39907         149.635         24.3304         184.148 
        1.41133         147.358         23.8329         182.458 
        1.42358         145.511         23.3497         180.743 
        1.43591         143.851         22.8767         178.841 
        1.44818         141.904         22.4194         177.202 
        1.46037         139.867         21.9773         175.345 
        1.47263         138.202         21.5448         173.955 
        1.48494         136.114         21.1222         171.843 
        1.49724         134.296         20.7114         170.465 
        1.50952         131.865         20.3123         168.792 
        1.52178          131.34         19.9244         166.968 
        1.53409          128.54          19.545         165.596 
        1.54637         127.088         19.1763         164.204 
        1.55858         124.859         18.8193         162.437 
        1.57081          123.21         18.4708         161.058 
        1.58313         121.667          18.129         159.424 
        1.59544         119.933         17.7961         158.037 
        1.60767         118.805         17.4737         156.549 
        1.61994         116.711         17.1581         155.301 
        1.63225         115.307         16.8497         153.539 
        1.64452         113.207         16.5498         152.165 
        1.65676         111.563         16.2581         150.903 
          1.669         110.917         15.9732         149.626 
        1.68133         108.545         15.6934         148.246 
        1.69363         107.315          15.421         146.923 
        1.70585         105.389         15.1569         145.619 
        1.71809         104.194         14.8985         144.112 
        1.73038         103.473         14.6453         142.952 
        1.74268         102.243         14.3978         141.605 
        1.75493         100.039         14.1571         140.376 
        1.76714         98.9933         13.9226         139.241 
        1.77942         97.6152         13.6922         137.832 
        1.79173         96.2295         13.4665         136.744 
        1.80402          95.472         13.2463         135.554 
         1.8163         93.4964         13.0311         134.297 
         1.8286         92.2628         12.8204         133.113 
         1.8409         91.6209         12.6145         131.912 
        1.85315         90.0533         12.4139         130.861 
        1.86537         89.0104          12.218         129.769 
        1.87765         88.2017         12.0256         128.637 
        1.88995         86.7144         11.8369         127.535 
        1.90221          85.563         11.6529         126.456 
        1.91445         84.4603         11.4731         125.281 
        1.92674         83.0669         11.2965          124.25 
        1.93902         82.0488         11.1236         123.138 
        1.95124         81.2362         10.9552         122.138 
         1.9635         79.9623         10.7899         121.012 
        1.97583         78.7828          10.627         120.097 
        1.98812         77.7885          10.468         119.097 
        2.00039         76.8382         10.3126         118.052 
        2.01264         76.0448         10.1606         117.071 
        2.02492          75.077         10.0113         116.064 
        2.03717           73.82         9.86536         115.074 
        2.04942         73.4936         9.72248         114.226 
        2.06171         71.8208         9.58195         113.229 
        2.07397         71.0387         9.44451         112.331 
        2.08629         70.2289         9.30919         111.352 
        2.09857         69.1663         9.17685         110.465 
        2.11081         68.1153         9.04762         109.446 
        2.12309         67.3387         8.92057         108.698 
        2.13538         66.5035         8.79579         107.751 
        2.14763         65.6019          8.6738         106.889 
        2.15986          64.482         8.55442         105.974 
        2.17214         63.9658          8.4368         105.099 
        2.18443         63.2012         8.32128         104.402 
        2.19671         62.0183         8.20806         103.507 
        2.20898         61.6977         8.09708          102.63 
        2.22126         60.7556         7.98804         101.802 
        2.23354         60.0485         7.88105         101.025 
         2.2458         59.1498          7.7762         100.242 
        2.25807         58.3642         7.67316         99.3983 
        2.27035         57.7461         7.57191         98.5916 
        2.28263         56.9351         7.47253         97.8162 
         2.2949         56.3363         7.37499         97.0534 
        2.30718         55.2931         7.27916         96.3222 
        2.31946         54.9629         7.18498         95.5295 
        2.33169         54.0093         7.09288         94.7969 
        2.34393         53.4299         7.00225         94.0909 
        2.35622         52.7528         6.91292         93.3477 
        2.36847         52.2623         6.82539         92.7108 
        2.38076         51.3497         6.73912         91.8755 
        2.39305         50.7898         6.65436         91.2451 
        2.40534         50.2542         6.57106         90.4959 
        2.41762         49.6571         6.48919         89.7561 
        2.42989         49.0681         6.40884         89.1462 
        2.44216         48.5039         6.32987         88.4189 
         2.4544         47.8769          6.2524         87.7497 
        2.46667         47.3319         6.17605         87.0592 
        2.47897         46.8308          6.1008         86.3965 
        2.49124         46.2125         6.02701         85.7818 
        2.50349         45.8905         5.95455         85.1039 
        2.51578         45.1528         5.88305         84.5519 
        2.52805          44.659         5.81287         83.8553 
        2.54029         44.2059         5.74399         83.1809 
        2.55257         43.5691         5.67603         82.6154 
        2.56487         43.2099         5.60905         82.0409 
        2.57716         42.6221         5.54323         81.4374 
        2.58942         42.0434         5.47862         80.8112 
        2.60167         41.7318          5.4151         80.2251 
        2.61395         41.1203         5.35249         79.6442 
        2.62624         40.8804         5.29079         79.0079 
        2.63849         40.3481         5.23026         78.4551 
        2.65073         39.9821         5.17073         77.8741 
        2.66302         39.4391         5.11192         77.2958 
         2.6753         38.9936         5.05407         76.7544 
        2.68756          38.585         4.99722         76.1761 
        2.69983         38.2244         4.94121         75.6683 
        2.71213          37.838         4.88594         75.1353 
        2.72441         37.4564         4.83162         74.5798 
        2.73665         36.9194         4.77825         74.0442 
         2.7489         36.7982         4.72572         73.5221 
        2.76118         36.2751         4.67382         73.0105 
        2.77349         35.9902         4.62257         72.4849 
        2.78576         35.7206          4.5723         71.9425 
        2.79802         35.3049         4.52279         71.5047 
        2.81031         34.8976         4.47391         70.9796 
        2.82259         34.8375         4.42577         70.4546 
        2.83483         34.3526         4.37852         70.0005 
         2.8471         33.9994         4.33186         69.5075 
         2.8594         33.7563         4.28575         69.0007 
         2.8717         33.5692         4.24032         68.5395 
        2.88396         33.1926         4.19572         68.0558 
        2.89619         33.0437         4.15184         67.5519 
        2.90847          32.695         4.10842         67.0871 
        2.92072         32.4861          4.0657         66.6544 
        2.93299         32.2958         4.02357         66.1994 
        2.94526         31.9751         3.98199         65.7528 
        2.95753         31.7765         3.94101         65.3004 
        2.96982         31.6392         3.90054         64.8549 
        2.98209         31.3336         3.86072         64.4249 
        2.99436         31.1384         3.82143         63.9595 
        3.00666         31.0703         3.78261         63.5422 
        3.01894         30.7994         3.74441         63.1026 
        3.03119          30.656         3.70679         62.6929 
        3.04345         30.5306         3.66968         62.2979 
        3.05573          30.276         3.63301         61.8803 
          3.068         30.2733         3.59688         61.4638 
        3.08026         30.1023         3.56128         61.0503 
        3.09254         29.9699         3.52609         60.6497 
        3.10483          29.962         3.49137         60.2576 
         3.1171         29.7494         3.45717         59.8603 
        3.12933          29.734         3.42352         59.4554 
        3.14159         29.5951         3.39024         59.0522 
