# k  (h/Mpc)    P(k)  (Mpc/h)^3    P_linear(k)  (Mpc/h)^3     P_NL(k)  ShotnoiseSubtracted = false
      0.0156606         2711.69         2775.23         2761.53 
      0.0273761         2352.85         2398.17         2391.44 
      0.0384619          1786.8         1806.32         1804.01 
      0.0498308         1400.13         1420.61          1419.4 
      0.0625568         1181.08         1207.24         1205.08 
      0.0751274         1021.97         1025.63         1021.63 
      0.0867833         810.638         825.724         825.205 
      0.0984825         656.965         653.442         656.032 
       0.111151         550.289         545.604          548.12 
       0.123864         494.298         491.694         493.595 
       0.135742         444.121         442.152         444.034 
        0.14762         377.387         378.059         382.537 
       0.160083         313.374         315.132         320.241 
       0.172465         276.143         275.049         281.181 
       0.184281         255.994         253.562         260.073 
       0.196406         233.488         234.163          239.17 
       0.209011          210.42         208.345          214.03 
       0.221538         186.881         182.073         190.031 
       0.233611         168.437         162.908         171.748 
       0.245665          158.17         150.358         158.218 
       0.258103         142.581          139.97         147.797 
       0.270422         133.838         128.616         136.216 
       0.282519         121.436         116.726         124.843 
       0.294636         115.714          106.35          114.91 
       0.306978         102.399          98.392         107.237 
       0.319417         97.6921         91.9907         100.545 
        0.33169         90.8106         85.8634         94.1297 
       0.343948         86.1788         79.5574         87.9632 
       0.356249         79.0765         73.6435         82.8478 
       0.368458         75.4348           68.69         77.1779 
        0.38068         70.7105         64.5481         72.9652 
       0.392856         66.1001         60.7665         69.2564 
       0.405069         62.5391         57.0688         65.3126 
       0.417459         58.5248         53.4889         61.7924 
       0.429752         56.0379         50.2752         58.5841 
       0.441978         53.3522         47.4543         56.0739 
       0.454294          49.644         44.8929         53.0678 
        0.46658         49.1855         42.4895          50.626 
       0.478753         45.7409         40.2222         48.3802 
       0.490964         44.1743         38.0924          46.382 
       0.503334         42.3175         36.1268         44.1851 
       0.515665         40.1838         34.3343         42.6866 
       0.527909         38.4491         32.6795         40.4444 
       0.540159         36.8373         31.1139          38.887 
        0.55248         34.4409         29.6284         37.2435 
       0.564743         33.9694          28.253         36.0055 
        0.57686          32.818         26.9888          34.625 
       0.589077         30.8999         25.7955         33.4956 
       0.601441         29.8073         24.6607         32.2699 
        0.61382          28.763         23.5909         30.9887 
       0.626067         27.6011         22.5925          30.023 
       0.638306         26.6804         21.6524         28.9181 
       0.650632         25.9408         20.7616         27.9909 
       0.662899         24.8244         19.9269         27.0141 
       0.675076          23.688         19.1446         26.1462 
       0.687267         23.3293         18.4034         25.2884 
       0.699615         22.5297         17.6921         24.5768 
       0.711937          21.388         17.0197         23.7712 
       0.724148         21.2675          16.388         23.1586 
       0.736433         20.0322         15.7852         22.4152 
       0.748747         19.6608         15.2118         21.7958 
       0.761037         19.1687         14.6683         21.2195 
       0.773197         18.4888         14.1569         20.6654 
       0.785376         17.7893         13.6694          20.103 
       0.797761         17.3913         13.1973         19.5599 
       0.810096         16.9827         12.7493         19.0854 
       0.822371          16.512         12.3244         18.5239 
       0.834626         15.9867         11.9196         18.1211 
       0.846916         15.4928          11.532         17.6476 
       0.859215         14.9289         11.1615         17.2304 
       0.871383         14.6493          10.811         16.8589 
        0.88363         14.2645         10.4736         16.4505 
       0.895928         13.9837         10.1494         16.0282 
       0.908253         13.6169         9.83837          15.699 
       0.920535         13.2049         9.54148         15.3242 
       0.932774         12.9939         9.25794         14.9351 
        0.94508         12.5616         8.98455         14.6527 
       0.957324         12.3262         8.72358         14.3641 
        0.96953         11.8932         8.47383         14.0377 
       0.981769         11.7891         8.23328         13.7471 
       0.994071          11.467         8.00096         13.4552 
         1.0064         11.1038         7.77725         13.1955 
        1.01868           10.89         7.56279         12.9381 
        1.03092         10.7122         7.35741         12.6646 
         1.0432         10.3206         7.15895         12.4101 
        1.05553         10.1573         6.96707         12.2162 
        1.06777         9.85949         6.78364         11.9517 
           1.08         9.68447         6.60704         11.7391 
        1.09227         9.48625         6.43617         11.5253 
         1.1046         9.30794         6.27074         11.2918 
         1.1169         9.01678         6.11144         11.0891 
        1.12915         8.99383         5.95848         10.9367 
        1.14142         8.64587         5.81046         10.7146 
        1.15365         8.54582         5.66792         10.5266 
        1.16585         8.43477         5.53056         10.3743 
        1.17807         8.18541         5.39761         10.1657 
        1.19037         8.04199         5.26817         10.0099 
        1.20276         7.84783         5.14211          9.8335 
        1.21504          7.7354         5.02118         9.69119 
        1.22728          7.5362         4.90466         9.51713 
        1.23954         7.42147         4.79157         9.38815 
        1.25184         7.26431         4.68185         9.23322 
        1.26414         7.17258         4.57552         9.07215 
        1.27632         6.96928         4.47346         8.94325 
         1.2886         6.88834          4.3738         8.81039 
        1.30093          6.7493         4.27684         8.70604 
        1.31316          6.5971         4.18352         8.55493 
        1.32541         6.50069         4.09299         8.45222 
        1.33772          6.3751         4.00464         8.30734 
        1.35005         6.29175         3.91884         8.20047 
        1.36225         6.16457         3.83644         8.06802 
        1.37447         6.05558         3.75626         7.97153 
        1.38676         5.94183           3.678         7.86435 
        1.39907         5.83215         3.60186         7.75554 
        1.41133         5.74835          3.5282         7.64873 
        1.42358         5.63317         3.45667         7.54068 
        1.43591         5.57106         3.38665         7.45707 
        1.44818         5.43464         3.31895         7.35462 
        1.46037         5.34392         3.25351         7.25461 
        1.47263         5.26779         3.18947         7.17075 
        1.48494         5.20959         3.12692         7.06992 
        1.49724         5.10749          3.0661         6.98592 
        1.50952         5.07911         3.00702         6.90274 
        1.52178         4.95952         2.94958         6.81615 
        1.53409         4.86346         2.89343         6.72353 
        1.54637         4.80734         2.83885         6.64299 
        1.55858         4.74412         2.78599          6.5589 
        1.57081         4.64266          2.7344         6.49939 
        1.58313         4.58819         2.68381         6.41536 
        1.59544         4.50378         2.63452         6.34872 
        1.60767         4.45525         2.58679         6.26692 
        1.61994         4.38074         2.54007         6.20639 
        1.63225         4.30491         2.49442         6.13243 
        1.64452         4.23365         2.45001         6.06091 
        1.65676         4.17354         2.40683         5.99668 
          1.669         4.13659         2.36466         5.93136 
        1.68133         4.03144         2.32323         5.86604 
        1.69363         4.01309         2.28292         5.81043 
        1.70585         3.95071         2.24382         5.74001 
        1.71809         3.90756         2.20556         5.68601 
        1.73038         3.85009         2.16807         5.62323 
        1.74268         3.78673         2.13143         5.56705 
        1.75493         3.73837         2.09581         5.50479 
        1.76714         3.70758         2.06109         5.44973 
        1.77942         3.64548         2.02699         5.39394 
        1.79173          3.5961         1.99357         5.33545 
        1.80402         3.55058         1.96097         5.28556 
         1.8163         3.52063         1.92912          5.2398 
         1.8286         3.46033         1.89793         5.19083 
         1.8409         3.40459         1.86745         5.14213 
        1.85315         3.36962         1.83774         5.08046 
        1.86537         3.33961         1.80874         5.04091 
        1.87765         3.28107         1.78026         4.98829 
        1.88995         3.23652         1.75232         4.94664 
        1.90221         3.19838         1.72508         4.89696 
        1.91445         3.16454         1.69846         4.86321 
        1.92674         3.13971         1.67232         4.80663 
        1.93902         3.08375         1.64672         4.76045 
        1.95124         3.04552          1.6218         4.72038 
         1.9635         3.02749         1.59733          4.6813 
        1.97583         2.97386         1.57321         4.64085 
        1.98812         2.93549         1.54968         4.59637 
        2.00039         2.90555         1.52668         4.55708 
        2.01264         2.86823         1.50416         4.52452 
        2.02492          2.8397         1.48207         4.48338 
        2.03717         2.80355         1.46046         4.44209 
        2.04942         2.76794         1.43931         4.40645 
        2.06171         2.73502         1.41851          4.3666 
        2.07397         2.71022         1.39816         4.33039 
        2.08629         2.68477         1.37813         4.29959 
        2.09857         2.65201         1.35853         4.26111 
        2.11081         2.61594          1.3394         4.22694 
        2.12309         2.59619          1.3206          4.1922 
        2.13538         2.56202         1.30212         4.16201 
        2.14763          2.5464         1.28406         4.12586 
        2.15986         2.51936         1.26639         4.09649 
        2.17214         2.47744         1.24898         4.05685 
        2.18443         2.46622         1.23188         4.02688 
        2.19671         2.43147         1.21512         3.99647 
        2.20898         2.40873         1.19869         3.96862 
        2.22126         2.38921         1.18254         3.93779 
        2.23354         2.35891         1.16671         3.90647 
         2.2458         2.34682         1.15118          3.8727 
        2.25807         2.31393         1.13593         3.84792 
        2.27035          2.2889         1.12094         3.82153 
        2.28263         2.26452         1.10623         3.79199 
         2.2949         2.25051         1.09179         3.76594 
        2.30718         2.22643          1.0776         3.74115 
        2.31946         2.20143         1.06366         3.71331 
        2.33169         2.18359         1.05003         3.68483 
        2.34393         2.17252         1.03661         3.65856 
        2.35622         2.14727         1.02338         3.63194 
        2.36847         2.12299         1.01043          3.6051 
        2.38076         2.10606        0.997655         3.57903 
        2.39305         2.08413        0.985108         3.55197 
        2.40534         2.06628        0.972776         3.53057 
        2.41762         2.04256        0.960656         3.50907 
        2.42989         2.03039        0.948762         3.48223 
        2.44216          2.0164         0.93707         3.46045 
         2.4544         1.99692        0.925602         3.43811 
        2.46667         1.97942          0.9143         3.41468 
        2.47897         1.96466        0.903159         3.39072 
        2.49124         1.94404        0.892235         3.36891 
        2.50349         1.93205        0.881508         3.34613 
        2.51578         1.91204        0.870924         3.32128 
        2.52805         1.89441        0.860534         3.30121 
        2.54029         1.88563        0.850338         3.28001 
        2.55257         1.86728        0.840277           3.259 
        2.56487         1.85381         0.83036          3.2372 
        2.57716          1.8466        0.820617         3.21665 
        2.58942         1.82731        0.811052         3.19669 
        2.60167         1.81534        0.801649         3.17501 
        2.61395         1.79304        0.792381          3.1579 
        2.62624         1.78878        0.783246         3.13778 
        2.63849         1.77569        0.774285         3.11628 
        2.65073         1.76031        0.765473         3.09721 
        2.66302         1.74738        0.756767         3.07945 
         2.6753         1.74676        0.748201         3.06054 
        2.68756         1.72419        0.739786         3.04227 
        2.69983         1.71337        0.731495         3.02239 
        2.71213         1.70676        0.723313          3.0045 
        2.72441         1.69491        0.715271         2.98673 
        2.73665         1.68106         0.70737         2.97053 
         2.7489         1.67132        0.699594         2.95484 
        2.76118         1.66189         0.69191         2.93709 
        2.77349         1.65908        0.684324         2.91938 
        2.78576         1.64916        0.676881         2.90178 
        2.79802         1.64113        0.669553          2.8849 
        2.81031          1.6257        0.662316         2.86739 
        2.82259         1.61897        0.655189         2.85057 
        2.83483         1.61479        0.648194         2.83561 
         2.8471         1.60633        0.641287         2.81937 
         2.8594         1.59739        0.634461         2.80411 
         2.8717         1.59043        0.627735         2.78843 
        2.88396         1.58698        0.621133         2.77191 
        2.89619         1.57436        0.614637         2.75614 
        2.90847         1.57044         0.60821         2.73982 
        2.92072         1.56561        0.601885         2.72601 
        2.93299         1.56461        0.595647         2.71117 
        2.94526         1.55745        0.589492         2.69686 
        2.95753         1.54931        0.583426         2.68202 
        2.96982         1.54752        0.577435         2.66702 
        2.98209         1.54652         0.57154         2.65374 
        2.99436         1.54004        0.565723         2.63953 
        3.00666         1.54255        0.559977         2.62571 
        3.01894         1.53596        0.554321         2.61017 
        3.03119         1.53575        0.548752          2.5966 
        3.04345         1.53264        0.543259         2.58434 
        3.05573         1.53087         0.53783         2.57123 
          3.068         1.53121        0.532481          2.5577 
        3.08026         1.52731         0.52721         2.54316 
        3.09254         1.53224        0.522001          2.5296 
        3.10483         1.53245        0.516862         2.51755 
         3.1171         1.53226        0.511798         2.50516 
        3.12933         1.53298        0.506817         2.49156 
        3.14159         1.53306         0.50189         2.47813 
