# k  (h/Mpc)    Pcb(k)  (Mpc/h)^3    Pcb_linear(k) (Mpc/h)^3    Pcb_NL(k) (Mpc/h)^3   ShotnoiseSubtracted = false
      0.0156606         14642.2         14697.8         14598.3 
      0.0273761         12600.3         12709.5         12608.9 
      0.0384619         9551.31         9575.71         9493.01 
      0.0498308         7406.75         7532.16         7451.23 
      0.0625568         6254.22         6401.52         6327.39 
      0.0751274         5535.85         5438.84          5332.6 
      0.0867833          4310.7         4378.89         4348.53 
      0.0984825         3601.02         3465.34         3500.45 
       0.111151         3059.83         2893.51         2933.27 
       0.123864         2745.39         2607.64         2640.49 
       0.135742         2490.08         2344.92          2378.4 
        0.14762         2152.06         2005.03         2092.72 
       0.160083         1805.78         1671.31         1776.17 
       0.172465          1610.2         1458.73         1590.99 
       0.184281         1473.98         1344.78         1480.05 
       0.196406         1367.39          1241.9         1358.43 
       0.209011         1266.27         1104.97         1227.65 
       0.221538         1142.44         965.642         1133.83 
       0.233611         1075.44         863.999          1053.2 
       0.245665         985.722         797.438         969.815 
       0.258103         949.493         742.347         913.328 
       0.270422         855.764          682.13         853.554 
       0.282519         795.767         619.072         799.787 
       0.294636         788.291         564.043         753.116 
       0.306978         708.206         521.835         717.817 
       0.319417         685.695         487.885         675.641 
        0.33169         646.186         455.388         636.995 
       0.343948         616.098         421.944         614.021 
       0.356249         579.167         390.579         588.548 
       0.368458         561.747         364.308         557.613 
        0.38068         542.319         342.338         533.805 
       0.392856         510.973         322.283         512.766 
       0.405069         489.537         302.673         496.628 
       0.417459         469.285         283.685         473.276 
       0.429752         456.841          266.64         456.107 
       0.441978         441.886         251.681          442.91 
       0.454294         417.577         238.096         423.496 
        0.46658         410.632         225.349         412.976 
       0.478753         397.268         213.325         399.008 
       0.490964         383.058          202.03         385.719 
       0.503334         361.983         191.604          375.38 
       0.515665         360.415         182.097         367.153 
       0.527909         347.889         173.321         356.404 
       0.540159          339.03         165.018          346.32 
        0.55248         332.444         157.139          336.67 
       0.564743         326.738         149.844         330.142 
        0.57686         314.222          143.14         320.386 
       0.589077         303.014          136.81         313.366 
       0.601441         299.716         130.792         306.136 
        0.61382         294.972         125.118         299.893 
       0.626067         289.508         119.823         293.213 
       0.638306         276.531         114.837         287.599 
       0.650632         271.308         110.113         279.098 
       0.662899         269.617         105.686         275.331 
       0.675076         259.335         101.537         269.808 
       0.687267         252.898         97.6053         263.671 
       0.699615         248.851          93.833         258.939 
       0.711937         244.476         90.2669         254.224 
       0.724148         237.836         86.9163         250.392 
       0.736433         232.746         83.7193         245.126 
       0.748747         228.559         80.6783         240.385 
       0.761037         224.761         77.7957         236.284 
       0.773197         221.341         75.0838         233.266 
       0.785376         218.543         72.4981         228.756 
       0.797761         213.357         69.9941         225.567 
       0.810096         210.242         67.6183         222.033 
       0.822371         202.369         65.3644         218.343 
       0.834626         201.622         63.2174         214.917 
       0.846916          197.92         61.1617         211.795 
       0.859215         197.313         59.1967         208.658 
       0.871383         192.184         57.3381         205.316 
        0.88363         190.248         55.5486         203.152 
       0.895928         185.936         53.8291         200.061 
       0.908253         180.848         52.1795          196.64 
       0.920535         180.297         50.6049         194.013 
       0.932774         174.298         49.1011         191.223 
        0.94508         172.867         47.6511         189.178 
       0.957324          172.37          46.267         186.306 
        0.96953           170.2         44.9424         183.506 
       0.981769         164.934         43.6666         181.858 
       0.994071         164.192         42.4345          179.43 
         1.0064         160.288          41.248         176.694 
        1.01868         158.255         40.1105         174.748 
        1.03092         155.709         39.0213         172.808 
         1.0432          152.71         37.9687         170.627 
        1.05553         150.128         36.9511         168.658 
        1.06777         149.961         35.9782          166.93 
           1.08         146.401         35.0416         164.711 
        1.09227         144.809         34.1353         163.063 
         1.1046         142.443         33.2579         161.157 
         1.1169         140.564          32.413         158.973 
        1.12915         138.336         31.6018           157.4 
        1.14142         136.194         30.8167         155.355 
        1.15365         134.377         30.0608          153.72 
        1.16585         132.497         29.3323         151.736 
        1.17807         130.585         28.6271         150.652 
        1.19037         129.965         27.9406         149.056 
        1.20276         127.322          27.272          147.24 
        1.21504         125.789         26.6307         145.642 
        1.22728         123.301         26.0127         143.911 
        1.23954         122.594         25.4129         142.675 
        1.25184         120.066          24.831         141.094 
        1.26414         118.496          24.267         139.629 
        1.27632         117.872         23.7257         138.902 
         1.2886         115.681         23.1972         136.868 
        1.30093         112.946         22.6829          135.41 
        1.31316         112.608          22.188         134.031 
        1.32541         110.954         21.7078         132.997 
        1.33772         109.765         21.2393         131.569 
        1.35005         108.398         20.7842         130.124 
        1.36225         107.063         20.3472         128.959 
        1.37447          104.97         19.9219         127.549 
        1.38676         104.434         19.5069         126.204 
        1.39907         102.082         19.1031          125.13 
        1.41133         100.743         18.7124         124.115 
        1.42358         99.4453         18.3331         122.859 
        1.43591         98.8144         17.9617         121.507 
        1.44818         97.7286         17.6026         120.507 
        1.46037         95.9097         17.2555          119.32 
        1.47263         94.5804         16.9159         118.413 
        1.48494         93.7976         16.5841         117.148 
        1.49724         92.2772         16.2616         115.928 
        1.50952         90.8474         15.9482         114.923 
        1.52178         90.0556         15.6436         113.893 
        1.53409         89.0767         15.3458         112.898 
        1.54637         87.2418         15.0563         111.867 
        1.55858         86.2872          14.776         110.801 
        1.57081         85.0792         14.5024         109.849 
        1.58313         84.0558          14.234         108.854 
        1.59544         83.1642         13.9726         107.874 
        1.60767         81.9313         13.7195         106.865 
        1.61994         80.8623         13.4717         106.182 
        1.63225         79.6686         13.2296         104.895 
        1.64452         78.6169         12.9941         104.077 
        1.65676         77.5189          12.765         103.185 
          1.669         76.9822         12.5414         102.354 
        1.68133         75.9993         12.3217         101.388 
        1.69363         75.0195         12.1078         100.602 
        1.70585         74.1093         11.9005         99.6568 
        1.71809         72.8198         11.6976         98.9034 
        1.73038         72.0644         11.4987         97.9451 
        1.74268         70.9459         11.3044         97.1519 
        1.75493         70.3829         11.1155         96.2745 
        1.76714         69.2124         10.9314         95.4786 
        1.77942          68.792         10.7505          94.641 
        1.79173         67.6048         10.5732         93.8388 
        1.80402         66.8783         10.4003         93.1315 
         1.8163         66.0509         10.2314         92.1929 
         1.8286          65.095          10.066         91.5578 
         1.8409         64.1815         9.90432         90.7431 
        1.85315         63.2786         9.74676         90.0947 
        1.86537         62.6642         9.59295         89.2863 
        1.87765          61.921         9.44189         88.4311 
        1.88995         61.0789         9.29372         87.8037 
        1.90221         60.4416         9.14925         87.0582 
        1.91445         59.3507         9.00809         86.3752 
        1.92674         58.8441         8.86943         85.6751 
        1.93902         58.1182         8.73367          84.911 
        1.95124         57.6809         8.60149         84.3434 
         1.9635         56.5856          8.4717         83.5108 
        1.97583          56.057         8.34378         82.9672 
        1.98812         55.3646         8.21898         82.2237 
        2.00039         54.5818         8.09698         81.5701 
        2.01264         53.9474         7.97758         80.9066 
        2.02492         53.2322         7.86042         80.2916 
        2.03717         52.5276          7.7458         79.5774 
        2.04942         51.8848         7.63362         79.0345 
        2.06171          51.197         7.52328         78.3404 
        2.07397         50.5613         7.41537         77.7873 
        2.08629         50.0399         7.30912         77.1039 
        2.09857         49.5254         7.20521          76.543 
        2.11081         48.4493         7.10375         75.8699 
        2.12309          48.171           7.004         75.3305 
        2.13538         47.5522         6.90602         74.7287 
        2.14763         47.0596         6.81025         74.1558 
        2.15986         46.4031         6.71651         73.5635 
        2.17214         45.7576         6.62416         73.0432 
        2.18443         45.4772         6.53346         72.4595 
        2.19671         44.6261         6.44457         71.8549 
        2.20898         44.3133         6.35743         71.3065 
        2.22126         43.7215         6.27182         70.7345 
        2.23354           43.14         6.18781          70.246 
         2.2458         42.7347         6.10549          69.721 
        2.25807         42.3064         6.02459          69.136 
        2.27035          41.721         5.94509         68.6174 
        2.28263         41.1518         5.86707         68.0858 
         2.2949         40.6363         5.79048         67.5899 
        2.30718         40.2227         5.71524         67.0992 
        2.31946         39.6456         5.64129         66.6143 
        2.33169         39.2256         5.56898         66.0907 
        2.34393         38.6174         5.49782          65.588 
        2.35622         38.3444         5.42768         65.0962 
        2.36847         37.8567         5.35896         64.6227 
        2.38076         37.5331         5.29123         64.1403 
        2.39305         37.0518         5.22468          63.674 
        2.40534         36.6682         5.15927         63.1426 
        2.41762         36.2488           5.095         62.6699 
        2.42989         35.6802         5.03191          62.262 
        2.44216         35.4572          4.9699         61.7839 
         2.4544         35.0988         4.90908         61.3388 
        2.46667          34.539         4.84914         60.8491 
        2.47897         34.2296         4.79005         60.4268 
        2.49124          33.787         4.73211         59.9873 
        2.50349         33.3756         4.67522         59.5594 
        2.51578         33.0276         4.61909         59.1492 
        2.52805         32.8971         4.56398         58.6959 
        2.54029         32.4613          4.5099         58.2728 
        2.55257         32.0309         4.45655         57.8674 
        2.56487         31.7018         4.40395         57.4604 
        2.57716         31.3846         4.35227         57.0775 
        2.58942          30.997         4.30154          56.646 
        2.60167         30.5987         4.25167         56.2126 
        2.61395         30.3744         4.20252          55.834 
        2.62624         30.1309         4.15407         55.4366 
        2.63849         29.8234         4.10654         55.0484 
        2.65073         29.4788         4.05981         54.6324 
        2.66302         29.1919         4.01363         54.2696 
         2.6753         28.8597         3.96821         53.8915 
        2.68756          28.508         3.92357         53.4965 
        2.69983         28.2884          3.8796         53.1397 
        2.71213         27.9352          3.8362         52.7844 
        2.72441         27.8202         3.79355         52.3919 
        2.73665         27.5275         3.75165         52.0271 
         2.7489         27.3308          3.7104         51.6751 
        2.76118         27.0193         3.66965         51.3079 
        2.77349         26.8065         3.62942          50.972 
        2.78576         26.6187         3.58994         50.6064 
        2.79802          26.292         3.55108         50.2645 
        2.81031          26.074          3.5127         49.9327 
        2.82259         25.8567          3.4749         49.5725 
        2.83483         25.6125          3.4378         49.2328 
         2.8471         25.3974         3.40117         48.9078 
         2.8594          25.194         3.36496         48.5934 
         2.8717         24.9241         3.32929         48.2546 
        2.88396         24.8202         3.29427         47.9092 
        2.89619         24.6285         3.25982         47.5908 
        2.90847         24.4249         3.22573         47.2748 
        2.92072         24.3226         3.19219           46.96 
        2.93299          24.196         3.15911         46.6342 
        2.94526         23.9648         3.12646         46.3381 
        2.95753         23.8007         3.09429         46.0456 
        2.96982         23.7781         3.06252         45.7345 
        2.98209         23.5589         3.03125         45.4324 
        2.99436         23.3769          3.0004         45.1279 
        3.00666         23.3384         2.96992         44.8308 
        3.01894         23.2097         2.93993         44.5186 
        3.03119         23.0399         2.91039         44.2274 
        3.04345         22.9416         2.88126         43.9524 
        3.05573         22.8728         2.85246         43.6689 
          3.068         22.8119         2.82409         43.3801 
        3.08026         22.7344         2.79614         43.0942 
        3.09254         22.6139         2.76851         42.8211 
        3.10483         22.6355         2.74125         42.5496 
         3.1171         22.5248          2.7144         42.2734 
        3.12933         22.5497         2.68798         42.0007 
        3.14159         22.4597         2.66185         41.7271 
