# k  (h/Mpc)    Pcb(k)  (Mpc/h)^3    Pcb_linear(k) (Mpc/h)^3    Pcb_NL(k) (Mpc/h)^3   ShotnoiseSubtracted = false
      0.0156606         21567.5         21685.7         21515.1 
      0.0273761           18486         18748.6         18545.6 
      0.0384619         13978.7         14124.5         13944.6 
      0.0498308         10795.3         11109.6         10928.7 
      0.0625568         9120.46         9441.58         9280.61 
      0.0751274         8122.47         8021.54         7795.37 
      0.0867833         6291.83         6458.17         6388.25 
      0.0984825         5316.85         5110.79         5173.27 
       0.111151         4548.09         4267.39         4345.12 
       0.123864          4074.3         3845.77         3908.67 
       0.135742         3714.81         3458.29         3521.37 
        0.14762         3233.93            2957         3124.28 
       0.160083          2747.4         2464.83         2671.11 
       0.172465          2450.4         2151.32         2413.97 
       0.184281         2220.95         1983.26         2246.68 
       0.196406         2095.08         1831.53         2069.47 
       0.209011         1960.14         1629.59         1876.03 
       0.221538          1764.9         1424.11         1751.96 
       0.233611         1691.96         1274.21         1642.12 
       0.245665         1533.64         1176.04         1516.67 
       0.258103         1518.29         1094.79          1432.2 
       0.270422         1354.31         1005.99         1345.71 
       0.282519         1279.24         912.991         1274.28 
       0.294636          1256.3         831.836         1207.26 
       0.306978         1147.72         769.587         1157.11 
       0.319417         1125.06         719.519         1091.06 
        0.33169         1057.57         671.594         1033.45 
       0.343948         1015.15         622.271         1001.77 
       0.356249         962.272         576.014         964.795 
       0.368458         924.502         537.271         922.119 
        0.38068         909.561          504.87         887.167 
       0.392856         863.661         475.293         856.366 
       0.405069         819.479         446.373         828.821 
       0.417459         788.208          418.37         799.643 
       0.429752         784.077         393.233         771.806 
       0.441978         756.566         371.171         752.347 
       0.454294          723.21         351.136         721.826 
        0.46658         702.861         332.338         707.105 
       0.478753          689.41         314.604         685.781 
       0.490964         662.687         297.947         664.934 
       0.503334         634.237         282.571         650.224 
       0.515665         632.028         268.551         635.677 
       0.527909         605.923         255.608         622.305 
       0.540159         591.048         243.363         606.602 
        0.55248         579.278         231.744          590.93 
       0.564743         574.574         220.985         580.947 
        0.57686         555.199         211.098          565.67 
       0.589077         544.713         201.764         553.246 
       0.601441         532.677         192.888           542.5 
        0.61382         518.033          184.52         533.072 
       0.626067         512.395         176.711          523.13 
       0.638306         493.606         169.357         512.596 
       0.650632         488.975          162.39         500.358 
       0.662899         484.883         155.862         494.369 
       0.675076         468.828         149.743         487.542 
       0.687267         455.621         143.945         476.007 
       0.699615         453.636         138.382         468.522 
       0.711937         444.711         133.123         459.771 
       0.724148         430.127         128.181         453.595 
       0.736433         420.036         123.466         445.534 
       0.748747          414.73         118.982         437.677 
       0.761037         407.259          114.73         432.349 
       0.773197         401.371         110.731         425.335 
       0.785376         395.966         106.918         419.193 
       0.797761          384.26         103.225         412.878 
       0.810096         380.516         99.7213         407.692 
       0.822371         369.868         96.3972         401.068 
       0.834626         366.559         93.2309         396.341 
       0.846916         360.447         90.1992         390.153 
       0.859215         356.947         87.3013         384.494 
       0.871383         348.674         84.5603         379.419 
        0.88363         345.178         81.9212         375.578 
       0.895928         339.822         79.3853         369.717 
       0.908253         331.344         76.9525         363.699 
       0.920535         325.597         74.6304         359.671 
       0.932774         320.215         72.4126         354.285 
        0.94508          315.42         70.2742         350.702 
       0.957324         312.717         68.2331         346.016 
        0.96953         308.573         66.2796         341.822 
       0.981769         300.897          64.398         338.061 
       0.994071         299.777         62.5809         333.931 
         1.0064         293.917         60.8311         329.076 
        1.01868         290.636         59.1537         324.879 
        1.03092         281.924         57.5472         322.027 
         1.0432         279.142          55.995         318.132 
        1.05553         276.016         54.4942         313.777 
        1.06777           272.8         53.0595         310.294 
           1.08         266.493         51.6781         306.846 
        1.09227         265.434         50.3416         303.156 
         1.1046         260.427         49.0477         300.258 
         1.1169         254.596         47.8017         296.255 
        1.12915         251.243         46.6053         293.341 
        1.14142         246.288         45.4475         289.825 
        1.15365         243.494         44.3326         286.777 
        1.16585         239.158         43.2582         283.518 
        1.17807         236.811         42.2183         280.588 
        1.19037         233.094         41.2059         278.188 
        1.20276          229.98         40.2198         274.549 
        1.21504         225.111          39.274         271.491 
        1.22728         221.783         38.3626         268.383 
        1.23954         220.572         37.4781         265.896 
        1.25184         215.607         36.6198         263.059 
        1.26414         211.272         35.7882         260.548 
        1.27632         209.854         34.9899         258.223 
         1.2886         208.175         34.2104         255.235 
        1.30093         203.051          33.452         252.064 
        1.31316         198.821         32.7221         249.535 
        1.32541         197.737          32.014         247.027 
        1.33772         194.564         31.3229         244.714 
        1.35005         192.121         30.6519         241.957 
        1.36225         188.435         30.0074         239.696 
        1.37447         185.585         29.3802         236.764 
        1.38676         183.733         28.7681         235.072 
        1.39907         181.033         28.1725         232.251 
        1.41133         177.631         27.5964         229.871 
        1.42358          175.53          27.037         227.706 
        1.43591          173.33         26.4892         225.604 
        1.44818         170.018         25.9597         223.288 
        1.46037         168.519         25.4479         220.897 
        1.47263         165.277          24.947         218.903 
        1.48494         163.659         24.4577         216.241 
        1.49724         161.031          23.982         214.831 
        1.50952         158.053         23.5199         212.444 
        1.52178         156.713         23.0707         210.218 
        1.53409         153.662         22.6314         208.374 
        1.54637         151.469         22.2045         206.654 
        1.55858         149.682         21.7911         204.423 
        1.57081         147.099         21.3876         202.521 
        1.58313         145.157         20.9918         200.457 
        1.59544         142.489         20.6063         198.665 
        1.60767         141.246          20.233         196.894 
        1.61994         138.792         19.8676         194.993 
        1.63225         136.705         19.5105         192.982 
        1.64452         134.464         19.1632         191.265 
        1.65676         132.684         18.8254         189.615 
          1.669         131.266         18.4956         187.805 
        1.68133         128.677         18.1715         186.091 
        1.69363         126.467         17.8562         184.499 
        1.70585          124.47         17.5504         182.824 
        1.71809         122.888         17.2512         180.849 
        1.73038          121.55         16.9579         179.374 
        1.74268         120.382         16.6714         177.622 
        1.75493          117.34         16.3927         176.166 
        1.76714          116.88         16.1212         174.654 
        1.77942         114.482         15.8544         172.971 
        1.79173         112.666          15.593         171.414 
        1.80402         111.402         15.3381         169.888 
         1.8163         109.224         15.0889         168.503 
         1.8286         107.861         14.8449         166.871 
         1.8409         106.799         14.6065          165.32 
        1.85315         104.503         14.3742          163.97 
        1.86537         103.665         14.1473         162.603 
        1.87765         102.339         13.9246         161.214 
        1.88995          100.44         13.7061         159.686 
        1.90221         99.2401          13.493          158.43 
        1.91445         97.8314         13.2848         156.899 
        1.92674         96.2998         13.0803         155.538 
        1.93902         95.0513         12.8801         154.138 
        1.95124         93.7898         12.6852         152.838 
         1.9635         92.2489         12.4938         151.503 
        1.97583         90.8368         12.3051         150.198 
        1.98812         89.5796         12.1211         149.095 
        2.00039         88.5599         11.9412         147.676 
        2.01264         87.4404         11.7651         146.464 
        2.02492         86.3933         11.5923         145.129 
        2.03717         84.9572         11.4232         143.983 
        2.04942          84.017         11.2578         142.777 
        2.06171         82.3879         11.0951         141.524 
        2.07397         81.5084         10.9359         140.427 
        2.08629          80.343         10.7792         139.203 
        2.09857         79.3089          10.626         138.083 
        2.11081          77.979         10.4764          136.81 
        2.12309         76.9649         10.3293          135.79 
        2.13538         75.8044         10.1848         134.594 
        2.14763         74.8184         10.0435         133.512 
        2.15986          73.872         9.90528         132.325 
        2.17214         72.9151         9.76909         131.287 
        2.18443         71.9467         9.63532         130.374 
        2.19671         70.9875         9.50422         129.244 
        2.20898         70.1686         9.37573         128.087 
        2.22126         69.0987         9.24946         127.135 
        2.23354         68.2986         9.12557         126.116 
         2.2458         66.9733         9.00417         125.077 
        2.25807         66.2825         8.88486         124.064 
        2.27035         65.3221         8.76762         123.052 
        2.28263         64.5019         8.65255         122.111 
         2.2949         63.3432          8.5396         121.148 
        2.30718         62.4929         8.42864         120.171 
        2.31946         61.9755         8.31959         119.141 
        2.33169         60.9365         8.21294         118.244 
        2.34393         60.4834           8.108         117.405 
        2.35622         59.3292         8.00456         116.418 
        2.36847         58.8449         7.90321         115.623 
        2.38076          57.803         7.80332         114.583 
        2.39305          57.217         7.70518         113.806 
        2.40534         56.3973         7.60872          112.86 
        2.41762         55.7424         7.51392         111.949 
        2.42989         54.8843         7.42089         111.148 
        2.44216         54.3637         7.32944         110.216 
         2.4544         53.4891         7.23974         109.414 
        2.46667         52.8185         7.15134         108.577 
        2.47897         52.2647          7.0642          107.69 
        2.49124          51.737         6.97876         106.899 
        2.50349         50.9897         6.89485         106.096 
        2.51578         50.4443         6.81207         105.385 
        2.52805         49.7655          6.7308         104.497 
        2.54029          49.266         6.65105         103.691 
        2.55257         48.6012         6.57236          102.98 
        2.56487         48.3411         6.49479         102.222 
        2.57716          47.677         6.41858         101.453 
        2.58942           46.96         6.34377         100.704 
        2.60167         46.4017         6.27022         99.9698 
        2.61395         46.0488         6.19773         99.2207 
        2.62624         45.2734         6.12628         98.4328 
        2.63849         44.8096         6.05619         97.7373 
        2.65073         44.2771         5.98726          97.029 
        2.66302         43.8502         5.91917         96.2972 
         2.6753         43.3649         5.85217         95.6296 
        2.68756         42.9777         5.78635          94.901 
        2.69983         42.4217          5.7215         94.2369 
        2.71213         41.9844          5.6575         93.5628 
        2.72441         41.5676          5.5946         92.8756 
        2.73665         41.0999          5.5328         92.2386 
         2.7489         40.6461         5.47198         91.5893 
        2.76118         40.2717         5.41188         90.9114 
        2.77349         39.8098         5.35254         90.2762 
        2.78576         39.4462         5.29433         89.6073 
        2.79802         39.1097         5.23701         89.0451 
        2.81031         38.5504          5.1804          88.392 
        2.82259         38.2735         5.12466         87.7364 
        2.83483         37.8055         5.06994         87.1705 
         2.8471         37.5116         5.01592         86.5359 
         2.8594         37.1188         4.96253         85.9169 
         2.8717          36.884         4.90992         85.3633 
        2.88396         36.5571         4.85828         84.7637 
        2.89619         36.2677         4.80747         84.1279 
        2.90847         35.9182          4.7572         83.5188 
        2.92072         35.6834         4.70773         83.0015 
        2.93299          35.546         4.65894         82.4536 
        2.94526         35.1495          4.6108         81.8734 
        2.95753         34.9222         4.56335         81.2965 
        2.96982         34.5744         4.51649         80.7559 
        2.98209         34.4434         4.47039         80.2206 
        2.99436         34.1363         4.42488         79.6421 
        3.00666         34.0562         4.37994         79.1088 
        3.01894         33.7611          4.3357         78.5823 
        3.03119         33.6209         4.29214          78.076 
        3.04345         33.4535         4.24918          77.564 
        3.05573         33.2311         4.20671          77.036 
          3.068          33.096         4.16488         76.5259 
        3.08026         32.9074         4.12365         76.0122 
        3.09254         32.8236         4.08291         75.5167 
        3.10483         32.8401         4.04271         75.0224 
         3.1171         32.6555          4.0031          74.521 
        3.12933         32.4803         3.96414         74.0262 
        3.14159         32.4264         3.92561         73.5271 
