# k  (h/Mpc)    Pcb(k)  (Mpc/h)^3    Pcb_linear(k) (Mpc/h)^3    Pcb_NL(k) (Mpc/h)^3   ShotnoiseSubtracted = false
      0.0156606          8692.9         8712.67            8662 
      0.0273761         7510.86         7535.76         7496.17 
      0.0384619          5702.9         5678.28         5650.77 
      0.0498308         4442.04         4466.76         4441.72 
      0.0625568         3748.88         3796.41         3771.93 
      0.0751274         3291.38         3225.57         3188.88 
      0.0867833         2580.28            2597         2588.29 
      0.0984825         2128.93         2055.22         2071.15 
       0.111151          1796.9         1716.09         1732.76 
       0.123864         1613.89         1546.56         1560.58 
       0.135742          1457.3         1390.75         1405.18 
        0.14762         1248.67         1189.17          1224.8 
       0.160083         1039.31         991.241         1032.38 
       0.172465         924.245         865.166         916.161 
       0.184281         853.138         797.583         851.003 
       0.196406         781.812         736.566         780.144 
       0.209011         715.779         655.357         702.614 
       0.221538         643.741         572.721         638.662 
       0.233611         593.468         512.437         586.378 
       0.245665         552.648          472.96         539.371 
       0.258103         513.604         440.286         506.338 
       0.270422         472.899         404.572         470.179 
       0.282519          432.97         367.172         436.054 
       0.294636         426.754         334.535         407.046 
       0.306978         378.295         309.501         384.881 
       0.319417         363.176         289.365         361.702 
        0.33169         340.503         270.092         339.908 
       0.343948         324.842         250.256         323.734 
       0.356249         302.897         231.653         308.342 
       0.368458         292.862         216.072         289.917 
        0.38068         278.775         203.041         276.003 
       0.392856         260.544         191.147         264.074 
       0.405069         249.661         179.516           253.4 
       0.417459         238.059         168.254         239.832 
       0.429752         229.317         158.145         230.286 
       0.441978          221.21         149.272         222.592 
       0.454294         206.342         141.215         211.715 
        0.46658          206.34         133.655         204.898 
       0.478753         195.082         126.523         197.354 
       0.490964         188.978         119.824         189.962 
       0.503334         179.086         113.641         183.835 
       0.515665         175.355         108.002         179.168 
       0.527909         170.053         102.797         171.801 
       0.540159         164.534         97.8726         166.782 
        0.55248         160.055         93.1999         161.217 
       0.564743         155.353         88.8731         157.151 
        0.57686         150.309         84.8965         152.007 
       0.589077         143.823         81.1427         148.444 
       0.601441         140.895         77.5733         144.553 
        0.61382         138.943         74.2079         140.311 
       0.626067         133.915         71.0674         136.753 
       0.638306         128.783         68.1101         133.556 
       0.650632          124.41         65.3081         128.933 
       0.662899         124.384         62.6825         126.168 
       0.675076         119.944         60.2218         123.149 
       0.687267         117.066         57.8901         120.287 
       0.699615         113.829         55.6527         117.818 
       0.711937         110.601         53.5376         114.734 
       0.724148          109.37         51.5504         113.125 
       0.736433         105.529         49.6542         110.173 
       0.748747         103.355         47.8506         107.795 
       0.761037         101.327         46.1409         105.279 
       0.773197         99.1057         44.5325         104.067 
       0.785376         97.1089         42.9989         101.451 
       0.797761          95.928         41.5138         99.9673 
       0.810096         92.6438         40.1047         97.7466 
       0.822371         90.7265         38.7679         95.9393 
       0.834626         88.8128         37.4945          94.302 
       0.846916         87.7444         36.2752         92.6906 
       0.859215         85.9923         35.1098         90.8685 
       0.871383         84.7698         34.0074         89.3454 
        0.88363         82.5032         32.9461         88.1393 
       0.895928         80.9163         31.9262         86.6985 
       0.908253         78.8596         30.9478         85.1604 
       0.920535         78.4904          30.014         83.9091 
       0.932774         76.7531          29.122         82.4323 
        0.94508         75.8137         28.2621         81.0603 
       0.957324         74.0476         27.4412         80.0139 
        0.96953         74.1213         26.6555         78.6025 
       0.981769         71.6295         25.8988         77.7348 
       0.994071         70.8622         25.1681         76.5866 
         1.0064         69.3003         24.4643         75.4433 
        1.01868         68.4801         23.7897         74.4558 
        1.03092          67.234         23.1437         73.3958 
         1.0432         66.0901         22.5194         72.2898 
        1.05553          64.385         21.9158         71.6858 
        1.06777          64.103         21.3388         70.6579 
           1.08         62.7019         20.7833         69.6768 
        1.09227          61.817         20.2458         68.6657 
         1.1046         60.8589         19.7254         67.8121 
         1.1169         60.1676         19.2243         66.8297 
        1.12915         59.2789         18.7432         66.1488 
        1.14142          58.135         18.2775         65.3335 
        1.15365         57.1598         17.8292         64.5861 
        1.16585         56.3533         17.3971         63.7001 
        1.17807         55.4753         16.9789         62.9541 
        1.19037         55.3622         16.5717         62.3557 
        1.20276          54.289         16.1751         61.6186 
        1.21504         53.7758         15.7948          60.896 
        1.22728          52.648         15.4282         60.2379 
        1.23954         52.0668         15.0725         59.4344 
        1.25184         51.2145         14.7273         58.9168 
        1.26414         50.4062         14.3929         58.1845 
        1.27632         49.9953         14.0718         57.6265 
         1.2886          49.464         13.7583         56.9662 
        1.30093         48.7273         13.4533         56.2341 
        1.31316         47.9674         13.1598         55.8374 
        1.32541         47.6797          12.875         55.1954 
        1.33772         46.7979         12.5971         54.6188 
        1.35005         46.3127         12.3272         54.0985 
        1.36225         45.5154          12.068         53.5587 
        1.37447         44.4439         11.8158         52.9891 
        1.38676         44.6198         11.5696         52.4934 
        1.39907         43.9092         11.3301         52.0486 
        1.41133         43.0035         11.0984         51.5661 
        1.42358         42.5285         10.8734         50.9834 
        1.43591         42.1459         10.6531         50.5677 
        1.44818         41.6363         10.4402         49.9663 
        1.46037         41.0922         10.2343         49.5732 
        1.47263         40.7709         10.0329         49.1747 
        1.48494         39.9646         9.83612         48.6502 
        1.49724         39.7258          9.6448          48.205 
        1.50952          39.299         9.45896         47.7879 
        1.52178         38.6887          9.2783         47.3781 
        1.53409         38.3803         9.10164         46.9563 
        1.54637         37.7551         8.92996         46.4974 
        1.55858         36.9698         8.76368         46.0721 
        1.57081              37         8.60142         45.7472 
        1.58313         36.5688         8.44226         45.3414 
        1.59544         35.9205         8.28722         44.9276 
        1.60767         35.4714         8.13707         44.5129 
        1.61994          35.036         7.99013          44.155 
        1.63225         34.8127         7.84651         43.7897 
        1.64452         34.3942         7.70684         43.4443 
        1.65676          33.958           7.571         43.0523 
          1.669          33.644         7.43834         42.7569 
        1.68133          33.317         7.30802         42.3478 
        1.69363         32.7552         7.18121         41.9888 
        1.70585         32.5405         7.05822         41.7397 
        1.71809         31.9758         6.93787         41.2936 
        1.73038         31.8017         6.81995         41.0494 
        1.74268         31.3227          6.7047         40.6335 
        1.75493         31.0051         6.59264          40.347 
        1.76714         30.7229         6.48343         40.0565 
        1.77942         30.4059         6.37615         39.7308 
        1.79173         29.9892         6.27102         39.4045 
        1.80402         29.6536         6.16848         39.1918 
         1.8163         29.4474          6.0683         38.7382 
         1.8286         28.9497         5.97017         38.5148 
         1.8409         28.7007         5.87429         38.1981 
        1.85315         28.3788         5.78084         37.9557 
        1.86537         28.0109         5.68962           37.67 
        1.87765         27.8743         5.60002         37.3679 
        1.88995         27.4479         5.51214          37.025 
        1.90221         27.1848         5.42646         36.7621 
        1.91445         26.7939         5.34274         36.5152 
        1.92674         26.5565         5.26049         36.2246 
        1.93902         26.2593         5.17998         35.9832 
        1.95124         25.8172         5.10158         35.7655 
         1.9635         25.6644          5.0246         35.4615 
        1.97583         25.3932         4.94873         35.2313 
        1.98812         25.1646         4.87471         34.9706 
        2.00039         24.8599         4.80235         34.7113 
        2.01264          24.563         4.73154         34.4861 
        2.02492         24.3851         4.66205         34.2078 
        2.03717         24.0091         4.59407         33.9725 
        2.04942         23.8039         4.52753          33.711 
        2.06171         23.6232         4.46209         33.4978 
        2.07397         23.3635         4.39808         33.2287 
        2.08629         23.1181         4.33507         32.9904 
        2.09857         22.8526         4.27344         32.7791 
        2.11081         22.5953         4.21326         32.5421 
        2.12309         22.4313          4.1541         32.3112 
        2.13538         22.0847         4.09599         32.1129 
        2.14763         21.9575         4.03919         31.8784 
        2.15986         21.6903         3.98359         31.6518 
        2.17214         21.4776         3.92882         31.4549 
        2.18443         21.2662         3.87502         31.2059 
        2.19671         21.0007          3.8223         30.9959 
        2.20898         20.8144         3.77062         30.7737 
        2.22126         20.6924         3.71984         30.5771 
        2.23354         20.4909         3.67002         30.3906 
         2.2458         20.2982         3.62119         30.1924 
        2.25807         19.9969         3.57321         29.9502 
        2.27035         19.8055         3.52606         29.7731 
        2.28263         19.6543         3.47978         29.5792 
         2.2949         19.4796         3.43436         29.3861 
        2.30718         19.2913         3.38973         29.1794 
        2.31946         19.1597         3.34588         28.9827 
        2.33169         18.9216         3.30299         28.7927 
        2.34393         18.7452         3.26078         28.6179 
        2.35622         18.5581         3.21918         28.4338 
        2.36847         18.3502         3.17842          28.225 
        2.38076         18.1973         3.13825         28.0707 
        2.39305         18.0413         3.09878         27.8903 
        2.40534         17.8528         3.05999         27.6689 
        2.41762           17.67         3.02186         27.5389 
        2.42989         17.5536         2.98445         27.3185 
        2.44216         17.3216         2.94767         27.1659 
         2.4544           17.31          2.9116         26.9762 
        2.46667         17.0759         2.87604         26.8135 
        2.47897         16.8653           2.841         26.6304 
        2.49124         16.7972         2.80664         26.4627 
        2.50349         16.5702         2.77289         26.2861 
        2.51578         16.4701          2.7396         26.1456 
        2.52805         16.3067         2.70691         25.9695 
        2.54029         16.1764         2.67484          25.805 
        2.55257         16.0672          2.6432         25.6364 
        2.56487         15.8743           2.612          25.486 
        2.57716         15.7686         2.58135         25.3047 
        2.58942         15.6783         2.55126         25.1717 
        2.60167         15.4484         2.52168         25.0098 
        2.61395         15.3885         2.49253          24.853 
        2.62624         15.2966          2.4638         24.6902 
        2.63849         15.1232         2.43561         24.5625 
        2.65073         14.9929         2.40789         24.3952 
        2.66302         14.8978          2.3805         24.2589 
         2.6753         14.8347         2.35356         24.1006 
        2.68756         14.6855         2.32709         23.9638 
        2.69983          14.554         2.30101         23.8023 
        2.71213         14.4249         2.27527         23.6467 
        2.72441         14.3413         2.24997         23.5106 
        2.73665         14.2301         2.22512         23.3703 
         2.7489         14.1884         2.20066         23.2273 
        2.76118         14.0353         2.17649         23.0895 
        2.77349         13.9546         2.15262         22.9531 
        2.78576         13.8497         2.12921         22.8245 
        2.79802         13.7851         2.10616         22.6747 
        2.81031         13.6884         2.08339          22.534 
        2.82259         13.5521         2.06098         22.4149 
        2.83483         13.5482         2.03897         22.2807 
         2.8471         13.4712         2.01725         22.1338 
         2.8594         13.3597         1.99577         21.9961 
         2.8717         13.3038         1.97462         21.8756 
        2.88396         13.2205         1.95385         21.7434 
        2.89619         13.1907         1.93341         21.6125 
        2.90847         13.0936          1.9132         21.5005 
        2.92072         13.0519          1.8933         21.3495 
        2.93299         12.9463         1.87368         21.2411 
        2.94526         12.9023         1.85432         21.1255 
        2.95753         12.8736         1.83524         20.9908 
        2.96982         12.8032         1.81639         20.8696 
        2.98209         12.7695         1.79785         20.7515 
        2.99436         12.7185         1.77955         20.6226 
        3.00666         12.6998         1.76147         20.5008 
        3.01894         12.6453         1.74368         20.3975 
        3.03119         12.6283         1.72616          20.277 
        3.04345         12.5512         1.70889         20.1483 
        3.05573         12.5497         1.69181         20.0352 
          3.068         12.5034         1.67498         19.9271 
        3.08026         12.5001          1.6584         19.7992 
        3.09254         12.4474         1.64202          19.693 
        3.10483          12.464         1.62585         19.5907 
         3.1171         12.4942         1.60992         19.4753 
        3.12933          12.453         1.59425         19.3627 
        3.14159         12.4075         1.57875         19.2457 
