# k  (h/Mpc)    Pcb(k)  (Mpc/h)^3    Pcb_linear(k) (Mpc/h)^3    Pcb_NL(k) (Mpc/h)^3   ShotnoiseSubtracted = false
      0.0156606         5045.49         5052.09         5025.46 
      0.0273761         4372.78         4370.64         4354.45 
      0.0384619          3322.5         3293.66         3285.07 
      0.0498308         2596.93         2591.06         2584.33 
      0.0625568         2191.17         2202.29         2194.64 
      0.0751274         1909.45         1871.19         1858.79 
      0.0867833         1506.15         1506.57         1504.32 
      0.0984825         1230.64         1192.28         1199.06 
       0.111151         1034.03         995.552         1002.35 
       0.123864         928.983         897.205         902.803 
       0.135742         836.423         806.819          812.54 
        0.14762         712.655         689.875         703.388 
       0.160083         591.709         575.054         590.396 
       0.172465         523.953         501.914         520.612 
       0.184281         485.379         462.707         482.541 
       0.196406         442.867          427.31         442.942 
       0.209011         401.896         380.198         397.592 
       0.221538          359.27         332.258         356.573 
       0.233611         326.601         297.285         324.419 
       0.245665         306.564         274.383         298.597 
       0.258103         278.627         255.428         279.549 
       0.270422         260.318         234.708          258.39 
       0.282519         236.737         213.011         238.025 
       0.294636         229.719         194.077         220.468 
       0.306978         202.712         179.554         206.938 
       0.319417         193.974         167.873         194.248 
        0.33169         180.814         156.691         182.172 
       0.343948         172.458         145.184         171.557 
       0.356249         159.408         134.392         162.515 
       0.368458         153.086         125.352         151.922 
        0.38068         144.553         117.793         144.066 
       0.392856          134.79         110.892         137.306 
       0.405069         128.164         104.145         130.356 
       0.417459         121.395         97.6115         123.378 
       0.429752         116.596         91.7467         117.707 
       0.441978         111.595         86.5993         113.241 
       0.454294         103.807         81.9249         107.314 
        0.46658         103.795         77.5391         103.051 
       0.478753         96.8043         73.4016         98.9417 
       0.490964         93.8287         69.5152         95.0121 
       0.503334         89.7777         65.9279         91.1905 
       0.515665         86.3683         62.6567         88.5284 
       0.527909         83.1019          59.637           84.09 
       0.540159         80.1381         56.7801         81.3635 
        0.55248         75.9953         54.0692          78.263 
       0.564743         74.4387         51.5591         75.8754 
        0.57686         72.1273         49.2521         73.2589 
       0.589077          68.454         47.0744          71.161 
       0.601441         66.6163         45.0036         68.9182 
        0.61382         64.7584         43.0512         66.4795 
       0.626067         62.0664         41.2292          64.684 
       0.638306         60.2167         39.5136         62.6445 
       0.650632         58.2053          37.888         60.5033 
       0.662899         57.0097         36.3648         58.7701 
       0.675076           54.69         34.9372         57.1615 
       0.687267         53.8973         33.5845         55.5588 
       0.699615         51.9776         32.2865         54.3264 
       0.711937         49.9198         31.0595         52.4986 
       0.724148         49.6587         29.9066         51.5763 
       0.736433         47.0051         28.8065         50.0574 
       0.748747         46.3945         27.7602         48.7893 
       0.761037         45.1094         26.7683         47.6455 
       0.773197         44.0599         25.8352         46.7222 
       0.785376         42.5327         24.9455         45.5122 
       0.797761         42.0275         24.0839         44.5925 
       0.810096         40.9344         23.2665         43.5005 
       0.822371         39.9981         22.4909         42.4408 
       0.834626         38.8965         21.7522         41.7179 
       0.846916         37.9746         21.0448         40.7638 
       0.859215         36.8252         20.3687          39.871 
       0.871383         36.3184         19.7292         39.1487 
        0.88363         35.3964         19.1134         38.4469 
       0.895928         34.5884         18.5218         37.5488 
       0.908253         33.8844         17.9542         36.9492 
       0.920535         33.3089         17.4124         36.1882 
       0.932774         32.7301         16.8949         35.5026 
        0.94508         32.0522          16.396         34.7776 
       0.957324         31.3545         15.9198         34.2033 
        0.96953         30.7412          15.464         33.5335 
       0.981769          30.117          15.025         33.0434 
       0.994071         29.4769         14.6011         32.4396 
         1.0064          28.827         14.1928         31.8947 
        1.01868         28.2425         13.8014          31.398 
        1.03092         28.0188         13.4266         30.8361 
         1.0432         27.2909         13.0645         30.2523 
        1.05553         26.7718         12.7143         29.9712 
        1.06777         26.1051         12.3796         29.3451 
           1.08         25.5549         12.0573         28.8933 
        1.09227         25.2314         11.7455         28.5359 
         1.1046         24.8632         11.4436         28.0225 
         1.1169         24.4488         11.1528         27.6132 
        1.12915         24.1567         10.8737         27.2271 
        1.14142         23.4498         10.6036         26.8071 
        1.15365         23.2374         10.3435         26.4397 
        1.16585          22.932         10.0928           26.09 
        1.17807         22.4091         9.85017         25.6237 
        1.19037         22.2201         9.61395         25.4063 
        1.20276         21.8872          9.3839         25.0055 
        1.21504         21.4466         9.16322         24.7268 
        1.22728         21.0373         8.95058         24.3595 
        1.23954          20.775          8.7442         24.0074 
        1.25184         20.3819         8.54396         23.7284 
        1.26414         20.1375         8.34993         23.3893 
        1.27632         19.8565         8.16367         23.0907 
         1.2886         19.6416          7.9818         22.8286 
        1.30093         19.1693         7.80486         22.5903 
        1.31316         18.9644         7.63457         22.2702 
        1.32541         18.7387         7.46935         22.0506 
        1.33772         18.3995         7.30812         21.7738 
        1.35005         18.1609         7.15155         21.5414 
        1.36225         17.9159         7.00117          21.275 
        1.37447         17.5554         6.85485         21.0088 
        1.38676         17.3689         6.71204         20.8008 
        1.39907         17.1054         6.57308         20.5626 
        1.41133         16.8471         6.43866         20.3229 
        1.42358         16.6464         6.30813         20.0857 
        1.43591         16.3925         6.18034         19.9118 
        1.44818         16.1738          6.0568         19.7004 
        1.46037         16.0795         5.93737         19.4454 
        1.47263          15.784         5.82051         19.2937 
        1.48494         15.6587         5.70636         19.0428 
        1.49724         15.4417         5.59536          18.885 
        1.50952         15.2074         5.48755         18.7077 
        1.52178         15.0183         5.38274         18.4834 
        1.53409         14.7478         5.28026         18.3048 
        1.54637         14.7172         5.18065         18.0869 
        1.55858         14.4595         5.08419         17.9361 
        1.57081         14.2458         4.99005         17.7773 
        1.58313         14.1353         4.89772         17.6003 
        1.59544         13.8918         4.80777         17.4474 
        1.60767         13.7592         4.72067         17.2586 
        1.61994         13.5157         4.63542         17.1168 
        1.63225         13.4547          4.5521         16.9793 
        1.64452         13.2697         4.47107          16.831 
        1.65676         13.0997         4.39226         16.6515 
          1.669         12.9915          4.3153         16.4987 
        1.68133         12.7412          4.2397         16.3468 
        1.69363         12.6018         4.16613         16.1715 
        1.70585         12.4563         4.09478         16.0807 
        1.71809         12.3299         4.02496         15.9298 
        1.73038         12.1933         3.95655         15.8083 
        1.74268         12.0819         3.88968           15.65 
        1.75493         11.8682         3.82468         15.5121 
        1.76714         11.8802         3.76132         15.3927 
        1.77942         11.7264         3.69908         15.2406 
        1.79173         11.4901         3.63809         15.1362 
        1.80402         11.4238          3.5786         15.0184 
         1.8163         11.2955         3.52048         14.8931 
         1.8286         11.1321         3.46355         14.7774 
         1.8409         11.0252         3.40793         14.6586 
        1.85315         10.9166         3.35372         14.5305 
        1.86537         10.8135         3.30079         14.4249 
        1.87765          10.721         3.24881         14.3103 
        1.88995         10.5304         3.19783         14.2031 
        1.90221         10.4866         3.14812          14.071 
        1.91445         10.3551         3.09955         13.9858 
        1.92674         10.2435         3.05184         13.8663 
        1.93902         10.1481         3.00513         13.7826 
        1.95124         10.0191         2.95965         13.6748 
         1.9635         9.92107         2.91499         13.5626 
        1.97583         9.83665         2.87097         13.4429 
        1.98812         9.75952         2.82803         13.3435 
        2.00039         9.67513         2.78605         13.2632 
        2.01264         9.57475         2.74497         13.1725 
        2.02492         9.49332         2.70465         13.0597 
        2.03717         9.34799         2.66522           12.97 
        2.04942         9.24948         2.62662         12.8774 
        2.06171         9.22163         2.58865         12.7889 
        2.07397         9.10603         2.55152         12.7043 
        2.08629         9.02671         2.51496         12.6222 
        2.09857         8.94569         2.47921          12.524 
        2.11081         8.86625          2.4443         12.4536 
        2.12309         8.74918         2.40997         12.3423 
        2.13538          8.6716         2.37626         12.2654 
        2.14763         8.59051         2.34331         12.1855 
        2.15986         8.55316         2.31105         12.1113 
        2.17214         8.46885         2.27928         12.0084 
        2.18443         8.35714         2.24807         11.9414 
        2.19671          8.3335         2.21748         11.8611 
        2.20898         8.21214          2.1875         11.7861 
        2.22126         8.12266         2.15804         11.7035 
        2.23354         8.09109         2.12914         11.6178 
         2.2458         7.99468         2.10081         11.5558 
        2.25807         7.92901         2.07297         11.4684 
        2.27035          7.8703         2.04562         11.3993 
        2.28263         7.80376         2.01877         11.3215 
         2.2949         7.71357         1.99242         11.2555 
        2.30718          7.6584         1.96653         11.1973 
        2.31946         7.60034         1.94109         11.1212 
        2.33169         7.53418         1.91621         11.0527 
        2.34393         7.48049         1.89172          10.977 
        2.35622         7.42814         1.86759         10.9128 
        2.36847         7.35928         1.84394         10.8423 
        2.38076         7.29925         1.82063         10.7774 
        2.39305         7.20577         1.79774         10.7003 
        2.40534         7.16925         1.77523         10.6315 
        2.41762         7.11905         1.75311          10.584 
        2.42989         7.07586         1.73141         10.5203 
        2.44216         7.01353         1.71007         10.4483 
         2.4544         6.94979         1.68914         10.3878 
        2.46667         6.93781         1.66852         10.3266 
        2.47897         6.87703         1.64819          10.255 
        2.49124         6.79521         1.62825         10.1961 
        2.50349         6.76086         1.60867         10.1461 
        2.51578         6.70442         1.58936         10.0894 
        2.52805         6.66748          1.5704         10.0306 
        2.54029          6.6024         1.55179         9.97329 
        2.55257         6.58914         1.53343         9.91404 
        2.56487         6.51336         1.51533         9.84689 
        2.57716         6.47448         1.49755         9.79864 
        2.58942         6.45239          1.4801         9.74406 
        2.60167         6.40244         1.46294          9.6854 
        2.61395         6.34364         1.44602         9.63312 
        2.62624         6.32027         1.42935         9.57744 
        2.63849         6.29788           1.413         9.52563 
        2.65073          6.2428         1.39692         9.46583 
        2.66302          6.2021         1.38103          9.4104 
         2.6753          6.1645          1.3654         9.35906 
        2.68756         6.13538         1.35004         9.31596 
        2.69983         6.09299         1.33491         9.25469 
        2.71213         6.05712         1.31998         9.20338 
        2.72441         6.01805         1.30531         9.15544 
        2.73665         6.00668         1.29089         9.10043 
         2.7489          5.9827          1.2767         9.05312 
        2.76118          5.9254         1.26267         9.01259 
        2.77349          5.9023         1.24883         8.95752 
        2.78576          5.8862         1.23525         8.91001 
        2.79802         5.84263         1.22187         8.86197 
        2.81031         5.82623         1.20867         8.81804 
        2.82259         5.78776         1.19566         8.77079 
        2.83483         5.77095          1.1829         8.72155 
         2.8471         5.75565         1.17029         8.67961 
         2.8594         5.74865         1.15783          8.6348 
         2.8717         5.70183         1.14556         8.58184 
        2.88396         5.68035         1.13351         8.53954 
        2.89619         5.64559         1.12166         8.50112 
        2.90847         5.64412         1.10993         8.44994 
        2.92072         5.64636         1.09839         8.40493 
        2.93299         5.63214           1.087         8.36796 
        2.94526         5.61093         1.07577         8.32084 
        2.95753         5.59242          1.0647         8.27569 
        2.96982         5.57076         1.05377         8.23595 
        2.98209          5.5641         1.04301         8.18814 
        2.99436         5.55918         1.03239         8.14783 
        3.00666         5.56702         1.02191         8.11086 
        3.01894         5.53519         1.01159         8.06436 
        3.03119         5.54049         1.00142         8.02453 
        3.04345         5.53705        0.991398         7.98535 
        3.05573         5.52679        0.981491         7.94196 
          3.068         5.52268         0.97173         7.90563 
        3.08026         5.54786        0.962111           7.868 
        3.09254         5.53863        0.952605         7.82596 
        3.10483         5.52652        0.943226         7.78959 
         3.1171         5.53869        0.933985         7.75348 
        3.12933         5.54434        0.924894         7.71037 
        3.14159         5.53118        0.915904         7.67308 
