# k  (h/Mpc)    P(k)  (Mpc/h)^3    P_linear(k)  (Mpc/h)^3     P_NL(k)  ShotnoiseSubtracted = false
      0.0156606         22344.8         22452.6         22272.8 
      0.0273761           19113         19379.1         19162.2 
      0.0384619         14434.7         14586.4         14393.2 
      0.0498308         11136.4         11466.4         11271.8 
      0.0625568         9405.35         9740.86         9568.22 
      0.0751274         8378.91         8273.64         8031.55 
      0.0867833         6486.11            6660         6584.78 
      0.0984825         5487.44         5269.85         5335.69 
       0.111151         4697.26         4399.76         4482.64 
       0.123864         4206.84         3964.75         4031.69 
       0.135742         3837.95         3565.09         3632.09 
        0.14762          3343.4         3048.19         3225.47 
       0.160083         2845.12         2540.74         2760.02 
       0.172465         2537.38         2217.51         2496.88 
       0.184281         2297.16         2044.23         2323.87 
       0.196406          2171.5          1887.8         2141.68 
       0.209011         2033.95         1679.63         1942.28 
       0.221538         1830.45         1467.81         1815.76 
       0.233611         1757.96         1313.29         1703.45 
       0.245665         1592.35          1212.1         1574.06 
       0.258103         1580.15         1128.35         1486.89 
       0.270422         1409.14         1036.82         1397.94 
       0.282519         1333.11         940.961         1325.36 
       0.294636         1307.25         857.313         1256.42 
       0.306978         1196.58         793.154         1204.96 
       0.319417         1174.72          741.55         1136.42 
        0.33169         1103.68         692.154         1077.11 
       0.343948         1060.61         641.317         1044.51 
       0.356249         1006.55         593.643         1006.47 
       0.368458         965.493         553.711         962.999 
        0.38068         951.731         520.321         927.078 
       0.392856         904.514         489.837         895.487 
       0.405069         857.256         460.028         866.299 
       0.417459          824.58         431.169         837.039 
       0.429752         822.288         405.262         808.027 
       0.441978         793.374         382.524         787.982 
       0.454294         759.082         361.876         756.368 
        0.46658         737.658         342.501         741.206 
       0.478753         724.208         324.224          719.22 
       0.490964         696.387         307.056         697.558 
       0.503334         667.147         291.211         682.524 
       0.515665         664.486         276.762         667.117 
       0.527909         636.715         263.423         653.633 
       0.540159         621.543         250.803         637.521 
        0.55248          608.99         238.829         621.204 
       0.564743         603.836         227.741          610.75 
        0.57686         584.347         217.551         594.904 
       0.589077         574.645         207.931         582.009 
       0.601441         560.652         198.784         570.932 
        0.61382         544.843          190.16         560.963 
       0.626067         539.243         182.112         550.789 
       0.638306         519.698         174.534         539.616 
       0.650632         514.892         167.354         527.164 
       0.662899         510.716         160.625          520.74 
       0.675076         494.572          154.32         513.874 
       0.687267         480.289         148.345         501.831 
       0.699615         479.077         142.611         493.939 
       0.711937         468.793         137.191         484.631 
       0.724148         453.741         132.099          478.32 
       0.736433         443.171          127.24         469.964 
       0.748747         437.571         122.618         461.772 
       0.761037         429.873         118.237         456.302 
       0.773197          423.17         114.115         448.721 
       0.785376         417.946         110.185         442.348 
       0.797761         405.442          106.38         435.928 
       0.810096         400.803         102.769         430.381 
       0.822371         390.411         99.3431         423.449 
       0.834626         386.491         96.0799         418.617 
       0.846916         380.744         92.9555         412.069 
       0.859215         376.047         89.9691         406.044 
       0.871383          367.71         87.1443         400.763 
        0.88363         363.342         84.4245         396.731 
       0.895928         358.308         81.8111         390.599 
       0.908253         349.452          79.304         384.185 
       0.920535          342.43         76.9109         380.139 
       0.932774         337.447         74.6253         374.352 
        0.94508         332.276         72.4216         370.643 
       0.957324          328.75          70.318          365.72 
        0.96953         324.564         68.3048         361.314 
       0.981769         316.793         66.3658         357.298 
       0.994071          315.58         64.4931         352.978 
         1.0064         309.662         62.6899         347.857 
        1.01868         306.078         60.9611         343.453 
        1.03092         296.974         59.3056         340.468 
         1.0432         294.187         57.7059         336.356 
        1.05553         291.097         56.1592         331.722 
        1.06777         287.101         54.6807         327.971 
           1.08         280.554         53.2571         324.366 
        1.09227         279.893         51.8798         320.476 
         1.1046         274.299         50.5463         317.461 
         1.1169         268.454         49.2622         313.263 
        1.12915         264.713         48.0292         310.077 
        1.14142         259.354         46.8361         306.436 
        1.15365         256.466         45.6871         303.226 
        1.16585         252.038         44.5799         299.844 
        1.17807         249.596         43.5082         296.592 
        1.19037         245.195         42.4648         294.088 
        1.20276         242.202         41.4487          290.25 
        1.21504          237.17          40.474         286.996 
        1.22728         233.706         39.5347         283.882 
        1.23954         232.336         38.6231         281.039 
        1.25184         226.987         37.7387         278.079 
        1.26414         222.461         36.8816         275.453 
        1.27632         220.606         36.0589         272.925 
         1.2886         218.596         35.2556         269.832 
        1.30093         213.652          34.474         266.412 
        1.31316         209.132         33.7219         263.869 
        1.32541         208.039         32.9921         261.066 
        1.33772         204.343         32.2799         258.703 
        1.35005         201.941         31.5884          255.78 
        1.36225         198.044         30.9241         253.391 
        1.37447         194.928         30.2778         250.322 
        1.38676         193.064         29.6471         248.561 
        1.39907          190.24         29.0332         245.525 
        1.41133         186.565         28.4395         242.961 
        1.42358          184.31          27.863         240.678 
        1.43591         181.887         27.2985         238.525 
        1.44818         178.385         26.7528         236.011 
        1.46037         176.909         26.2253         233.477 
        1.47263         173.417         25.7092         231.274 
        1.48494         171.969         25.2049         228.502 
        1.49724         168.934         24.7147          227.07 
        1.50952         165.916         24.2385         224.439 
        1.52178         164.119         23.7755         222.201 
        1.53409         161.164         23.3228         220.179 
        1.54637         158.686         22.8829          218.36 
        1.55858         156.955         22.4568         216.036 
        1.57081         154.197          22.041         213.946 
        1.58313         152.207         21.6332         211.772 
        1.59544         149.399         21.2359         209.886 
        1.60767         148.011         20.8511         208.023 
        1.61994           145.5         20.4746         205.937 
        1.63225         143.178         20.1066         203.848 
        1.64452         140.891         19.7487         202.042 
        1.65676         139.106         19.4006          200.31 
          1.669         137.497         19.0606         198.318 
        1.68133         134.799         18.7267         196.508 
        1.69363         132.467         18.4017         194.874 
        1.70585         130.407         18.0866          193.06 
        1.71809         128.717         17.7782         190.993 
        1.73038         127.099          17.476         189.402 
        1.74268          125.93         17.1807         187.548 
        1.75493          123.01         16.8935         186.034 
        1.76714         122.414         16.6137         184.408 
        1.77942         119.838         16.3388         182.687 
        1.79173         118.056         16.0694         180.971 
        1.80402         116.495         15.8066         179.361 
         1.8163         114.391         15.5499         177.932 
         1.8286         112.877         15.2985         176.185 
         1.8409         111.531         15.0528         174.552 
        1.85315         109.307         14.8133         173.121 
        1.86537         108.266         14.5796          171.66 
        1.87765           106.9           14.35         170.191 
        1.88995         104.933         14.1248         168.563 
        1.90221         103.664         13.9052         167.254 
        1.91445         102.095         13.6907         165.644 
        1.92674         100.465         13.4799         164.183 
        1.93902         99.2584         13.2736         162.703 
        1.95124         97.8787         13.0727         161.336 
         1.9635         96.2579         12.8755         159.933 
        1.97583         94.7871          12.681         158.519 
        1.98812         93.4252         12.4914         157.396 
        2.00039         92.3781          12.306         155.876 
        2.01264         91.2325         12.1245         154.594 
        2.02492         89.9586         11.9464         153.176 
        2.03717         88.5824         11.7722         151.977 
        2.04942         87.4554         11.6017         150.675 
        2.06171         85.9097          11.434         149.336 
        2.07397         84.9067           11.27         148.203 
        2.08629         83.6065         11.1085         146.908 
        2.09857         82.6115         10.9506         145.735 
        2.11081         81.2687         10.7964          144.39 
        2.12309         80.2524         10.6448          143.29 
        2.13538         78.9401         10.4959         142.037 
        2.14763         77.8654         10.3503         140.884 
        2.15986          76.997         10.2079         139.626 
        2.17214         75.8974         10.0675         138.555 
        2.18443         74.9629         9.92968         137.565 
        2.19671         74.0073         9.79458         136.365 
        2.20898         73.0366         9.66215         135.139 
        2.22126         71.9623         9.53203         134.151 
        2.23354         71.0824         9.40436         133.081 
         2.2458         69.7006         9.27924         131.955 
        2.25807         69.0164         9.15629         130.902 
        2.27035         68.0171         9.03547         129.839 
        2.28263         67.1868         8.91688         128.852 
         2.2949         65.8859         8.80048         127.834 
        2.30718         65.0047         8.68613         126.783 
        2.31946          64.418         8.57375           125.7 
        2.33169         63.3953         8.46385         124.759 
        2.34393         62.8727          8.3557         123.883 
        2.35622         61.7663          8.2491         122.824 
        2.36847         61.1551         8.14465         121.975 
        2.38076         60.0558         8.04171         120.901 
        2.39305         59.4886         7.94057         120.067 
        2.40534         58.5934         7.84116         119.066 
        2.41762         57.9675         7.74347         118.117 
        2.42989         57.0514         7.64759          117.26 
        2.44216         56.5349         7.55335          116.28 
         2.4544         55.6382         7.46091         115.443 
        2.46667         54.8594         7.36981         114.562 
        2.47897         54.3428         7.28001         113.613 
        2.49124          53.711         7.19195         112.768 
        2.50349          52.811         7.10548         111.934 
        2.51578         52.4335         7.02017         111.172 
        2.52805         51.6161         6.93642         110.244 
        2.54029         51.1045         6.85424         109.405 
        2.55257         50.4357         6.77314         108.648 
        2.56487         50.1106          6.6932         107.838 
        2.57716          49.535         6.61467         107.033 
        2.58942         48.7253         6.53757         106.246 
        2.60167         48.1952         6.46177         105.476 
        2.61395         47.8475         6.38706         104.676 
        2.62624         47.0406         6.31343         103.846 
        2.63849         46.5454          6.2412         103.124 
        2.65073         45.9235         6.17017         102.367 
        2.66302         45.5384         6.09999         101.614 
         2.6753         44.9462         6.03095         100.902 
        2.68756         44.6227         5.96312         100.134 
        2.69983         44.0636         5.89629         99.4208 
        2.71213         43.5652         5.83033          98.713 
        2.72441         43.1727         5.76551         97.9869 
        2.73665         42.6947         5.70183         97.3169 
         2.7489         42.2331         5.63914         96.6346 
        2.76118         41.8386         5.57721          95.913 
        2.77349         41.3855         5.51606         95.2511 
        2.78576         40.9979         5.45606         94.5522 
        2.79802          40.643         5.39699         93.9478 
        2.81031         40.1005         5.33866         93.2618 
        2.82259         39.7204         5.28121         92.5692 
        2.83483         39.2933         5.22483         91.9672 
         2.8471         38.9248         5.16916          91.299 
         2.8594         38.5255         5.11413         90.6522 
         2.8717         38.2604         5.05992         90.0681 
        2.88396         37.9374          5.0067         89.4389 
        2.89619         37.6282         4.95434         88.7741 
        2.90847         37.2643         4.90253         88.1279 
        2.92072         36.9782         4.85155          87.586 
        2.93299         36.8316         4.80127         87.0047 
        2.94526         36.4565         4.75166         86.3883 
        2.95753         36.2196         4.70276         85.7861 
        2.96982         35.8427         4.65447         85.2181 
        2.98209         35.7138         4.60695         84.6456 
        2.99436         35.4227         4.56006         84.0403 
        3.00666         35.2837         4.51374         83.4786 
        3.01894         35.0555         4.46816         82.9278 
        3.03119         34.8212         4.42326         82.3955 
        3.04345         34.6141         4.37899         81.8532 
        3.05573         34.5182         4.33523         81.2958 
          3.068         34.3017         4.29211         80.7604 
        3.08026          34.109         4.24963         80.2207 
        3.09254          34.039         4.20764         79.6983 
        3.10483         34.0364         4.16621         79.1768 
         3.1171         33.8537         4.12539         78.6466 
        3.12933         33.6194         4.08524         78.1243 
        3.14159         33.6269         4.04553         77.6038 
