# k  (h/Mpc)    P(k)  (Mpc/h)^3    P_linear(k)  (Mpc/h)^3     P_NL(k)  ShotnoiseSubtracted = false
      0.0156606         17561.1         17781.8         17652.7 
      0.0273761         15061.7         15349.5         15207.9 
      0.0384619         11395.8         11554.3         11433.1 
      0.0498308          8816.4         9083.34         8963.01 
      0.0625568          7443.8          7716.8         7608.26 
      0.0751274         6607.03         6554.66         6400.79 
      0.0867833         5131.31         5276.41         5230.42 
      0.0984825          4309.1         4175.12          4221.4 
       0.111151         3672.45         3485.83         3540.48 
       0.123864         3293.01         3141.22         3185.89 
       0.135742         2993.52          2824.6          2869.8 
        0.14762         2596.31         2415.08         2534.92 
       0.160083         2189.94         2013.04         2158.52 
       0.172465         1953.43         1756.95         1941.42 
       0.184281          1780.4         1619.67          1806.5 
       0.196406         1663.65         1495.73         1660.41 
       0.209011         1548.18          1330.8         1502.58 
       0.221538          1396.4         1162.97         1395.51 
       0.233611         1326.22         1040.55         1302.07 
       0.245665         1208.27         960.378         1200.37 
       0.258103         1180.27         894.022         1131.85 
       0.270422         1057.11         821.496         1060.49 
       0.282519         990.453         745.548         998.532 
       0.294636         978.627         679.273         943.122 
       0.306978         885.832         628.439         901.387 
       0.319417         862.388         587.551         849.095 
        0.33169         812.429         548.414         802.077 
       0.343948         776.429         508.135          775.61 
       0.356249         732.523         470.362         745.182 
       0.368458         708.455         438.723         708.739 
        0.38068         689.963         412.267         680.041 
       0.392856          652.55         388.113         654.589 
       0.405069          622.74         364.495          634.34 
       0.417459         598.358          341.63         607.833 
       0.429752         587.942         321.103         586.236 
       0.441978         568.047         303.087         570.295 
       0.454294         540.125         286.727         546.179 
        0.46658         527.206         271.376         533.898 
       0.478753         513.997         256.894         516.677 
       0.490964         494.724         243.291         500.234 
       0.503334         470.039         230.738          487.88 
       0.515665         469.092         219.289          477.28 
       0.527909          451.22          208.72         465.244 
       0.540159         439.895          198.72         452.518 
        0.55248         431.358         189.232         440.433 
       0.564743         426.916         180.448         432.603 
        0.57686         410.618         172.374         420.493 
       0.589077         398.735         164.752          411.09 
       0.601441          393.63         157.504         402.269 
        0.61382         384.951         150.671         394.992 
       0.626067         379.603         144.295          386.78 
       0.638306         364.269          138.29         379.324 
       0.650632         359.496         132.601          368.99 
       0.662899         356.426          127.27         364.618 
       0.675076         342.929         122.273         358.357 
       0.687267         334.397         117.539         349.868 
       0.699615          330.33         112.996         344.151 
       0.711937         325.424         108.702         337.953 
       0.724148         314.805         104.667         332.961 
       0.736433         307.831         100.817         326.495 
       0.748747         303.541         97.1548         320.449 
       0.761037         297.891         93.6835         315.845 
       0.773197         294.368         90.4177         311.314 
       0.785376         289.893         87.3039         306.185 
       0.797761         282.554         84.2885         301.399 
       0.810096         279.942         81.4276         297.426 
       0.822371         269.895         78.7133         292.506 
       0.834626         269.013         76.1278         288.459 
       0.846916         263.183         73.6522         284.158 
       0.859215         263.178          71.286         280.093 
       0.871383          256.17         69.0477          276.01 
        0.88363         254.676         66.8928         273.165 
       0.895928         249.066         64.8221         268.818 
       0.908253         242.579         62.8356         264.495 
       0.920535          241.11         60.9394         261.026 
       0.932774         234.279         59.1285         257.407 
        0.94508         231.862         57.3824         254.724 
       0.957324         231.104         55.7157         251.061 
        0.96953         227.791         54.1206         247.676 
       0.981769         221.029         52.5842         245.243 
       0.994071         220.178         51.1004         242.101 
         1.0064         215.382         49.6716         238.495 
        1.01868         212.594         48.3019         235.616 
        1.03092          207.93         46.9901         233.295 
         1.0432         204.373         45.7226         230.437 
        1.05553         201.697         44.4971         227.473 
        1.06777          201.27         43.3256         225.142 
           1.08         196.328         42.1977         222.376 
        1.09227         193.976         41.1064         219.892 
         1.1046         191.172         40.0498         217.629 
         1.1169         187.483         39.0323         214.643 
        1.12915         184.877         38.0554         212.703 
        1.14142         181.964           37.11         209.953 
        1.15365         179.476         36.1997         207.744 
        1.16585         176.928         35.3224         205.097 
        1.17807         174.701         34.4733         203.459 
        1.19037         173.098         33.6465          201.48 
        1.20276         170.468         32.8414         198.939 
        1.21504         167.171         32.0691         196.796 
        1.22728         164.099         31.3249         194.279 
        1.23954         163.622         30.6026         192.881 
        1.25184         160.544         29.9018          190.68 
        1.26414         157.912         29.2227          188.71 
        1.27632          157.37         28.5709         187.438 
         1.2886         155.305         27.9344          184.96 
        1.30093         150.814         27.3151         182.914 
        1.31316         149.228         26.7192         180.846 
        1.32541         147.685         26.1409         179.439 
        1.33772         146.312         25.5766         177.525 
        1.35005         144.062         25.0287         175.532 
        1.36225         142.081         24.5024         173.944 
        1.37447         140.003         23.9903         171.885 
        1.38676         138.332         23.4905         170.363 
        1.39907         135.881         23.0042         168.606 
        1.41133         133.935         22.5337         167.123 
        1.42358         132.126         22.0769         165.555 
        1.43591         130.711         21.6297         163.744 
        1.44818         129.277         21.1973          162.31 
        1.46037         127.078         20.7794         160.618 
        1.47263         125.808         20.3704         159.381 
        1.48494         123.854         19.9709         157.489 
        1.49724         122.208         19.5824         156.116 
        1.50952         119.982         19.2051         154.643 
        1.52178          119.52         18.8383         153.022 
        1.53409         117.102         18.4796         151.762 
        1.54637         115.695          18.131         150.466 
        1.55858         113.647         17.7934         148.882 
        1.57081          112.21          17.464         147.626 
        1.58313         110.879         17.1408         146.152 
        1.59544         109.509          16.826         144.889 
        1.60767         108.226         16.5212         143.498 
        1.61994         106.401         16.2228         142.438 
        1.63225         105.103         15.9312         140.772 
        1.64452         103.215         15.6476         139.526 
        1.65676          101.75         15.3718         138.391 
          1.669          101.18         15.1025         137.249 
        1.68133         99.1243         14.8379         135.967 
        1.69363         98.1799         14.5804         134.777 
        1.70585            96.4         14.3307         133.565 
        1.71809          95.238         14.0864         132.248 
        1.73038         94.5297         13.8469         131.155 
        1.74268         93.2537         13.6129         129.947 
        1.75493         91.7054         13.3854         128.799 
        1.76714         90.4452         13.1637         127.767 
        1.77942         89.4125         12.9459         126.499 
        1.79173         88.0635         12.7324         125.517 
        1.80402          87.407         12.5242         124.447 
         1.8163         85.6996         12.3208         123.246 
         1.8286         84.5358         12.1216         122.205 
         1.8409         83.8886         11.9269          121.13 
        1.85315         82.5509         11.7372         120.168 
        1.86537         81.5812          11.552         119.155 
        1.87765         80.8824         11.3701          118.09 
        1.88995         79.5357         11.1916         117.132 
        1.90221         78.5083         11.0177         116.124 
        1.91445         77.3206         10.8477         115.078 
        1.92674         76.1742         10.6807         114.147 
        1.93902         75.2624         10.5172         113.122 
        1.95124         74.5928          10.358         112.242 
         1.9635         73.4562         10.2017         111.168 
        1.97583         72.4029         10.0477         110.373 
        1.98812         71.4848         9.89741         109.427 
        2.00039          70.502          9.7505         108.495 
        2.01264         69.9132         9.60671         107.585 
        2.02492         68.9034         9.46562         106.686 
        2.03717         67.7731          9.3276         105.754 
        2.04942         67.4728         9.19251         105.003 
        2.06171         66.0076         9.05964         104.085 
        2.07397         65.3154         8.92969         103.273 
        2.08629         64.5947         8.80174         102.371 
        2.09857          63.617         8.67661         101.562 
        2.11081         62.6468         8.55443         100.633 
        2.12309         62.1104         8.43431         99.9529 
        2.13538         61.2127         8.31632         99.0928 
        2.14763         60.3947         8.20099         98.2989 
        2.15986         59.3084         8.08811         97.4761 
        2.17214         58.9008          7.9769         96.6707 
        2.18443         58.1988         7.86768         96.0271 
        2.19671         57.1563         7.76063         95.2015 
        2.20898          56.941         7.65571         94.4207 
        2.22126         56.0379         7.55261         93.6444 
        2.23354         55.3224         7.45145         92.9428 
         2.2458         54.6132         7.35231         92.2365 
        2.25807         53.8917         7.25489          91.452 
        2.27035         53.3707         7.15916         90.7214 
        2.28263         52.5178          7.0652         90.0032 
         2.2949         52.0833         6.97297         89.3054 
        2.30718         51.0974         6.88236         88.6423 
        2.31946         50.6865         6.79332         87.9413 
        2.33169         49.9081         6.70624         87.2625 
        2.34393          49.246         6.62055         86.6051 
        2.35622          48.844         6.53609         85.9249 
        2.36847         48.2535         6.45333         85.3359 
        2.38076         47.4982         6.37176         84.5853 
        2.39305         46.9646         6.29163         83.9971 
        2.40534         46.4806         6.21286          83.307 
        2.41762         45.9853         6.13546         82.6297 
        2.42989         45.4386         6.05949         82.0831 
        2.44216         44.9356         5.98482         81.4214 
         2.4544         44.3784         5.91158         80.7989 
        2.46667         43.8872         5.83939         80.1625 
        2.47897         43.3952         5.76824         79.5719 
        2.49124         42.8127         5.69847         78.9987 
        2.50349         42.3904         5.62996         78.3746 
        2.51578         41.8042         5.56236         77.8672 
        2.52805          41.421           5.496          77.241 
        2.54029         40.9402         5.43088         76.6232 
        2.55257         40.3346         5.36663         76.0984 
        2.56487         40.0164         5.30329         75.5714 
        2.57716         39.4999         5.24106         75.0266 
        2.58942         38.9813         5.17997           74.45 
        2.60167          38.649         5.11992         73.9057 
        2.61395          38.131         5.06072         73.3712 
        2.62624         37.9164         5.00238         72.8014 
        2.63849         37.4813         4.94515         72.2958 
        2.65073         37.0975         4.88887         71.7531 
        2.66302         36.5632         4.83327          71.229 
         2.6753         36.1504         4.77856         70.7273 
        2.68756          35.723         4.72482         70.1897 
        2.69983         35.4893         4.67186         69.7309 
        2.71213         35.1194         4.61961          69.247 
        2.72441         34.7506         4.56824         68.7335 
        2.73665         34.3083         4.51779         68.2352 
         2.7489         34.2318         4.46812         67.7567 
        2.76118         33.7011         4.41904         67.2919 
        2.77349         33.5128         4.37059         66.8091 
        2.78576         33.2479         4.32306          66.314 
        2.79802         32.8005         4.27625         65.9022 
        2.81031         32.4601         4.23003         65.4228 
        2.82259         32.3724         4.18452         64.9407 
        2.83483         31.9407         4.13984         64.5156 
         2.8471         31.5892         4.09573         64.0712 
         2.8594         31.4555         4.05213         63.6121 
         2.8717         31.2151         4.00918         63.1808 
        2.88396         30.8976         3.96701          62.731 
        2.89619         30.6879         3.92552          62.274 
        2.90847         30.4562         3.88447         61.8587 
        2.92072         30.2006         3.84408         61.4464 
        2.93299         30.0289         3.80424         61.0243 
        2.94526         29.7647         3.76493         60.6212 
        2.95753         29.6005         3.72618         60.2105 
        2.96982         29.5032         3.68792         59.7979 
        2.98209         29.1876         3.65027            59.4 
        2.99436         29.0414         3.61312         58.9768 
        3.00666         28.9229         3.57642         58.5935 
        3.01894          28.697          3.5403         58.1856 
        3.03119         28.5655         3.50473         57.8064 
        3.04345         28.3862         3.46965         57.4448 
        3.05573         28.2842         3.43497         57.0631 
          3.068         28.2274         3.40081         56.6789 
        3.08026         28.0337         3.36715         56.2973 
        3.09254         27.9252         3.33388         55.9256 
        3.10483         27.9328         3.30105         55.5659 
         3.1171          27.785         3.26872         55.2036 
        3.12933         27.7475          3.2369         54.8317 
        3.14159         27.6019         3.20544         54.4643 
