# k  (h/Mpc)    Pcb(k)  (Mpc/h)^3    Pcb_linear(k) (Mpc/h)^3    Pcb_NL(k) (Mpc/h)^3   ShotnoiseSubtracted = false
      0.0156606         3386.27         3389.21         3372.13 
      0.0273761         2939.83         2932.54          2923.5 
      0.0384619            2234         2210.08         2206.36 
      0.0498308         1749.56          1738.7         1736.31 
      0.0625568         1476.14         1477.86         1474.47 
      0.0751274         1280.33         1255.69         1249.77 
      0.0867833         1013.78         1011.01         1010.14 
      0.0984825         823.749         800.111         803.744 
       0.111151          690.63         668.093         671.664 
       0.123864         620.433         602.097         604.906 
       0.135742           557.8         541.442         544.268 
        0.14762         474.262         462.964         469.613 
       0.160083         393.736          385.91         393.463 
       0.172465         347.523         336.828         345.942 
       0.184281         322.168         310.517         320.204 
       0.196406         293.792         286.762         294.276 
       0.209011         265.328         255.146         263.619 
       0.221538          236.15         222.974         234.821 
       0.233611         213.347         199.504         212.685 
       0.245665         200.449         184.135         195.871 
       0.258103         180.932         171.415         183.106 
       0.270422         169.745          157.51         168.904 
       0.282519         154.085          142.95         155.066 
       0.294636         147.715         130.243         143.025 
       0.306978         130.495         120.497         133.725 
       0.319417         124.639         112.658         125.434 
        0.33169         115.926         105.154         117.501 
       0.343948          110.25         97.4313         110.064 
       0.356249         101.372         90.1889         103.887 
       0.368458         96.9263         84.1227         96.8684 
        0.38068         91.0599         79.0496         91.6757 
       0.392856         85.0166         74.4187         87.1428 
       0.405069         80.5311         69.8906         82.3379 
       0.417459         75.6945         65.5061         77.9294 
       0.429752          72.563         61.5703         74.0375 
       0.441978         69.1743         58.1159         70.9992 
       0.454294          64.347          54.979         67.2133 
        0.46658         63.9988         52.0358         64.2579 
       0.478753         59.5152         49.2591         61.5161 
       0.490964         57.5633          46.651         59.0161 
       0.503334         55.1743         44.2436         56.3529 
       0.515665         52.5902         42.0484         54.5471 
       0.527909         50.3671         40.0218         51.6956 
       0.540159         48.3908         38.1046         49.8214 
        0.55248         45.3501         36.2854         47.7891 
       0.564743         44.6834         34.6008          46.239 
        0.57686         43.2391         33.0526         44.5396 
       0.589077         40.8014         31.5912          43.144 
       0.601441         39.4695         30.2015         41.6367 
        0.61382         38.1537         28.8912           40.04 
       0.626067         36.6063         27.6686          38.867 
       0.638306         35.4475         26.5172         37.4902 
       0.650632         34.4169         25.4263         36.2753 
       0.662899         33.1376         24.4041         35.0779 
       0.675076           31.66         23.4461         34.0068 
       0.687267         31.2555         22.5383         32.9528 
       0.699615           30.15         21.6672         32.1009 
       0.711937         28.7056         20.8437         31.0245 
       0.724148         28.5719           20.07          30.317 
       0.736433         26.9188         19.3318         29.3793 
       0.748747         26.5064         18.6296          28.581 
       0.761037         25.8088          17.964         27.8741 
       0.773197         25.0221         17.3378         27.1904 
       0.785376         24.0569         16.7407          26.478 
       0.797761         23.6099         16.1625         25.8275 
       0.810096         23.0765         15.6139         25.1922 
       0.822371         22.4501         15.0935          24.494 
       0.834626         21.7606         14.5977         24.0128 
       0.846916         21.1369          14.123         23.4022 
       0.859215         20.3976         13.6693         22.8683 
       0.871383         20.0632         13.2401         22.4082 
        0.88363         19.5425         12.8269         21.9122 
       0.895928          19.146         12.4298         21.3609 
       0.908253         18.6979         12.0489         20.9682 
       0.920535         18.1879         11.6853         20.4906 
       0.932774         17.9015          11.338         20.0153 
        0.94508         17.3658         11.0032         19.6283 
       0.957324         17.0468         10.6836         19.2573 
        0.96953         16.4944         10.3778         18.8428 
       0.981769         16.3526         10.0832          18.503 
       0.994071         15.8892         9.79865         18.1163 
         1.0064         15.4503         9.52468         17.7907 
        1.01868         15.1529         9.26203         17.4711 
        1.03092         14.9669          9.0105         17.1222 
         1.0432         14.4433         8.76745         16.7855 
        1.05553         14.2168         8.53246         16.5622 
        1.06777         13.8042         8.30782         16.1959 
           1.08         13.5572         8.09153         15.9342 
        1.09227         13.3021         7.88228         15.6795 
         1.1046         13.0892         7.67967         15.3722 
         1.1169         12.7348         7.48458         15.1097 
        1.12915         12.6817         7.29725         14.9068 
        1.14142         12.1996         7.11597         14.6313 
        1.15365          12.105         6.94141         14.3922 
        1.16585          11.955         6.77319          14.196 
        1.17807         11.5965         6.61036         13.9208 
        1.19037         11.4387         6.45184         13.7424 
        1.20276         11.1918         6.29745         13.5111 
        1.21504         11.0373         6.14936         13.3282 
        1.22728          10.756         6.00666          13.107 
        1.23954         10.6068         5.86816         12.9278 
        1.25184         10.4009         5.73378         12.7394 
        1.26414         10.2612         5.60356         12.5305 
        1.27632         10.0122         5.47857         12.3556 
         1.2886         9.90714         5.35652         12.1918 
        1.30093          9.7001         5.23777         12.0622 
        1.31316          9.5327         5.12349          11.858 
        1.32541         9.38896         5.01262         11.7333 
        1.33772         9.20802         4.90441         11.5466 
        1.35005         9.10294         4.79934         11.4085 
        1.36225         8.92787         4.69843         11.2376 
        1.37447         8.77957         4.60023          11.105 
        1.38676         8.63725         4.50439         10.9721 
        1.39907         8.48425         4.41114         10.8246 
        1.41133         8.36615         4.32093         10.6919 
        1.42358         8.20328         4.23333         10.5466 
        1.43591          8.1183         4.14757         10.4421 
        1.44818         7.94366         4.06466         10.3105 
        1.46037         7.84642         3.98452         10.1727 
        1.47263         7.71946          3.9061         10.0718 
        1.48494         7.64774         3.82949         9.92739 
        1.49724         7.49771           3.755         9.83082 
        1.50952          7.4617         3.68265         9.72066 
        1.52178         7.30073         3.61231         9.60038 
        1.53409         7.16873         3.54353         9.48708 
        1.54637         7.10499         3.47669         9.36918 
        1.55858         7.02483         3.41196         9.27383 
        1.57081         6.86035         3.34878         9.18766 
        1.58313         6.81254         3.28682         9.08225 
        1.59544         6.67209         3.22645         8.99278 
        1.60767         6.60468           3.168         8.88503 
        1.61994         6.50977         3.11079         8.80492 
        1.63225         6.41771         3.05488          8.7108 
        1.64452         6.31384          3.0005          8.6203 
        1.65676         6.23101         2.94761         8.53134 
          1.669         6.18508         2.89596         8.44112 
        1.68133         6.04492         2.84523         8.35339 
        1.69363         5.99191         2.79585         8.28086 
        1.70585         5.90969         2.74797         8.19356 
        1.71809         5.84247         2.70112         8.11803 
        1.73038         5.78339          2.6552         8.04153 
        1.74268         5.69876         2.61033         7.96487 
        1.75493         5.61384         2.56671         7.87464 
        1.76714          5.5887         2.52419         7.81265 
        1.77942         5.49753         2.48242         7.72974 
        1.79173          5.4202         2.44149         7.65773 
        1.80402         5.37272         2.40157         7.58978 
         1.8163         5.31489         2.36256         7.52923 
         1.8286         5.22863         2.32436         7.46072 
         1.8409         5.16035         2.28703         7.39915 
        1.85315         5.10291         2.25065         7.32045 
        1.86537         5.06671         2.21513         7.26153 
        1.87765         4.99007         2.18025         7.19371 
        1.88995         4.91121         2.14604         7.13772 
        1.90221         4.87373         2.11268         7.06801 
        1.91445         4.81151         2.08008         7.02387 
        1.92674         4.77574         2.04806         6.94922 
        1.93902          4.7143         2.01672         6.89486 
        1.95124         4.65666         1.98619         6.82885 
         1.9635         4.61887         1.95622         6.78419 
        1.97583         4.56402         1.92668         6.72498 
        1.98812         4.50376         1.89787         6.66009 
        2.00039         4.45623          1.8697          6.6185 
        2.01264         4.41405         1.84212         6.56665 
        2.02492         4.37124         1.81507          6.5101 
        2.03717          4.3176          1.7886         6.45777 
        2.04942          4.2559          1.7627         6.41305 
        2.06171         4.22252         1.73722         6.36005 
        2.07397         4.18575          1.7123         6.30947 
        2.08629           4.142         1.68777         6.26446 
        2.09857         4.09244         1.66377         6.21441 
        2.11081         4.05184         1.64035         6.17265 
        2.12309         4.00969         1.61731         6.11678 
        2.13538         3.97003         1.59469         6.08025 
        2.14763         3.93543         1.57257         6.03232 
        2.15986         3.90389         1.55093         5.98882 
        2.17214         3.85545          1.5296         5.93759 
        2.18443         3.82713         1.50866         5.89754 
        2.19671         3.77654         1.48813          5.8557 
        2.20898         3.74494         1.46801         5.81648 
        2.22126         3.71561         1.44824         5.77188 
        2.23354         3.67339         1.42884         5.72754 
         2.2458         3.64933         1.40984         5.68484 
        2.25807         3.61179         1.39116          5.6506 
        2.27035         3.57614          1.3728         5.61407 
        2.28263         3.54521         1.35478         5.57275 
         2.2949         3.51552          1.3371         5.53875 
        2.30718         3.48343         1.31972         5.50753 
        2.31946         3.45815         1.30265         5.46856 
        2.33169         3.42147         1.28595          5.4265 
        2.34393         3.40556         1.26952         5.39083 
        2.35622         3.37753         1.25332         5.35278 
        2.36847          3.3401         1.23745          5.3181 
        2.38076         3.32167         1.22181         5.28168 
        2.39305         3.28139         1.20644         5.24433 
        2.40534         3.25897         1.19134         5.21199 
        2.41762         3.21932          1.1765          5.1844 
        2.42989         3.20868         1.16193         5.14837 
        2.44216         3.19058         1.14761         5.11775 
         2.4544         3.15241         1.13357         5.08312 
        2.46667         3.13589         1.11973         5.05198 
        2.47897         3.10533         1.10608         5.01938 
        2.49124         3.07766          1.0927         4.98767 
        2.50349         3.06533         1.07957         4.96054 
        2.51578         3.02946         1.06661         4.92692 
        2.52805         3.01419         1.05388         4.89671 
        2.54029         2.99465         1.04139         4.86759 
        2.55257         2.97705         1.02907         4.84013 
        2.56487         2.95166         1.01693         4.80611 
        2.57716         2.94406           1.005         4.77807 
        2.58942         2.90864        0.993281         4.75092 
        2.60167          2.8934        0.981765         4.72066 
        2.61395         2.86507        0.970415         4.69505 
        2.62624          2.8644        0.959228         4.66939 
        2.63849          2.8353        0.948253         4.63811 
        2.65073         2.81642        0.937461          4.6105 
        2.66302         2.80182        0.926799         4.58494 
         2.6753         2.79147        0.916309          4.5586 
        2.68756         2.76233        0.906003         4.53418 
        2.69983         2.75005        0.895849         4.50507 
        2.71213         2.74398        0.885828         4.47939 
        2.72441         2.72651        0.875979         4.45498 
        2.73665         2.70871        0.866304         4.42929 
         2.7489         2.68838         0.85678         4.40758 
        2.76118         2.67565         0.84737         4.38727 
        2.77349         2.67251        0.838079         4.35839 
        2.78576         2.65675        0.828964         4.33375 
        2.79802         2.64956        0.819989         4.31195 
        2.81031         2.63036        0.811126         4.28718 
        2.82259         2.61844        0.802398         4.26342 
        2.83483         2.61488        0.793831         4.24131 
         2.8471         2.59898        0.785373          4.2184 
         2.8594         2.59167        0.777012         4.19762 
         2.8717         2.57998        0.768776         4.17296 
        2.88396         2.57379         0.76069         4.14936 
        2.89619         2.55175        0.752735          4.1293 
        2.90847         2.55096        0.744863          4.1042 
        2.92072         2.54862        0.737117         4.08456 
        2.93299         2.54146        0.729478         4.06341 
        2.94526         2.54095         0.72194         4.04272 
        2.95753         2.52247        0.714511         4.02186 
        2.96982         2.51497        0.707174         4.00077 
        2.98209          2.5179        0.699955         3.98112 
        2.99436         2.50806         0.69283         3.96029 
        3.00666         2.51483        0.685793         3.94084 
        3.01894         2.50499        0.678867         3.91739 
        3.03119         2.50837        0.672046         3.89843 
        3.04345         2.50109        0.665319         3.88121 
        3.05573         2.50139         0.65867         3.86148 
          3.068          2.5016        0.652119         3.84272 
        3.08026         2.50702        0.645665         3.82289 
        3.09254         2.50337        0.639285         3.80275 
        3.10483         2.50641        0.632991         3.78496 
         3.1171         2.50694        0.626789         3.76764 
        3.12933         2.51336        0.620688         3.74777 
        3.14159         2.50953        0.614655         3.72725 
