# k  (h/Mpc)    Pcb(k)  (Mpc/h)^3    Pcb_linear(k) (Mpc/h)^3    Pcb_NL(k) (Mpc/h)^3   ShotnoiseSubtracted = false
      0.0156606         2818.01         2820.08         2806.17 
      0.0273761          2448.1         2440.23         2433.38 
      0.0384619          1860.3          1839.1         1836.75 
      0.0498308            1458         1446.86         1445.64 
      0.0625568         1230.16         1229.81          1227.6 
      0.0751274         1064.91         1044.93         1040.85 
      0.0867833         844.534         841.325         840.797 
      0.0984825         684.716         665.822         668.461 
       0.111151         573.628         555.963         558.527 
       0.123864         515.282         501.044         502.982 
       0.135742         463.027         450.569         452.487 
        0.14762         393.483         385.262         389.825 
       0.160083         326.733         321.141         326.347 
       0.172465         287.984         280.296         286.545 
       0.184281         266.978         258.401         265.036 
       0.196406           243.5         238.634         243.736 
       0.209011         219.511         212.324         218.117 
       0.221538         195.016         185.552         193.661 
       0.233611         175.825         166.021          175.03 
       0.245665         165.127         153.231         161.242 
       0.258103         148.872         142.645         150.622 
       0.270422         139.741         131.075          138.82 
       0.282519         126.799         118.958          127.23 
       0.294636         120.931         108.384         117.107 
       0.306978         106.987         100.273         109.288 
       0.319417         102.087         93.7499         102.468 
        0.33169         94.9037         87.5056           95.93 
       0.343948         90.0944         81.0791         89.6456 
       0.356249         82.6932         75.0521         84.4325 
       0.368458         78.9123         70.0041         78.6543 
        0.38068         73.9946         65.7824         74.3605 
       0.392856          69.158         61.9288          70.581 
       0.405069         65.4405         58.1606         66.5621 
       0.417459         61.2819          54.512         62.9743 
       0.429752         58.6893         51.2368         59.7046 
       0.441978         55.8857         48.3621         57.1466 
       0.454294          51.999         45.7517          54.083 
        0.46658         51.5507         43.3024         51.5946 
       0.478753         47.9387         40.9918         49.3059 
       0.490964         46.3086         38.8214         47.2696 
       0.503334         44.3679          36.818         45.0305 
       0.515665          42.154         34.9912         43.5033 
       0.527909         40.3377         33.3048         41.2183 
       0.540159         38.6644         31.7094         39.6313 
        0.55248         36.1571         30.1955         37.9563 
       0.564743         35.6604         28.7937         36.6945 
        0.57686         34.4624         27.5053         35.2876 
       0.589077         32.4582         26.2891         34.1366 
       0.601441         31.3221         25.1327         32.8874 
        0.61382         30.2329         24.0423         31.5818 
       0.626067         29.0125         23.0249         30.5976 
       0.638306         28.0531         22.0667         29.4716 
       0.650632         27.2716         21.1589         28.5266 
       0.662899         26.1179         20.3083          27.531 
       0.675076         24.9269          19.511         26.6465 
       0.687267          24.561         18.7556         25.7724 
       0.699615         23.7153         18.0307         25.0472 
       0.711937         22.5218         17.3455         24.2261 
       0.724148         22.3995         16.7016         23.6018 
       0.736433          21.099         16.0873         22.8442 
       0.748747         20.7194         15.5029          22.213 
       0.761037         20.1977          14.949         21.6256 
       0.773197         19.4963         14.4279         21.0609 
       0.785376         18.7558          13.931         20.4878 
       0.797761         18.3463         13.4499         19.9343 
       0.810096         17.9198         12.9934         19.4507 
       0.822371         17.4237         12.5603         18.8785 
       0.834626          16.873         12.1477          18.468 
       0.846916         16.3574         11.7527         17.9854 
       0.859215          15.765         11.3751         17.5602 
       0.871383         15.4763         11.0179         17.1816 
        0.88363           15.07         10.6741         16.7653 
       0.895928         14.7743         10.3437          16.335 
       0.908253         14.3923         10.0267         15.9995 
       0.920535         13.9624         9.72412         15.6175 
       0.932774         13.7414         9.43514         15.2209 
        0.94508         13.2896         9.15652         14.9332 
       0.957324          13.043         8.89057          14.639 
        0.96953         12.5885         8.63603         14.3064 
       0.981769         12.4822         8.39087         14.0102 
       0.994071         12.1374         8.15411         13.7128 
         1.0064         11.7601         7.92612         13.4481 
        1.01868         11.5352         7.70755         13.1857 
        1.03092         11.3532         7.49824          12.907 
         1.0432         10.9409         7.29598         12.6476 
        1.05553         10.7686         7.10043           12.45 
        1.06777         10.4538         6.91349         12.1804 
           1.08         10.2677          6.7335         11.9638 
        1.09227          10.061         6.55937          11.746 
         1.1046         9.87667         6.39077         11.5079 
         1.1169         9.57241         6.22842         11.3014 
        1.12915         9.54742         6.07253         11.1461 
        1.14142          9.1783         5.92167         10.9197 
        1.15365         9.07873         5.77641         10.7281 
        1.16585         8.96172         5.63642         10.5729 
        1.17807         8.69538         5.50092         10.3603 
        1.19037         8.54901           5.369         10.2015 
        1.20276         8.34482         5.24053         10.0217 
        1.21504         8.22782         5.11729         9.87669 
        1.22728         8.01537         4.99854          9.6993 
        1.23954         7.89518         4.88329         9.56784 
        1.25184          7.7303         4.77146         9.40995 
        1.26414         7.63189          4.6631         9.24579 
        1.27632         7.41993         4.55908         9.11443 
         1.2886         7.33522         4.45752         8.97902 
        1.30093         7.18729          4.3587         8.87268 
        1.31316         7.03113          4.2636         8.71868 
        1.32541         6.92738         4.17133           8.614 
        1.33772         6.79348         4.08129         8.46635 
        1.35005         6.70741         3.99385         8.35744 
        1.36225         6.57227         3.90987         8.22245 
        1.37447          6.4584         3.82816         8.12411 
        1.38676         6.33914         3.74841         8.01489 
        1.39907         6.22311          3.6708           7.904 
        1.41133         6.13419         3.59573         7.79513 
        1.42358         6.01061         3.52284         7.68501 
        1.43591         5.94668         3.45147         7.59981 
        1.44818         5.80272         3.38248         7.49539 
        1.46037         5.70925         3.31578         7.39347 
        1.47263         5.62726         3.25052         7.30801 
        1.48494         5.56687         3.18677         7.20525 
        1.49724         5.45851         3.12478         7.11964 
        1.50952         5.42859         3.06458         7.03487 
        1.52178          5.3025         3.00604         6.94662 
        1.53409         5.20135         2.94881         6.85223 
        1.54637         5.14275         2.89319         6.77015 
        1.55858         5.07728         2.83932         6.68445 
        1.57081         4.96686         2.78674          6.6238 
        1.58313         4.91301         2.73518         6.53816 
        1.59544         4.82012         2.68495         6.47025 
        1.60767         4.76943          2.6363         6.38687 
        1.61994          4.6922         2.58869         6.32519 
        1.63225         4.61229         2.54217         6.24982 
        1.64452          4.5354         2.49691         6.17693 
        1.65676         4.47275          2.4529         6.11147 
          1.669         4.43478         2.40992         6.04489 
        1.68133         4.32334          2.3677         5.97833 
        1.69363         4.30108         2.32662         5.92165 
        1.70585          4.2357         2.28677         5.84988 
        1.71809         4.18914         2.24778         5.79485 
        1.73038         4.13065         2.20957         5.73087 
        1.74268         4.06424         2.17223         5.67361 
        1.75493         4.01097         2.13593         5.61016 
        1.76714         3.98022         2.10055         5.55405 
        1.77942         3.91392         2.06579         5.49719 
        1.79173         3.86064         2.03173         5.43758 
        1.80402          3.8139         1.99851         5.38673 
         1.8163         3.78122         1.96605          5.3401 
         1.8286         3.71758         1.93425         5.29019 
         1.8409         3.65823         1.90319         5.24056 
        1.85315         3.62079         1.87292         5.17771 
        1.86537         3.59033         1.84336          5.1374 
        1.87765         3.52702         1.81433         5.08377 
        1.88995         3.47946         1.78586         5.04133 
        1.90221         3.43978          1.7581         4.99069 
        1.91445         3.40284         1.73098          4.9563 
        1.92674         3.37705         1.70433         4.89864 
        1.93902         3.31849         1.67824         4.85157 
        1.95124         3.27813         1.65284         4.81073 
         1.9635         3.25797          1.6279         4.77091 
        1.97583         3.20257         1.60332         4.72968 
        1.98812         3.16106         1.57934         4.68435 
        2.00039         3.12934          1.5559          4.6443 
        2.01264         3.09061         1.53295         4.61112 
        2.02492         3.05984         1.51044          4.5692 
        2.03717         3.02076         1.48842         4.52711 
        2.04942         2.98199         1.46686         4.49079 
        2.06171         2.94822         1.44566         4.45018 
        2.07397         2.92207         1.42492         4.41327 
        2.08629         2.89455          1.4045         4.38189 
        2.09857          2.8592         1.38454         4.34267 
        2.11081         2.82156         1.36504         4.30785 
        2.12309          2.7997         1.34587         4.27244 
        2.13538         2.76436         1.32705         4.24168 
        2.14763         2.74643         1.30864         4.20483 
        2.15986         2.71894         1.29063          4.1749 
        2.17214         2.67481         1.27288          4.1345 
        2.18443         2.66208         1.25546         4.10396 
        2.19671         2.62397         1.23837         4.07296 
        2.20898         2.60091         1.22163         4.04458 
        2.22126         2.58032         1.20518         4.01317 
        2.23354          2.5473         1.18904         3.98124 
         2.2458         2.53441         1.17322         3.94682 
        2.25807         2.50019         1.15767         3.92157 
        2.27035         2.47369          1.1424         3.89467 
        2.28263         2.44838          1.1274         3.86457 
         2.2949         2.43216         1.11269         3.83802 
        2.30718         2.40711         1.09823         3.81276 
        2.31946         2.38145         1.08402         3.78438 
        2.33169         2.36125         1.07012         3.75536 
        2.34393         2.34945         1.05645         3.72858 
        2.35622         2.32363         1.04297         3.70146 
        2.36847         2.29702         1.02977         3.67411 
        2.38076         2.28035         1.01675         3.64754 
        2.39305          2.2559         1.00396         3.61996 
        2.40534         2.23695        0.991395         3.59815 
        2.41762         2.21079        0.979044         3.57624 
        2.42989         2.19861        0.966921         3.54888 
        2.44216         2.18468        0.955006         3.52668 
         2.4544         2.16206        0.943318         3.50392 
        2.46667          2.1449          0.9318         3.48004 
        2.47897         2.12819        0.920446         3.45562 
        2.49124         2.10663        0.909312          3.4334 
        2.50349         2.09454         0.89838         3.41017 
        2.51578         2.07251        0.887594         3.38485 
        2.52805         2.05452        0.877004          3.3644 
        2.54029         2.04455        0.866614         3.34279 
        2.55257          2.0257         0.85636         3.32138 
        2.56487         2.01147        0.846253         3.29916 
        2.57716         2.00404        0.836324         3.27821 
        2.58942         1.98224        0.826575         3.25787 
        2.60167         1.96976        0.816992         3.23578 
        2.61395         1.94622        0.807547         3.21834 
        2.62624         1.94247        0.798237         3.19783 
        2.63849         1.92762        0.789104         3.17593 
        2.65073         1.91142        0.780124         3.15649 
        2.66302         1.89763        0.771251         3.13839 
         2.6753          1.8968        0.762522         3.11912 
        2.68756         1.87259        0.753945          3.1005 
        2.69983         1.86133        0.745495         3.08023 
        2.71213         1.85554        0.737157         3.06201 
        2.72441         1.84259        0.728961         3.04389 
        2.73665         1.82752        0.720909         3.02739 
         2.7489         1.81646        0.712983          3.0114 
        2.76118         1.80712        0.705153         2.99331 
        2.77349         1.80393        0.697421         2.97525 
        2.78576         1.79333        0.689836         2.95732 
        2.79802         1.78489        0.682367         2.94011 
        2.81031         1.76888        0.674992         2.92227 
        2.82259         1.76187        0.667729         2.90513 
        2.83483         1.75739          0.6606         2.88988 
         2.8471         1.74786        0.653561         2.87333 
         2.8594         1.73873        0.646604         2.85778 
         2.8717         1.73121         0.63975          2.8418 
        2.88396         1.72799        0.633021         2.82496 
        2.89619         1.71359        0.626401         2.80889 
        2.90847         1.71044         0.61985         2.79226 
        2.92072         1.70508        0.613404         2.77818 
        2.93299         1.70379        0.607047         2.76306 
        2.94526         1.69656        0.600775         2.74847 
        2.95753         1.68725        0.594592         2.73336 
        2.96982         1.68558        0.588487         2.71807 
        2.98209         1.68524        0.582479         2.70453 
        2.99436         1.67766         0.57655         2.69005 
        3.00666         1.68104        0.570694         2.67597 
        3.01894         1.67355         0.56493         2.66012 
        3.03119         1.67407        0.559254         2.64629 
        3.04345         1.67084        0.553656          2.6338 
        3.05573         1.66906        0.548123         2.62044 
          3.068         1.66973        0.542672         2.60665 
        3.08026         1.66614          0.5373         2.59183 
        3.09254          1.6705        0.531992         2.57801 
        3.10483         1.67063        0.526754         2.56573 
         3.1171         1.67052        0.521593          2.5531 
        3.12933         1.67165        0.516516         2.53924 
        3.14159         1.67178        0.511496         2.52556 
