# k  (h/Mpc)    Pcb(k)  (Mpc/h)^3    Pcb_linear(k) (Mpc/h)^3    Pcb_NL(k) (Mpc/h)^3   ShotnoiseSubtracted = false
      0.0156606         23266.9         23403.6           23213 
      0.0273761           19925         20233.1         19999.4 
      0.0384619         15057.7         15242.5         15033.1 
      0.0498308         11619.2         11988.8         11777.5 
      0.0625568         9818.68         10188.8         10001.6 
      0.0751274         8755.11         8656.31          8394.2 
      0.0867833         6775.48         6969.21          6887.4 
      0.0984825         5740.85         5515.19         5585.56 
       0.111151         4918.79         4605.05         4694.63 
       0.123864         4405.12         4150.06          4222.3 
       0.135742         4021.76         3731.92         3804.12 
        0.14762         3506.23         3190.97         3381.46 
       0.160083         2989.16         2659.85         2896.15 
       0.172465          2665.9         2321.53         2622.75 
       0.184281         2411.25         2140.17         2441.15 
       0.196406         2284.19         1976.44            2251 
       0.209011         2142.14         1758.53         2042.33 
       0.221538         1927.07         1536.78         1911.21 
       0.233611         1853.94         1375.02         1794.53 
       0.245665         1678.53         1269.09         1659.03 
       0.258103         1669.36         1181.41         1567.69 
       0.270422         1488.86         1085.58         1474.78 
       0.282519         1410.65         985.226         1399.85 
       0.294636         1381.37         897.649         1327.81 
       0.306978         1266.85         830.476         1274.16 
       0.319417         1245.66         776.447         1201.94 
        0.33169         1169.85         724.729         1139.94 
       0.343948         1125.58         671.504         1105.85 
       0.356249         1069.61         621.587          1066.1 
       0.368458         1024.49         579.778         1021.11 
        0.38068         1011.73         544.814         983.611 
       0.392856         962.473         512.897         950.718 
       0.405069         911.339         481.689         919.328 
       0.417459         876.736         451.471         889.503 
       0.429752         876.345         424.345         858.807 
       0.441978         845.606         400.537         837.827 
       0.454294          809.81         378.917         804.604 
        0.46658         787.135         358.632         788.716 
       0.478753         773.504         339.495         765.705 
       0.490964         744.378          321.52         742.853 
       0.503334         713.626         304.928         727.235 
       0.515665         710.531         289.798         710.675 
       0.527909         680.632         275.831         696.839 
       0.540159         665.129         262.617         680.075 
        0.55248         651.532         250.079         662.853 
       0.564743         645.787         238.469         651.715 
        0.57686          625.96         227.799         635.019 
       0.589077         616.959         217.727         621.474 
       0.601441         600.779         208.149         609.861 
        0.61382         583.579         199.119         599.126 
       0.626067         578.055         190.692         588.553 
       0.638306         557.322         182.757         576.562 
       0.650632         552.202         175.238         563.697 
       0.662899         547.892         168.193         556.688 
       0.675076         531.511          161.59          549.64 
       0.687267         515.944         155.334         536.921 
       0.699615          515.56          149.33         528.462 
       0.711937         503.629         143.655         518.434 
       0.724148         487.933         138.323         511.896 
       0.736433         476.804         133.235         503.085 
       0.748747         470.864         128.395         494.417 
       0.761037         462.788         123.808         488.692 
       0.773197         455.081         119.492         480.399 
       0.785376         450.134         115.377         473.658 
       0.797761         436.727         111.392         467.076 
       0.810096         430.872         107.611         461.031 
       0.822371         420.621         104.024         453.683 
       0.834626         416.066         100.607          448.65 
       0.846916         410.623         97.3355         441.647 
       0.859215         404.722         94.2084         435.147 
       0.871383         396.161         91.2504         429.547 
        0.88363         390.836         88.4026         425.248 
       0.895928         386.018          85.666         418.742 
       0.908253          376.67         83.0408         411.811 
       0.920535         368.221          80.535         407.681 
       0.932774         363.457         78.1417         401.393 
        0.94508         357.954         75.8341         397.512 
       0.957324         353.424         73.6315         392.241 
        0.96953         349.056         71.5234         387.514 
       0.981769         341.031          69.493          383.19 
       0.994071          339.79         67.5322         378.603 
         1.0064         333.658         65.6439         373.122 
        1.01868          329.64         63.8338         368.454 
        1.03092          320.12         62.1002         365.267 
         1.0432         317.133         60.4251         360.861 
        1.05553         314.046         58.8056         355.871 
        1.06777         309.353         57.2574         351.782 
           1.08         302.438         55.7667         347.936 
        1.09227         302.103         54.3245         343.788 
         1.1046         295.788         52.9282         340.621 
         1.1169         289.954         51.5836         336.149 
        1.12915         285.632         50.2925         332.623 
        1.14142         279.912         49.0431         328.793 
        1.15365         276.772         47.8401         325.362 
        1.16585         272.333         46.6807         321.772 
        1.17807         269.689         45.5585          318.15 
        1.19037          264.45          44.466         315.467 
        1.20276         261.697         43.4019         311.376 
        1.21504         256.416         42.3813         307.871 
        1.22728         252.662         41.3978         304.717 
        1.23954         251.098         40.4432         301.452 
        1.25184         245.351         39.5171         298.311 
        1.26414         240.675         38.6196         295.507 
        1.27632         238.232         37.7582         292.747 
         1.2886         235.789          36.917         289.478 
        1.30093         230.908         36.0986         285.753 
        1.31316         226.124          35.311         283.161 
        1.32541         224.974         34.5469         280.013 
        1.33772         220.736         33.8011         277.551 
        1.35005         218.207          33.077         274.407 
        1.36225         214.121         32.3815         271.849 
        1.37447         210.668         31.7047         268.609 
        1.38676         208.696         31.0442         266.713 
        1.39907         205.659         30.4015         263.425 
        1.41133         201.716         29.7798         260.646 
        1.42358         199.207          29.176         258.207 
        1.43591         196.492          28.585         255.941 
        1.44818         192.747         28.0136         253.186 
        1.46037         191.225         27.4612         250.477 
        1.47263         187.567         26.9207         248.015 
        1.48494         186.179         26.3928         245.092 
        1.49724         182.626         25.8794         243.597 
        1.50952         179.596         25.3807         240.658 
        1.52178         177.243          24.896         238.409 
        1.53409         174.339          24.422         236.147 
        1.54637         171.532         23.9613           234.2 
        1.55858         169.709         23.5151         231.747 
        1.57081         166.783         23.0797         229.419 
        1.58313         164.737         22.6527           227.1 
        1.59544         161.664         22.2367         225.088 
        1.60767         160.231         21.8338         223.098 
        1.61994         157.473         21.4395           220.8 
        1.63225         154.919         21.0541         218.578 
        1.64452         152.475         20.6793         216.648 
        1.65676          150.63         20.3149         214.811 
          1.669         148.833         19.9589         212.605 
        1.68133         145.899         19.6092         210.662 
        1.69363         143.431          19.269         208.952 
        1.70585         141.256          18.939         206.958 
        1.71809         139.397          18.616         204.766 
        1.73038         137.459         18.2996         203.026 
        1.74268         136.275         17.9904         201.046 
        1.75493          133.43         17.6897         199.437 
        1.76714         132.602         17.3967          197.67 
        1.77942         129.896         17.1088         195.881 
        1.79173          128.14         16.8267         193.974 
        1.80402         126.244         16.5516         192.254 
         1.8163         124.112         16.2827         190.738 
         1.8286         122.348         16.0194         188.862 
         1.8409         120.754         15.7622         187.114 
        1.85315         118.571         15.5114         185.572 
        1.86537         117.279         15.2666          183.99 
        1.87765         115.837         15.0262         182.411 
        1.88995         113.838         14.7904         180.668 
        1.90221         112.389         14.5605         179.266 
        1.91445         110.655         14.3359         177.566 
        1.92674         108.825         14.1152         175.969 
        1.93902         107.595         13.8992         174.384 
        1.95124         106.076         13.6888         172.927 
         1.9635         104.355         13.4822         171.425 
        1.97583          102.78         13.2787         169.883 
        1.98812         101.303         13.0801         168.713 
        2.00039         100.176         12.8859          167.07 
        2.01264         98.9483         12.6959         165.692 
        2.02492         97.3657         12.5094         164.169 
        2.03717         96.0057          12.327         162.891 
        2.04942         94.7493         12.1485         161.473 
        2.06171         93.1662         11.9729         160.022 
        2.07397         91.9555         11.8011         158.827 
        2.08629         90.5683         11.6321         157.441 
        2.09857         89.5333         11.4667         156.189 
        2.11081          88.112         11.3052          154.75 
        2.12309         86.9945         11.1465         153.552 
        2.13538         85.5712         10.9906         152.225 
        2.14763         84.3423         10.8381         150.976 
        2.15986         83.4961          10.689         149.627 
        2.17214         82.2908          10.542         148.509 
        2.18443         81.3435         10.3976         147.412 
        2.19671         80.3055         10.2562          146.12 
        2.20898          79.142         10.1175         144.808 
        2.22126         78.0521         9.98126         143.753 
        2.23354         77.0403         9.84756         142.626 
         2.2458         75.5426         9.71655         141.389 
        2.25807         74.9183         9.58781         140.276 
        2.27035         73.8351         9.46129         139.146 
        2.28263         72.9215         9.33711         138.088 
         2.2949         71.5654         9.21523         136.997 
        2.30718         70.5424         9.09549         135.862 
        2.31946         69.8417         8.97781         134.703 
        2.33169         68.7599         8.86273         133.697 
        2.34393          68.099         8.74948          132.77 
        2.35622         67.0373         8.63786         131.618 
        2.36847         66.2459         8.52849         130.696 
        2.38076         65.0886         8.42069         129.577 
        2.39305          64.513         8.31479         128.663 
        2.40534          63.491          8.2107         127.591 
        2.41762         62.9152         8.10841         126.588 
        2.42989         61.8574         8.00801         125.654 
        2.44216         61.3223         7.90932         124.613 
         2.4544         60.4357         7.81253         123.724 
        2.46667         59.4843         7.71713          122.78 
        2.47897         59.0119          7.6231         121.753 
        2.49124         58.2324         7.53089         120.841 
        2.50349         57.1987         7.44035         119.955 
        2.51578          56.833         7.35102         119.126 
        2.52805         55.8704         7.26332         118.148 
        2.54029         55.3416         7.17726         117.259 
        2.55257         54.6602         7.09235         116.436 
        2.56487         54.2225         7.00864         115.567 
        2.57716         53.6223          6.9264         114.703 
        2.58942         52.7762         6.84567         113.865 
        2.60167         52.1847          6.7663         113.046 
        2.61395         51.7868         6.68807         112.182 
        2.62624         50.9864         6.61097         111.297 
        2.63849         50.4104         6.53533         110.534 
        2.65073         49.7121         6.46096         109.705 
        2.66302         49.3098         6.38747         108.925 
         2.6753         48.5986         6.31518          108.15 
        2.68756         48.2877         6.24415         107.334 
        2.69983         47.7073         6.17417         106.561 
        2.71213         47.1649         6.10511         105.803 
        2.72441         46.7184         6.03723         105.026 
        2.73665         46.1885         5.97055         104.305 
         2.7489         45.7168          5.9049         103.575 
        2.76118         45.2903         5.84005         102.802 
        2.77349         44.8235         5.77602         102.095 
        2.78576         44.3694          5.7132         101.355 
        2.79802         43.9901         5.65134         100.697 
        2.81031          43.476         5.59026          99.971 
        2.82259         43.0071         5.53011         99.2249 
        2.83483         42.5774         5.47106         98.5761 
         2.8471         42.1035         5.41277         97.8635 
         2.8594         41.7329         5.35515         97.1764 
         2.8717         41.4494         5.29838         96.5473 
        2.88396         41.0242         5.24266          95.877 
        2.89619          40.723         5.18783         95.1747 
        2.90847         40.3264         5.13358         94.4786 
        2.92072         39.9976         5.08019         93.9012 
        2.93299         39.7855         5.02754         93.2731 
        2.94526         39.4315         4.97559         92.6076 
        2.95753         39.1677         4.92439         91.9732 
        2.96982         38.7484         4.87383         91.3694 
        2.98209         38.5481         4.82407         90.7457 
        2.99436         38.3375         4.77497         90.1049 
        3.00666         38.1229         4.72647         89.5002 
        3.01894         37.9023         4.67873         88.9092 
        3.03119          37.625         4.63173         88.3423 
        3.04345         37.3691         4.58536         87.7632 
        3.05573         37.3561         4.53954         87.1668 
          3.068         37.0552         4.49439         86.5956 
        3.08026          36.854          4.4499         86.0184 
        3.09254          36.825         4.40594          85.459 
        3.10483         36.7269         4.36255         84.9017 
         3.1171         36.5704         4.31982         84.3336 
        3.12933         36.3309         4.27777         83.7736 
        3.14159         36.3122         4.23619         83.2204 
