# k  (h/Mpc)    P(k)  (Mpc/h)^3    P_linear(k)  (Mpc/h)^3     P_NL(k)  ShotnoiseSubtracted = false
      0.0156606         6689.37         6702.02         6664.97 
      0.0273761         5780.17         5788.42         5762.74 
      0.0384619         4387.36         4358.65         4342.65 
      0.0498308         3422.01         3427.32         3413.53 
      0.0625568         2886.79          2912.2            2898 
      0.0751274         2524.75         2473.91         2451.97 
      0.0867833         1985.11         1991.62         1986.97 
      0.0984825         1629.66         1576.02         1586.69 
       0.111151         1372.16         1315.89         1326.81 
       0.123864         1232.62         1185.84         1194.99 
       0.135742          1111.3         1066.35         1075.75 
        0.14762         949.239         911.762         934.413 
       0.160083         788.776         759.994         785.883 
       0.172465         700.096         663.321         695.155 
       0.184281          647.64         611.498         645.085 
       0.196406         591.847         564.712         591.627 
       0.209011         539.407         502.446         532.002 
       0.221538         483.794         439.087         480.402 
       0.233611         442.647         392.867         439.097 
       0.245665         414.226           362.6         403.967 
       0.258103         380.149         337.548          378.73 
       0.270422         352.934         310.167         350.859 
       0.282519         321.818         281.493         324.293 
       0.294636         315.041          256.47         301.592 
       0.306978         278.393         237.278          284.17 
       0.319417          266.76         221.841         266.907 
        0.33169         249.342         207.064         250.573 
       0.343948         237.981         191.857          237.33 
       0.356249          220.98         177.595         225.479 
       0.368458         212.955         165.649         211.398 
        0.38068         201.895          155.66          200.86 
       0.392856         188.354         146.541         191.849 
       0.405069         179.815         137.624          183.13 
       0.417459         171.024         128.991         173.281 
       0.429752         164.488          121.24         165.924 
       0.441978         158.068         114.438         160.037 
       0.454294         147.141         108.261         151.912 
        0.46658         147.353         102.465         146.486 
       0.478753         138.188         96.9971         140.919 
       0.490964          133.98          91.861         135.457 
       0.503334          127.65          87.121         130.624 
       0.515665         123.866         82.7983          127.08 
       0.527909         119.768         78.8077         121.226 
       0.540159         115.666          75.032         117.569 
        0.55248         111.192         71.4497         113.374 
       0.564743         108.242         68.1329         110.204 
        0.57686         104.862         65.0843         106.526 
       0.589077         99.9906         62.2065         103.773 
       0.601441         97.6593           59.47         100.824 
        0.61382         95.6084         56.8899         97.5562 
       0.626067         91.7199         54.4824         95.0125 
       0.638306         88.7738         52.2152         92.4422 
       0.650632         85.6048         50.0671         89.1778 
       0.662899         84.9441         48.0542         86.9836 
       0.675076         81.7877         46.1677          84.794 
       0.687267         80.1741         44.3801         82.6339 
       0.699615         77.5275         42.6649         80.9322 
       0.711937         74.9884         41.0434         78.4366 
       0.724148         74.4332         39.5199         77.2897 
       0.736433         71.0266         38.0663         75.1166 
       0.748747           69.89         36.6836         73.3838 
       0.761037         68.1527         35.3729         71.6379 
       0.773197         66.6691         34.1398         70.6246 
       0.785376          64.814         32.9641         68.7898 
       0.797761         64.2289         31.8256         67.6156 
       0.810096         62.1167         30.7453         66.0319 
       0.822371         60.9327         29.7205         64.6364 
       0.834626         59.4378         28.7442          63.564 
       0.846916         58.3501         27.8095         62.3163 
       0.859215         56.9174         26.9161         60.9941 
       0.871383         56.1682          26.071         59.9523 
        0.88363         54.6498         25.2573         59.0487 
       0.895928         53.4395         24.4755         57.8789 
       0.908253         52.2373         23.7254         56.9279 
       0.920535         51.8249         23.0095          55.918 
       0.932774          50.827         22.3257         54.9625 
        0.94508         50.0316         21.6664         53.8954 
       0.957324          48.764         21.0371         53.1453 
        0.96953         48.4883         20.4348         52.1571 
       0.981769         46.9918         19.8547         51.4898 
       0.994071          46.358         19.2945         50.6909 
         1.0064         45.3563          18.755         49.8718 
        1.01868         44.5464         18.2378         49.1707 
        1.03092          43.986         17.7425         48.3921 
         1.0432         43.1839         17.2639         47.5502 
        1.05553         42.1837         16.8012         47.1789 
        1.06777         41.5589         16.3589          46.356 
           1.08         40.5755          15.933         45.6577 
        1.09227         40.1527         15.5209          45.074 
         1.1046         39.5626          15.122         44.3891 
         1.1169         39.0697         14.7378         43.7664 
        1.12915         38.3949          14.369           43.24 
        1.14142         37.5983          14.012         42.6662 
        1.15365         37.1113         13.6683          42.153 
        1.16585         36.5501          13.337         41.5502 
        1.17807           35.93         13.0164         40.9474 
        1.19037         35.7704         12.7043         40.6072 
        1.20276         35.1963         12.4003         40.0594 
        1.21504         34.5681         12.1087         39.6327 
        1.22728         33.9678         11.8277         39.1146 
        1.23954         33.5872          11.555         38.5511 
        1.25184         32.9777         11.2903         38.1761 
        1.26414          32.563         11.0339          37.671 
        1.27632         32.2701         10.7878         37.2563 
         1.2886         31.9181         10.5475         36.8592 
        1.30093         31.2747         10.3137         36.4061 
        1.31316         30.8477         10.0886         36.0447 
        1.32541         30.5938         9.87031         35.6512 
        1.33772         30.0198         9.65724         35.2675 
        1.35005         29.6458         9.45035          34.912 
        1.36225         29.2131         9.25163         34.5652 
        1.37447          28.556         9.05827         34.1474 
        1.38676          28.561         8.86956         33.8553 
        1.39907         28.0916         8.68593         33.5202 
        1.41133         27.5631          8.5083          33.132 
        1.42358          27.296         8.33582         32.7969 
        1.43591         26.9041         8.16695         32.5065 
        1.44818         26.6535         8.00369         32.1518 
        1.46037         26.3599         7.84588         31.8136 
        1.47263          26.094         7.69146         31.5652 
        1.48494         25.6847         7.54061         31.2242 
        1.49724         25.6043         7.39393         30.9356 
        1.50952         25.1096         7.25147         30.6918 
        1.52178         24.7929         7.11297         30.3613 
        1.53409         24.5298         6.97754          30.095 
        1.54637           24.28         6.84592          29.778 
        1.55858         23.7383         6.71845         29.5338 
        1.57081          23.754         6.59405          29.286 
        1.58313         23.4685         6.47204         28.9944 
        1.59544           23.03         6.35318         28.7671 
        1.60767         22.7978         6.23807         28.4679 
        1.61994         22.4873         6.12542         28.2528 
        1.63225         22.4082         6.01533          28.054 
        1.64452         22.0262         5.90825         27.8088 
        1.65676         21.8235         5.80411         27.5434 
          1.669          21.623         5.70241         27.3344 
        1.68133         21.2753          5.6025         27.0922 
        1.69363         21.0391         5.50529         26.7967 
        1.70585         20.8351           5.411         26.6685 
        1.71809         20.5359         5.31874         26.4072 
        1.73038         20.3898         5.22833         26.2262 
        1.74268         20.1935         5.13998         25.9626 
        1.75493         19.8793         5.05408         25.7808 
        1.76714         19.8225         4.97036         25.5792 
        1.77942         19.6025         4.88811         25.3571 
        1.79173         19.1904         4.80752           25.17 
        1.80402         19.0122         4.72891         25.0261 
         1.8163         18.9367          4.6521          24.752 
         1.8286          18.638         4.57687          24.601 
         1.8409         18.4476         4.50337         24.4176 
        1.85315         18.2958         4.43173         24.2315 
        1.86537         18.0442          4.3618          24.049 
        1.87765         17.9264         4.29311          23.861 
        1.88995         17.6785         4.22574         23.6661 
        1.90221         17.5323         4.16005         23.4901 
        1.91445         17.3383         4.09587         23.3117 
        1.92674         17.1653         4.03282         23.1434 
        1.93902         16.9612         3.97109         23.0033 
        1.95124         16.7282         3.91099         22.8772 
         1.9635         16.6037         3.85198         22.6596 
        1.97583         16.4417         3.79381         22.4817 
        1.98812         16.2868         3.73707         22.3529 
        2.00039         16.1514          3.6816         22.1845 
        2.01264         15.9766         3.62731         22.0442 
        2.02492         15.8175         3.57404         21.8541 
        2.03717         15.6206         3.52192         21.7129 
        2.04942         15.4773         3.47091         21.5515 
        2.06171         15.3607         3.42074         21.4036 
        2.07397         15.2198         3.37168         21.2539 
        2.08629         15.0811         3.32337         21.1102 
        2.09857         14.9447         3.27612         20.9701 
        2.11081         14.7552         3.22999         20.8337 
        2.12309         14.6097         3.18463         20.6815 
        2.13538         14.4474         3.14008         20.5351 
        2.14763         14.3139         3.09654         20.4085 
        2.15986         14.2786         3.05392         20.2893 
        2.17214         14.0921         3.01193         20.1416 
        2.18443         13.9216         2.97069         20.0052 
        2.19671         13.8252         2.93027         19.8603 
        2.20898         13.6834         2.89065         19.7417 
        2.22126         13.5536         2.85172         19.6157 
        2.23354         13.5014         2.81352          19.474 
         2.2458         13.3217         2.77609          19.381 
        2.25807         13.1807         2.73931         19.2135 
        2.27035         13.0916         2.70316         19.1018 
        2.28263         12.9578         2.66768         18.9758 
         2.2949         12.8772         2.63286         18.8694 
        2.30718         12.7756         2.59865         18.7614 
        2.31946         12.6396         2.56503         18.6275 
        2.33169         12.5208         2.53215         18.5102 
        2.34393          12.417         2.49979         18.4034 
        2.35622         12.2608          2.4679         18.2853 
        2.36847         12.1927         2.43666         18.1662 
        2.38076         12.0594         2.40586         18.0569 
        2.39305         11.9432          2.3756         17.9379 
        2.40534          11.866         2.34586         17.8108 
        2.41762         11.7658         2.31663         17.7282 
        2.42989         11.6814         2.28795         17.6098 
        2.44216         11.5705         2.25975         17.4923 
         2.4544         11.5099          2.2321         17.3828 
        2.46667         11.4003         2.20484         17.2896 
        2.47897         11.2791         2.17798         17.1715 
        2.49124         11.2018         2.15163         17.0711 
        2.50349         11.1025         2.12577         16.9635 
        2.51578         11.0175         2.10024         16.8805 
        2.52805         10.9368         2.07519         16.7754 
        2.54029         10.8701          2.0506         16.6763 
        2.55257         10.8086         2.02634         16.5721 
        2.56487         10.6382         2.00242         16.4703 
        2.57716         10.5942         1.97893         16.3642 
        2.58942         10.5333         1.95586         16.2868 
        2.60167         10.4485         1.93318         16.1925 
        2.61395         10.4081         1.91083         16.0916 
        2.62624         10.3022         1.88881         16.0009 
        2.63849         10.2204          1.8672         15.9177 
        2.65073         10.1568         1.84594         15.8135 
        2.66302         10.0868         1.82495         15.7255 
         2.6753          10.037          1.8043         15.6298 
        2.68756         9.97713           1.784         15.5526 
        2.69983         9.88909         1.76401         15.4521 
        2.71213          9.8317         1.74428         15.3553 
        2.72441         9.76912         1.72488         15.2761 
        2.73665         9.74883         1.70583         15.1837 
         2.7489         9.67218         1.68708         15.0915 
        2.76118         9.57436         1.66855         15.0163 
        2.77349         9.53849         1.65025         14.9307 
        2.78576         9.48487         1.63231           14.85 
        2.79802         9.43513         1.61463         14.7618 
        2.81031         9.38981         1.59718         14.6798 
        2.82259          9.3563         1.57999         14.5976 
        2.83483          9.2832         1.56313          14.517 
         2.8471         9.23833         1.54647         14.4379 
         2.8594         9.21985         1.53001         14.3558 
         2.8717         9.17254         1.51379         14.2741 
        2.88396         9.12214         1.49787         14.1966 
        2.89619         9.07165          1.4822         14.1205 
        2.90847         9.03259          1.4667         14.0417 
        2.92072         9.03296         1.45145         13.9573 
        2.93299          8.9669         1.43641         13.8879 
        2.94526         8.95952         1.42157         13.8151 
        2.95753         8.92477         1.40694         13.7361 
        2.96982          8.8812         1.39249         13.6597 
        2.98209         8.87227         1.37827         13.5834 
        2.99436         8.85626         1.36425         13.5079 
        3.00666         8.82585         1.35039         13.4379 
        3.01894         8.80625         1.33675          13.374 
        3.03119         8.79346         1.32332         13.2969 
        3.04345         8.74333         1.31007         13.2171 
        3.05573          8.7742         1.29698         13.1498 
          3.068          8.7476         1.28408         13.0843 
        3.08026         8.75512         1.27137         13.0053 
        3.09254         8.74897         1.25881          12.941 
        3.10483         8.74522         1.24642         12.8806 
         3.1171         8.75178         1.23421         12.8092 
        3.12933         8.76179         1.22219         12.7386 
        3.14159         8.72394         1.21031         12.6719 
