# k  (h/Mpc)    Pcb(k)  (Mpc/h)^3    Pcb_linear(k) (Mpc/h)^3    Pcb_NL(k) (Mpc/h)^3   ShotnoiseSubtracted = false
      0.0156606         2745.11         2747.06         2733.51 
      0.0273761            2385         2377.09         2370.42 
      0.0384619         1812.36         1791.53         1789.24 
      0.0498308         1420.58         1409.44         1408.25 
      0.0625568         1198.59         1198.01         1195.86 
      0.0751274         1037.31         1017.91         1013.94 
      0.0867833         822.824         819.572         819.057 
      0.0984825         666.924         648.608         651.178 
       0.111151         558.667         541.589         544.087 
       0.123864          501.84          488.09         489.978 
       0.135742         450.914          438.92         440.789 
        0.14762          383.17         375.302         379.747 
       0.160083         318.178         312.839          317.91 
       0.172465         280.392          273.05         279.137 
       0.184281         259.936         251.721         258.184 
       0.196406         237.083         232.465         237.435 
       0.209011         213.675         206.835         212.479 
       0.221538         189.784         180.755         188.655 
       0.233611         171.065         161.729         170.505 
       0.245665         160.642          149.27         157.074 
       0.258103         144.813         138.958         146.729 
       0.270422         135.933         127.686         135.231 
       0.282519         123.338         115.883         123.941 
       0.294636         117.548         105.582          114.08 
       0.306978         104.016         97.6812         106.463 
       0.319417         99.2387         91.3264         99.8192 
        0.33169         92.2497         85.2435         93.4501 
       0.343948         87.5507         78.9831         87.3282 
       0.356249           80.34          73.112         82.2499 
       0.368458         76.6455         68.1944          76.621 
        0.38068           71.85         64.0819         72.4382 
       0.392856         67.1631         60.3278         68.7565 
       0.405069         63.5464         56.6571         64.8414 
       0.417459         59.4756         53.1028         61.3464 
       0.429752         56.9505         49.9122         58.1612 
       0.441978         54.2228         47.1119         55.6693 
       0.454294         50.4536          44.569         52.6849 
        0.46658         49.9939          42.183         50.2608 
       0.478753         46.4923         39.9321         48.0313 
       0.490964         44.9023         37.8178         46.0477 
       0.503334         43.0161         35.8662         43.8664 
       0.515665         40.8516         34.0867         42.3787 
       0.527909         39.0886         32.4439         40.1528 
       0.540159         37.4535         30.8897         38.6068 
        0.55248         35.0184         29.4149         36.9751 
       0.564743         34.5388         28.0493         35.7459 
        0.57686         33.3702         26.7943         34.3754 
       0.589077         31.4218         25.6095         33.2542 
       0.601441         30.3129          24.483         32.0373 
        0.61382         29.2524         23.4208         30.7654 
       0.626067          28.071         22.4297         29.8066 
       0.638306         27.1362         21.4963         28.7097 
       0.650632         26.3833          20.612         27.7891 
       0.662899         25.2516         19.7833         26.8193 
       0.675076         24.0965         19.0066         25.9577 
       0.687267         23.7339         18.2707         25.1062 
       0.699615         22.9197         17.5646         24.3997 
       0.711937         21.7598         16.8971         23.5999 
       0.724148         21.6381         16.2699         22.9917 
       0.736433         20.3814         15.6714         22.2536 
       0.748747         20.0058         15.1022         21.6388 
       0.761037         19.5045         14.5626         21.0666 
       0.773197         18.8155         14.0549         20.5165 
       0.785376          18.103         13.5709         19.9581 
       0.797761         17.6999         13.1022          19.419 
       0.810096          17.285         12.6575         18.9479 
       0.822371          16.806         12.2356         18.3905 
       0.834626          16.272         11.8337         17.9906 
       0.846916         15.7705         11.4489         17.5205 
       0.859215         15.1969          11.081         17.1063 
       0.871383         14.9137         10.7331         16.7375 
        0.88363         14.5219         10.3982         16.3319 
       0.895928         14.2363         10.0763         15.9128 
       0.908253         13.8639         9.76749         15.5859 
       0.920535         13.4455         9.47274         15.2138 
       0.932774         13.2311         9.19124         14.8275 
        0.94508         12.7919         8.91982         14.5471 
       0.957324         12.5526         8.66074         14.2606 
        0.96953         12.1124         8.41279         13.9366 
       0.981769         12.0072         8.17396          13.648 
       0.994071         11.6783         7.94332         13.3583 
         1.0064         11.3098         7.72122         13.1004 
        1.01868         11.0924          7.5083         12.8449 
        1.03092         10.9124          7.3044         12.5733 
         1.0432          10.514         7.10737         12.3207 
        1.05553         10.3479         6.91688         12.1282 
        1.06777         10.0446         6.73477         11.8656 
           1.08         9.86621         6.55944         11.6546 
        1.09227         9.66495         6.38981         11.4423 
         1.1046         9.48421         6.22556         11.2104 
         1.1169         9.18838         6.06741         11.0092 
        1.12915         9.16489         5.91555          10.858 
        1.14142         8.81037         5.76859         10.6374 
        1.15365          8.7097         5.62709         10.4507 
        1.16585         8.59671         5.49072         10.2996 
        1.17807         8.34227         5.35872         10.0925 
        1.19037         8.19727         5.23021         9.93776 
        1.20276         7.99973         5.10506         9.76266 
        1.21504         7.88569         4.98501         9.62137 
        1.22728         7.68247         4.86932         9.44856 
        1.23954         7.56586         4.75705         9.32051 
        1.25184         7.40607         4.64811          9.1667 
        1.26414         7.31242         4.54255         9.00678 
        1.27632         7.10598         4.44123         8.87881 
         1.2886         7.02371         4.34229         8.74691 
        1.30093         6.88201         4.24602         8.64331 
        1.31316         6.72791         4.15338          8.4933 
        1.32541          6.6294          4.0635         8.39133 
        1.33772         6.50132         3.97579         8.24749 
        1.35005         6.41687         3.89061         8.14139 
        1.36225         6.28721          3.8088         8.00989 
        1.37447          6.1765          3.7292          7.9141 
        1.38676         6.06088         3.65151          7.8077 
        1.39907          5.9492         3.57591         7.69967 
        1.41133          5.8638         3.50278         7.59363 
        1.42358         5.74616         3.43177         7.48635 
        1.43591         5.68328         3.36225         7.40335 
        1.44818         5.54441         3.29504         7.30163 
        1.46037         5.45249         3.23007         7.20235 
        1.47263         5.37471         3.16649          7.1191 
        1.48494         5.31567         3.10439         7.01899 
        1.49724         5.21163         3.04401         6.93559 
        1.50952         5.18275         2.98536         6.85302 
        1.52178         5.06105         2.92834         6.76705 
        1.53409         4.96333         2.87258          6.6751 
        1.54637         4.90632          2.8184         6.59514 
        1.55858         4.84222         2.76592         6.51165 
        1.57081         4.73829         2.71471         6.45257 
        1.58313         4.68355         2.66447         6.36915 
        1.59544         4.59689         2.61554         6.30299 
        1.60767         4.54761         2.56815         6.22177 
        1.61994         4.47205         2.52178         6.16168 
        1.63225         4.39485         2.47645         6.08826 
        1.64452         4.32199         2.43237         6.01725 
        1.65676         4.26098         2.38949         5.95348 
          1.669         4.22358         2.34762         5.88863 
        1.68133         4.11646          2.3065         5.82378 
        1.69363         4.09724         2.26647         5.76857 
        1.70585         4.03386         2.22766         5.69866 
        1.71809         3.98973         2.18967         5.64505 
        1.73038         3.93164         2.15245         5.58272 
        1.74268         3.86723         2.11608         5.52695 
        1.75493         3.81758         2.08071         5.46514 
        1.76714         3.78657         2.04625         5.41047 
        1.77942         3.72325         2.01239         5.35509 
        1.79173         3.67272         1.97921         5.29701 
        1.80402         3.62665         1.94684         5.24748 
         1.8163         3.59597         1.91522         5.20205 
         1.8286         3.53463         1.88425         5.15344 
         1.8409         3.47776         1.85399         5.10509 
        1.85315         3.44206          1.8245         5.04386 
        1.86537         3.41177         1.79571          5.0046 
        1.87765         3.35185         1.76743         4.95235 
        1.88995         3.30641          1.7397           4.911 
        1.90221         3.26771         1.71265         4.86168 
        1.91445         3.23304         1.68623         4.82818 
        1.92674         3.20786         1.66027         4.77201 
        1.93902         3.15097         1.63486         4.72615 
        1.95124         3.11204         1.61012         4.68637 
         1.9635         3.09352         1.58582         4.64757 
        1.97583         3.03911         1.56188         4.60741 
        1.98812         2.99989         1.53851         4.56325 
        2.00039         2.96939         1.51568         4.52425 
        2.01264         2.93155         1.49333         4.49192 
        2.02492         2.90234         1.47139         4.45108 
        2.03717         2.86536         1.44994         4.41008 
        2.04942         2.82891         1.42894          4.3747 
        2.06171          2.7956         1.40829         4.33514 
        2.07397         2.77035         1.38809         4.29919 
        2.08629         2.74432          1.3682         4.26861 
        2.09857         2.71083         1.34875         4.23041 
        2.11081         2.67418         1.32975         4.19649 
        2.12309         2.65391         1.31108         4.16199 
        2.13538         2.61927         1.29274         4.13203 
        2.14763          2.6031         1.27481         4.09613 
        2.15986         2.57577         1.25727         4.06698 
        2.17214         2.53309         1.23998         4.02762 
        2.18443         2.52155           1.223         3.99787 
        2.19671         2.48589         1.20636         3.96767 
        2.20898         2.46293         1.19005         3.94003 
        2.22126         2.44305         1.17402         3.90942 
        2.23354         2.41202          1.1583         3.87833 
         2.2458          2.3997         1.14289         3.84479 
        2.25807         2.36631         1.12775          3.8202 
        2.27035          2.3408         1.11286         3.79399 
        2.28263         2.31609         1.09826         3.76467 
         2.2949         2.30155         1.08392         3.73881 
        2.30718          2.2771         1.06984          3.7142 
        2.31946         2.25181           1.056         3.68655 
        2.33169         2.23341         1.04246         3.65828 
        2.34393          2.2221         1.02914          3.6322 
        2.35622         2.19655         1.01601         3.60577 
        2.36847         2.17163         1.00315         3.57913 
        2.38076         2.15464        0.990467         3.55325 
        2.39305         2.13208         0.97801         3.52638 
        2.40534         2.11387        0.965767         3.50513 
        2.41762         2.08951        0.953735         3.48379 
        2.42989         2.07727        0.941926         3.45714 
        2.44216         2.06318        0.930318         3.43552 
         2.4544         2.04296        0.918933         3.41334 
        2.46667         2.02541        0.907712         3.39008 
        2.47897         2.01017        0.896652         3.36629 
        2.49124         1.98921        0.885806         3.34464 
        2.50349         1.97713        0.875156         3.32202 
        2.51578         1.95658        0.864649         3.29735 
        2.52805         1.93873        0.854333         3.27742 
        2.54029          1.9297        0.844211         3.25637 
        2.55257          1.9111        0.834223         3.23552 
        2.56487         1.89739        0.824377         3.21387 
        2.57716         1.89008        0.814704         3.19347 
        2.58942         1.87018        0.805208         3.17365 
        2.60167         1.85805        0.795872         3.15214 
        2.61395          1.8353        0.786671         3.13514 
        2.62624         1.83114        0.777602         3.11517 
        2.63849         1.81763        0.768705         3.09383 
        2.65073         1.80197        0.759957          3.0749 
        2.66302         1.78876        0.751314         3.05726 
         2.6753         1.78812         0.74281         3.03849 
        2.68756         1.76505        0.734455         3.02035 
        2.69983         1.75409        0.726224         3.00061 
        2.71213         1.74761        0.718101         2.98285 
        2.72441         1.73546        0.710117         2.96521 
        2.73665         1.72124        0.702273         2.94913 
         2.7489         1.71118        0.694552         2.93355 
        2.76118         1.70172        0.686924         2.91593 
        2.77349         1.69881        0.679392         2.89834 
        2.78576         1.68869        0.672003         2.88087 
        2.79802         1.68053        0.664728         2.86411 
        2.81031         1.66483        0.657543         2.84673 
        2.82259         1.65801        0.650468         2.83003 
        2.83483         1.65377        0.643523         2.81517 
         2.8471         1.64504        0.636666         2.79905 
         2.8594         1.63599        0.629888          2.7839 
         2.8717         1.62887        0.623212         2.76834 
        2.88396         1.62547        0.616657         2.75193 
        2.89619         1.61239        0.610208         2.73628 
        2.90847         1.60861        0.603827         2.72008 
        2.92072         1.60363        0.597548         2.70637 
        2.93299         1.60258        0.591355         2.69163 
        2.94526         1.59529        0.585244         2.67743 
        2.95753         1.58688        0.579222          2.6627 
        2.96982         1.58512        0.573274          2.6478 
        2.98209         1.58425        0.567421         2.63461 
        2.99436         1.57751        0.561646         2.62051 
        3.00666         1.58017        0.555941         2.60679 
        3.01894         1.57338        0.550326         2.59136 
        3.03119         1.57331        0.544797         2.57789 
        3.04345         1.57016        0.539344         2.56571 
        3.05573         1.56837        0.533954          2.5527 
          3.068         1.56879        0.528644         2.53927 
        3.08026          1.5649        0.523411         2.52483 
        3.09254         1.56977        0.518239         2.51137 
        3.10483         1.56996        0.513137          2.4994 
         3.1171          1.5698         0.50811          2.4871 
        3.12933         1.57057        0.503164          2.4736 
        3.14159         1.57068        0.498273         2.46027 
