# k  (h/Mpc)    Pcb(k)  (Mpc/h)^3    Pcb_linear(k) (Mpc/h)^3    Pcb_NL(k) (Mpc/h)^3   ShotnoiseSubtracted = false
      0.0156606            8490         8508.86         8459.37 
      0.0273761         7336.74         7359.59         7320.93 
      0.0384619         5571.06         5545.58         5518.71 
      0.0498308          4340.2         4362.39         4337.94 
      0.0625568         3662.96         3707.72         3683.82 
      0.0751274         3214.89         3150.23         3114.39 
      0.0867833         2521.08         2536.34         2527.84 
      0.0984825         2079.17         2007.22         2022.77 
       0.111151         1754.52         1676.01         1692.29 
       0.123864         1575.92         1510.44         1524.13 
       0.135742          1422.8         1358.27         1372.36 
        0.14762         1218.75         1161.39         1196.19 
       0.160083         1014.25         968.091         1008.27 
       0.172465         901.827         844.961         894.764 
       0.184281         832.668         778.955         831.129 
       0.196406         762.829         719.364         761.925 
       0.209011         698.117         640.052         686.205 
       0.221538         627.733         559.346         623.747 
       0.233611         578.288          500.47         572.684 
       0.245665         538.805         461.915         526.775 
       0.258103         500.098         430.004         494.513 
       0.270422         460.879         395.124         459.198 
       0.282519          421.78         358.597         425.871 
       0.294636         415.515         326.722          397.54 
       0.306978         368.199         302.273         375.892 
       0.319417         353.426         282.608         353.255 
        0.33169         331.272         263.784          331.97 
       0.343948         316.065         244.411         316.173 
       0.356249         294.617         226.243         301.141 
       0.368458         284.779         211.026         283.146 
        0.38068         270.982           198.3         269.558 
       0.392856         253.205         186.683         257.907 
       0.405069         242.573         175.324         247.482 
       0.417459         231.259         164.325         234.231 
       0.429752         222.735         154.452         224.908 
       0.441978         214.794         145.786         217.394 
       0.454294         200.309         137.917         206.771 
        0.46658         200.371         130.534         200.112 
       0.478753         189.283         123.569         192.746 
       0.490964         183.391         117.026         185.525 
       0.503334          173.88         110.987         179.542 
       0.515665         170.112          105.48         174.984 
       0.527909         164.956         100.397         167.789 
       0.540159         159.573          95.587         162.887 
        0.55248          155.09         91.0233         157.452 
       0.564743         150.549         86.7976         153.481 
        0.57686          145.69         82.9139         148.457 
       0.589077         139.367         79.2478         144.977 
       0.601441         136.495         75.7617         141.177 
        0.61382          134.53         72.4749         137.034 
       0.626067         129.588         69.4078         133.559 
       0.638306         124.711         66.5195         130.437 
       0.650632         120.434          63.783         125.922 
       0.662899         120.367         61.2186         123.222 
       0.675076         116.073         58.8154         120.273 
       0.687267         113.324         56.5382         117.478 
       0.699615         110.126          54.353         115.066 
       0.711937         106.974         52.2873         112.055 
       0.724148         105.832         50.3465         110.483 
       0.736433         102.011         48.4946           107.6 
       0.748747         99.9525         46.7331         105.278 
       0.761037          97.944         45.0634         102.821 
       0.773197         95.8031         43.4925         101.636 
       0.785376         93.8081         41.9947         99.0823 
       0.797761         92.7226         40.5443         97.6327 
       0.810096         89.5225         39.1681         95.4639 
       0.822371         87.7151         37.8625         93.6988 
       0.834626          85.834         36.6188         92.0997 
       0.846916         84.7643         35.4281          90.526 
       0.859215         83.0431         34.2899         88.7464 
       0.871383          81.882         33.2132         87.2589 
        0.88363         79.6731         32.1767          86.081 
       0.895928         78.1274         31.1806         84.6738 
       0.908253         76.1606         30.2251         83.1716 
       0.920535          75.803          29.313         81.9496 
       0.932774         74.1559         28.4419         80.5072 
        0.94508         73.2279          27.602         79.1672 
       0.957324         71.4879         26.8003         78.1454 
        0.96953         71.5554          26.033         76.7669 
       0.981769         69.1512          25.294         75.9195 
       0.994071         68.4018         24.5803         74.7981 
         1.0064          66.901          23.893         73.6815 
        1.01868         66.0735         23.2342         72.7171 
        1.03092         64.9024         22.6032         71.6818 
         1.0432         63.7994         21.9935         70.6017 
        1.05553         62.1662          21.404         70.0117 
        1.06777         61.8506         20.8405         69.0079 
           1.08         60.4838         20.2979         68.0497 
        1.09227         59.6566          19.773         67.0622 
         1.1046         58.7416         19.2648         66.2285 
         1.1169         58.0779         18.7754          65.269 
        1.12915          57.198         18.3054          64.604 
        1.14142         56.0999         17.8507         63.8078 
        1.15365          55.184         17.4128         63.0778 
        1.16585         54.3931         16.9908         62.2125 
        1.17807         53.5427         16.5824         61.4839 
        1.19037         53.4291         16.1847         60.8995 
        1.20276         52.4141         15.7974         60.1796 
        1.21504           51.89         15.4259         59.4739 
        1.22728         50.8155         15.0679         58.8312 
        1.23954         50.2517         14.7205         58.0464 
        1.25184         49.4327         14.3834          57.541 
        1.26414         48.6667         14.0568         56.8257 
        1.27632         48.2775         13.7432         56.2807 
         1.2886         47.7702          13.437         55.6358 
        1.30093          47.046         13.1392         54.9209 
        1.31316         46.3129         12.8525         54.5334 
        1.32541         46.0358         12.5743         53.9064 
        1.33772         45.1748         12.3029         53.3433 
        1.35005         44.7022         12.0393         52.8352 
        1.36225         43.9396         11.7862         52.3079 
        1.37447         42.9049         11.5398         51.7516 
        1.38676         43.0843         11.2994         51.2675 
        1.39907         42.3994         11.0655         50.8331 
        1.41133         41.5214         10.8392         50.3618 
        1.42358         41.0732         10.6195         49.7928 
        1.43591         40.6896         10.4043         49.3868 
        1.44818         40.2145         10.1964         48.7994 
        1.46037         39.6837         9.99532         48.4155 
        1.47263          39.392         9.79859         48.0263 
        1.48494         38.6047         9.60642          47.514 
        1.49724         38.4037         9.41956         47.0793 
        1.50952         37.9651         9.23806         46.6719 
        1.52178         37.3762         9.06162         46.2717 
        1.53409         37.0862         8.88909         45.8597 
        1.54637         36.5047         8.72142         45.4115 
        1.55858         35.7267         8.55903         44.9962 
        1.57081         35.7814         8.40055         44.6789 
        1.58313         35.3612          8.2451         44.2825 
        1.59544          34.728         8.09368         43.8784 
        1.60767         34.3011         7.94704         43.4734 
        1.61994         33.8897         7.80353         43.1239 
        1.63225         33.6797         7.66327         42.7671 
        1.64452         33.2636         7.52686         42.4297 
        1.65676         32.8562         7.39419         42.0469 
          1.669         32.5459         7.26463         41.7584 
        1.68133         32.2208         7.13736         41.3589 
        1.69363         31.6881         7.01351         41.0082 
        1.70585         31.4784         6.89339         40.7649 
        1.71809         30.9366         6.77585         40.3292 
        1.73038         30.7737         6.66068         40.0908 
        1.74268         30.3257         6.54812         39.6846 
        1.75493         30.0089         6.43868         39.4048 
        1.76714         29.7574         6.33203         39.1211 
        1.77942         29.4421         6.22725          38.803 
        1.79173         29.0233         6.12457         38.4843 
        1.80402         28.7074         6.02443         38.2765 
         1.8163         28.5252         5.92658         37.8336 
         1.8286         28.0316         5.83074         37.6153 
         1.8409          27.799         5.73711         37.3061 
        1.85315         27.4897         5.64584         37.0693 
        1.86537         27.1331         5.55675         36.7903 
        1.87765         27.0025         5.46924         36.4952 
        1.88995         26.5981         5.38342         36.1604 
        1.90221         26.3357         5.29973         35.9036 
        1.91445         25.9704         5.21797         35.6625 
        1.92674         25.7407         5.13764         35.3786 
        1.93902         25.4512         5.05901         35.1429 
        1.95124         25.0286         4.98244         34.9303 
         1.9635         24.8904         4.90726         34.6333 
        1.97583         24.6285         4.83316         34.4086 
        1.98812         24.4157         4.76087         34.1539 
        2.00039         24.1267          4.6902         33.9006 
        2.01264         23.8376         4.62104         33.6807 
        2.02492          23.668         4.55317          33.409 
        2.03717         23.2952         4.48678         33.1791 
        2.04942         23.1036          4.4218         32.9237 
        2.06171         22.9387         4.35789         32.7156 
        2.07397         22.6856         4.29538         32.4528 
        2.08629         22.4539         4.23383           32.22 
        2.09857         22.2008         4.17364         32.0136 
        2.11081          21.949         4.11487         31.7822 
        2.12309         21.7959         4.05709         31.5566 
        2.13538         21.4717         4.00034          31.363 
        2.14763         21.3361         3.94486         31.1339 
        2.15986         21.0882         3.89056         30.9126 
        2.17214         20.8806         3.83707         30.7203 
        2.18443         20.6824         3.78453         30.4772 
        2.19671         20.4269         3.73304         30.2721 
        2.20898         20.2471         3.68256          30.055 
        2.22126          20.124         3.63297          29.863 
        2.23354         19.9477         3.58431         29.6808 
         2.2458         19.7507         3.53663         29.4873 
        2.25807         19.4648         3.48977         29.2508 
        2.27035         19.2828         3.44371         29.0778 
        2.28263         19.1307         3.39852         28.8884 
         2.2949         18.9725         3.35415         28.6998 
        2.30718         18.7895         3.31057          28.498 
        2.31946         18.6639         3.26774         28.3059 
        2.33169         18.4365         3.22585         28.1203 
        2.34393         18.2677         3.18463         27.9496 
        2.35622         18.0773           3.144         27.7698 
        2.36847         17.8851          3.1042         27.5659 
        2.38076         17.7307         3.06496         27.4152 
        2.39305          17.595         3.02641          27.239 
        2.40534         17.4035         2.98853         27.0228 
        2.41762         17.2277         2.95129         26.8958 
        2.42989         17.1077         2.91475         26.6805 
        2.44216         16.8979         2.87883         26.5314 
         2.4544         16.8893          2.8436         26.3462 
        2.46667         16.6585         2.80888         26.1873 
        2.47897         16.4541         2.77465         26.0085 
        2.49124         16.3888         2.74109         25.8448 
        2.50349         16.1708         2.70814         25.6723 
        2.51578          16.076         2.67562          25.535 
        2.52805         15.9229          2.6437          25.363 
        2.54029         15.7977         2.61238         25.2023 
        2.55257         15.6869         2.58147         25.0377 
        2.56487         15.5027           2.551         24.8908 
        2.57716         15.3948         2.52107         24.7138 
        2.58942         15.3131         2.49168         24.5839 
        2.60167         15.0854         2.46279         24.4257 
        2.61395         15.0428         2.43432         24.2726 
        2.62624         14.9474         2.40626         24.1136 
        2.63849         14.7788         2.37873         23.9889 
        2.65073         14.6582         2.35166         23.8255 
        2.66302         14.5701         2.32491         23.6924 
         2.6753         14.5085          2.2986         23.5378 
        2.68756         14.3609         2.27274         23.4042 
        2.69983         14.2375         2.24727         23.2464 
        2.71213         14.1117         2.22213         23.0944 
        2.72441         14.0423         2.19743         22.9615 
        2.73665          13.928         2.17316         22.8245 
         2.7489         13.8937         2.14926         22.6848 
        2.76118         13.7361         2.12566         22.5503 
        2.77349         13.6614         2.10235         22.4171 
        2.78576         13.5545         2.07949         22.2915 
        2.79802         13.5012         2.05697         22.1452 
        2.81031         13.4051         2.03474         22.0078 
        2.82259         13.2777         2.01285         21.8915 
        2.83483           13.27         1.99136         21.7603 
         2.8471         13.1977         1.97014         21.6169 
         2.8594         13.0989         1.94916         21.4824 
         2.8717         13.0378          1.9285         21.3647 
        2.88396         12.9565         1.90822         21.2356 
        2.89619         12.9284         1.88826         21.1077 
        2.90847         12.8439         1.86852         20.9984 
        2.92072         12.7999         1.84909         20.8509 
        2.93299         12.6926         1.82992          20.745 
        2.94526         12.6554         1.81101         20.6322 
        2.95753         12.6203         1.79238         20.5006 
        2.96982         12.5582         1.77397         20.3822 
        2.98209         12.5348         1.75586         20.2669 
        2.99436          12.481         1.73799          20.141 
        3.00666          12.463         1.72034         20.0221 
        3.01894         12.4146         1.70296         19.9211 
        3.03119         12.3932         1.68585         19.8035 
        3.04345         12.3188         1.66898         19.6777 
        3.05573         12.3181          1.6523         19.5674 
          3.068         12.2789         1.63587         19.4617 
        3.08026         12.2733         1.61967         19.3368 
        3.09254         12.2342         1.60367         19.2331 
        3.10483         12.2431         1.58788         19.1332 
         3.1171         12.2729         1.57232         19.0205 
        3.12933         12.2315         1.55702         18.9105 
        3.14159         12.1894         1.54189         18.7963 
