# k  (h/Mpc)    P(k)  (Mpc/h)^3    P_linear(k)  (Mpc/h)^3     P_NL(k)  ShotnoiseSubtracted = false
      0.0156606         7749.13         7632.65         7589.38 
      0.0273761         6689.91         6591.69         6559.81 
      0.0384619         5076.62         4963.29         4942.22 
      0.0498308         3955.63         3902.66         3883.93 
      0.0625568         3337.11         3316.02         3297.31 
      0.0751274         2924.58         2816.93         2788.49 
      0.0867833         2295.53         2267.74         2261.33 
      0.0984825         1889.64         1794.51         1807.56 
       0.111151         1593.09         1498.31         1511.81 
       0.123864         1430.92         1350.23         1361.58 
       0.135742         1291.15         1214.16         1225.84 
        0.14762         1104.69         1038.15         1066.62 
       0.160083         918.672         865.341         898.042 
       0.172465         816.306         755.267         795.642 
       0.184281         754.288         696.259         738.713 
       0.196406         690.259         642.988         677.308 
       0.209011         630.665          572.09         609.536 
       0.221538         566.553         499.949         552.261 
       0.233611         520.488         447.322         505.924 
       0.245665         485.837         412.859         465.389 
       0.258103         448.869         384.335         436.606 
       0.270422         414.886         353.158          404.95 
       0.282519          379.09         320.509         374.921 
       0.294636         372.631         292.019         349.342 
       0.306978           329.8         270.166         329.756 
       0.319417          316.31         252.589         309.812 
        0.33169         296.162         235.764         290.999 
       0.343948         282.622         218.449           276.4 
       0.356249         263.057          202.21         262.937 
       0.368458         253.979         188.609         246.876 
        0.38068          241.32         177.236         234.799 
       0.392856         225.325         166.852         224.469 
       0.405069         215.584         156.699         214.846 
       0.417459         205.358         146.869         203.295 
       0.429752         197.665         138.045         194.958 
       0.441978         190.374         130.299          188.25 
       0.454294         177.373         123.266         178.868 
        0.46658         177.557         116.667         172.806 
       0.478753         167.222         110.441         166.351 
       0.490964         162.065         104.593         160.004 
       0.503334         153.942         99.1962         154.595 
       0.515665         150.133         94.2744          150.54 
       0.527909         145.459         89.7307         143.972 
       0.540159         140.598         85.4317         139.714 
        0.55248         136.126         81.3528         134.892 
       0.564743         132.213         77.5763         131.308 
        0.57686         128.013         74.1051         126.968 
       0.589077         122.317         70.8285         123.851 
       0.601441         119.655         67.7127         120.483 
        0.61382         117.651         64.7751          116.76 
       0.626067         113.095         62.0338         113.755 
       0.638306         109.109         59.4524         110.905 
       0.650632         105.252         57.0065         107.004 
       0.662899         104.968         54.7146         104.549 
       0.675076         101.189         52.5667         101.991 
       0.687267         98.9245         50.5314          99.515 
       0.699615         95.9238         48.5784         97.4777 
       0.711937         93.0403         46.7321         94.6906 
       0.724148         92.1729         44.9975         93.3548 
       0.736433         88.4923         43.3423         90.8187 
       0.748747         86.8313          41.768         88.8022 
       0.761037         84.9198         40.2756         86.6923 
       0.773197         83.0663         38.8716         85.6116 
       0.785376         81.1113          37.533         83.4143 
       0.797761         80.2969         36.2367         82.0975 
       0.810096         77.4972         35.0067         80.2226 
       0.822371         76.0235         33.8398         78.6438 
       0.834626         74.2844         32.7283         77.3217 
       0.846916         73.1965          31.664         75.9121 
       0.859215         71.5972         30.6467         74.3516 
       0.871383         70.6344         29.6845         73.0991 
        0.88363         68.6881          28.758         72.0625 
       0.895928         67.2842         27.8678         70.7693 
       0.908253          65.643         27.0138         69.5599 
       0.920535         65.2968         26.1986         68.4365 
       0.932774         63.9503         25.4201         67.2579 
        0.94508         63.0684         24.6694         66.0389 
       0.957324         61.4797         23.9529          65.169 
        0.96953         61.4473         23.2671         63.9873 
       0.981769         59.3983         22.6066         63.2242 
       0.994071         58.7182         21.9687           62.28 
         1.0064         57.4353         21.3545         61.3123 
        1.01868         56.5899         20.7656         60.4799 
        1.03092         55.6822         20.2017         59.5744 
         1.0432         54.7328         19.6567         58.6082 
        1.05553         53.3684         19.1299         58.1428 
        1.06777         52.9213         18.6262         57.2271 
           1.08         51.6897         18.1413         56.3986 
        1.09227         51.0577         17.6722         55.6156 
         1.1046         50.2959         17.2179         54.8598 
         1.1169         49.7153         16.7805         54.0737 
        1.12915         48.8789         16.3605         53.4864 
        1.14142         47.9454         15.9541         52.8108 
        1.15365          47.222         15.5627         52.1991 
        1.16585         46.5098         15.1856         51.4511 
        1.17807         45.7644         14.8205         50.7864 
        1.19037         45.6355         14.4651         50.3322 
        1.20276          44.815          14.119         49.7052 
        1.21504         44.2443          13.787         49.1508 
        1.22728         43.3762          13.467         48.5661 
        1.23954          42.891         13.1565         47.8903 
        1.25184         42.1702         12.8552         47.4545 
        1.26414         41.5607         12.5633         46.8401 
        1.27632         41.2252          12.283          46.361 
         1.2886         40.7912         12.0094         45.8593 
        1.30093         40.1045         11.7432         45.2686 
        1.31316          39.486         11.4869         44.8975 
        1.32541         39.2261         11.2383         44.3878 
        1.33772         38.4704         10.9958         43.9216 
        1.35005         38.0414         10.7602         43.4904 
        1.36225         37.4172         10.5339         43.0685 
        1.37447         36.5364         10.3138         42.5832 
        1.38676         36.6716         10.0989         42.2091 
        1.39907         36.0827         9.88982         41.8213 
        1.41133         35.3346         9.68757         41.3806 
        1.42358         34.9716         9.49118         40.9487 
        1.43591         34.5755          9.2989         40.5979 
        1.44818         34.2146         9.11302         40.1298 
        1.46037         33.7641         8.93334         39.7652 
        1.47263         33.5255         8.75751         39.4489 
        1.48494         32.8623         8.58575         39.0317 
        1.49724         32.7594         8.41875         38.6697 
        1.50952         32.2784         8.25654         38.3583 
        1.52178         31.7899         8.09884          37.988 
        1.53409         31.5385         7.94464         37.6538 
        1.54637         31.1056         7.79478         37.2732 
        1.55858          30.398         7.64964         36.9549 
        1.57081         30.4859           7.508         36.6683 
        1.58313         30.1089         7.36907         36.3186 
        1.59544          29.548         7.23374          36.017 
        1.60767         29.2072         7.10268         35.6602 
        1.61994         28.8592         6.97442         35.3833 
        1.63225         28.7072         6.84906         35.1196 
        1.64452         28.2887         6.72714         34.8243 
        1.65676         27.9818         6.60857         34.5083 
          1.669         27.7069         6.49277         34.2604 
        1.68133         27.3709         6.37902         33.9479 
        1.69363         26.9681         6.26833         33.6172 
        1.70585         26.7617         6.16098         33.4404 
        1.71809           26.32         6.05593         33.0913 
        1.73038         26.1861         5.95299         32.8843 
        1.74268         25.8428         5.85239         32.5537 
        1.75493         25.5281         5.75458         32.3272 
        1.76714         25.3754         5.65926          32.091 
        1.77942         25.0886         5.56561         31.8215 
        1.79173         24.6561         5.47385         31.5719 
        1.80402         24.4051         5.38434         31.4062 
         1.8163         24.2941         5.29689         31.0345 
         1.8286         23.8586         5.21124          30.856 
         1.8409         23.6577         5.12755         30.6247 
        1.85315         23.4152         5.04598         30.4094 
        1.86537         23.1017         4.96635         30.1786 
        1.87765         22.9745         4.88814         29.9433 
        1.88995         22.6524         4.81144         29.6798 
        1.90221         22.4237         4.73664         29.4685 
        1.91445         22.1374         4.66356         29.2544 
        1.92674         21.9427         4.59178          29.037 
        1.93902         21.6854          4.5215         28.8522 
        1.95124          21.353         4.45306         28.6898 
         1.9635         21.2358         4.38587         28.4314 
        1.97583         21.0115         4.31964         28.2313 
        1.98812          20.838         4.25503         28.0474 
        2.00039         20.6059         4.19188         27.8378 
        2.01264         20.3618         4.13006         27.6575 
        2.02492         20.2065          4.0694         27.4253 
        2.03717         19.8899         4.01007          27.248 
        2.04942         19.7339         3.95199         27.0424 
        2.06171         19.5943         3.89487         26.8655 
        2.07397         19.3906           3.839         26.6557 
        2.08629         19.2005         3.78399         26.4661 
        2.09857         19.0063          3.7302         26.3016 
        2.11081         18.7685         3.67767         26.1181 
        2.12309         18.6414         3.62603         25.9357 
        2.13538          18.398          3.5753         25.7629 
        2.14763         18.2306         3.52572          25.591 
        2.15986         18.0871         3.47719         25.4258 
        2.17214         17.8847         3.42938         25.2584 
        2.18443         17.7157         3.38243         25.0701 
        2.19671         17.5207         3.33641         24.8929 
        2.20898         17.3564          3.2913         24.7293 
        2.22126         17.2302         3.24697         24.5779 
        2.23354         17.1284         3.20348         24.4119 
         2.2458         16.9188         3.16086         24.2765 
        2.25807         16.6979         3.11898         24.0706 
        2.27035          16.561         3.07782         23.9307 
        2.28263         16.3999         3.03743         23.7752 
         2.2949         16.3026         2.99778         23.6325 
        2.30718         16.1485         2.95883         23.4834 
        2.31946         16.0279         2.92055         23.3177 
        2.33169         15.8505         2.88311         23.1674 
        2.34393         15.7037         2.84627         23.0385 
        2.35622         15.5058         2.80996         22.8837 
        2.36847         15.3848         2.77438         22.7267 
        2.38076         15.2239         2.73931         22.5989 
        2.39305          15.127         2.70486         22.4515 
        2.40534         14.9608           2.671         22.2823 
        2.41762         14.8148         2.63772         22.1787 
        2.42989         14.6979         2.60506         22.0159 
        2.44216         14.5535         2.57296         21.8825 
         2.4544         14.5387         2.54147         21.7326 
        2.46667         14.3404         2.51044         21.6113 
        2.47897         14.1628         2.47985         21.4661 
        2.49124         14.1085         2.44985         21.3347 
        2.50349         13.9364          2.4204         21.1921 
        2.51578         13.8407         2.39134         21.0901 
        2.52805         13.7298         2.36281         20.9513 
        2.54029         13.6353         2.33482          20.822 
        2.55257         13.5349         2.30719         20.6913 
        2.56487         13.3575         2.27996         20.5683 
        2.57716         13.2751         2.25321         20.4252 
        2.58942         13.2034         2.22695         20.3251 
        2.60167         13.0267         2.20113         20.2006 
        2.61395         13.0168         2.17568         20.0758 
        2.62624          12.913          2.1506         19.9522 
        2.63849          12.773         2.12599         19.8505 
        2.65073         12.6738          2.1018          19.718 
        2.66302         12.6006         2.07789         19.6107 
         2.6753          12.543         2.05437         19.4847 
        2.68756         12.4301         2.03127         19.3783 
        2.69983         12.3292          2.0085         19.2567 
        2.71213         12.2228         1.98604         19.1296 
        2.72441         12.1837         1.96395         19.0283 
        2.73665         12.0939         1.94226         18.9164 
         2.7489         12.0454         1.92091         18.7985 
        2.76118         11.9109         1.89981         18.6953 
        2.77349          11.848         1.87898         18.5856 
        2.78576         11.7476         1.85854         18.4849 
        2.79802         11.7158         1.83842         18.3698 
        2.81031         11.6358         1.81855         18.2598 
        2.82259         11.5695         1.79898         18.1615 
        2.83483         11.5205         1.77978         18.0595 
         2.8471          11.457         1.76081         17.9492 
         2.8594         11.4068         1.74207         17.8402 
         2.8717         11.3445          1.7236         17.7441 
        2.88396         11.2684         1.70547         17.6422 
        2.89619         11.2381         1.68764          17.539 
        2.90847         11.1902         1.66999         17.4478 
        2.92072          11.146         1.65262         17.3326 
        2.93299         11.0547          1.6355         17.2442 
        2.94526         11.0384          1.6186         17.1534 
        2.95753         10.9899         1.60194         17.0499 
        2.96982         10.9441         1.58549         16.9527 
        2.98209         10.9386         1.56931         16.8581 
        2.99436         10.9058         1.55333         16.7578 
        3.00666         10.8795         1.53755         16.6653 
        3.01894         10.8504         1.52203          16.586 
        3.03119         10.8135         1.50673         16.4879 
        3.04345         10.7491         1.49165         16.3834 
        3.05573         10.7661         1.47674         16.2967 
          3.068         10.7426         1.46206         16.2147 
        3.08026         10.7213         1.44759         16.1115 
        3.09254         10.7219         1.43328         16.0303 
        3.10483         10.7127         1.41917         15.9519 
         3.1171         10.7367         1.40527         15.8584 
        3.12933         10.7026         1.39159         15.7694 
        3.14159         10.6682         1.37806         15.6794 
