# k  (h/Mpc)    Pcb(k)  (Mpc/h)^3    Pcb_linear(k) (Mpc/h)^3    Pcb_NL(k) (Mpc/h)^3   ShotnoiseSubtracted = false
      0.0156606           15885         15950.2         15839.5 
      0.0273761         13659.1         13791.9         13676.6 
      0.0384619         10349.3           10391         10294.7 
      0.0498308         8018.44         8173.36         8078.59 
      0.0625568          6770.9         6946.41          6860.1 
      0.0751274         6000.62         5901.76         5778.55 
      0.0867833         4667.23         4751.58         4715.75 
      0.0984825          3907.1         3760.27         3799.61 
       0.111151         3323.83         3139.76         3184.95 
       0.123864         2981.19         2829.56         2866.75 
       0.135742         2706.35         2544.48         2582.29 
        0.14762         2342.33         2175.66         2275.24 
       0.160083         1969.12         1813.54         1933.25 
       0.172465         1756.12         1582.87         1734.16 
       0.184281         1604.42         1459.22         1613.42 
       0.196406         1492.55         1347.58          1481.5 
       0.209011         1384.75         1199.01          1339.5 
       0.221538         1249.17         1047.82         1239.64 
       0.233611          1180.2         937.526         1153.32 
       0.245665         1078.74           865.3         1062.39 
       0.258103         1045.32          805.52         1000.95 
       0.270422         939.087         740.179         936.282 
       0.282519         875.967         671.754         878.772 
       0.294636         866.896         612.043           828.4 
       0.306978         781.121         566.242         790.356 
       0.319417         757.761         529.404         744.115 
        0.33169         714.014         494.142          701.99 
       0.343948         681.207         457.851          677.51 
       0.356249         641.127         423.817         649.953 
       0.368458         621.225          395.31         616.577 
        0.38068         601.719         371.471         590.722 
       0.392856         567.813         349.709         567.825 
       0.405069          543.03          328.43         550.185 
       0.417459         520.975         307.826         525.254 
       0.429752         508.863         289.331         506.345 
       0.441978          491.96         273.098         491.998 
       0.454294         466.018         258.357         470.713 
        0.46658         456.628         244.526         459.429 
       0.478753         443.167         231.478         444.127 
       0.490964         426.864         219.222         429.578 
       0.503334         404.063         207.909         418.367 
       0.515665         402.819         197.593         409.268 
       0.527909         388.083          188.07         397.879 
       0.540159         378.265         179.061         386.717 
        0.55248         370.819         170.512         376.129 
       0.564743         365.532         162.596         369.076 
        0.57686         351.335          155.32         358.372 
       0.589077         339.598         148.453         350.453 
       0.601441         335.765         141.922         342.543 
        0.61382         329.504         135.765         335.895 
       0.626067         324.015          130.02         328.574 
       0.638306         309.981         124.609         322.307 
       0.650632         304.853         119.483         313.018 
       0.662899         302.441         114.679         309.041 
       0.675076         290.776         110.177         303.132 
       0.687267         283.506         105.911         296.122 
       0.699615         279.281         101.818         291.001 
       0.711937         274.779         97.9484         285.762 
       0.724148         266.464         94.3127         281.459 
       0.736433         260.662         90.8436         275.699 
       0.748747         256.401         87.5439         270.451 
       0.761037         251.784          84.416         266.105 
       0.773197         248.361         81.4733         262.567 
       0.785376         244.831         78.6675         257.767 
       0.797761         238.878         75.9505         253.999 
       0.810096         235.895         73.3725         250.281 
       0.822371         226.973         70.9268         246.128 
       0.834626         226.325         68.5971         242.417 
       0.846916         221.603         66.3664         238.883 
       0.859215          221.41         64.2343         235.408 
       0.871383         215.404         62.2174         231.745 
        0.88363         213.669         60.2757         229.337 
       0.895928         208.713         58.4098         225.765 
       0.908253          202.98         56.6198         222.011 
       0.920535         202.226         54.9113         219.024 
       0.932774         195.637         53.2795         215.968 
        0.94508           193.8         51.7061         213.701 
       0.957324         193.323         50.2043         210.488 
        0.96953         190.616          48.767         207.429 
       0.981769         184.673         47.3826         205.523 
       0.994071         183.791         46.0456         202.823 
         1.0064         179.562         44.7581         199.741 
        1.01868         177.123         43.5239         197.487 
        1.03092         173.912         42.3419         195.375 
         1.0432         170.518         41.1998          192.94 
        1.05553         167.905         40.0955         190.616 
        1.06777         167.696         39.0399         188.687 
           1.08         163.505         38.0235         186.226 
        1.09227         161.577         37.0402         184.316 
         1.1046         159.027         36.0881         182.258 
         1.1169         156.521         35.1713         179.772 
        1.12915         154.123         34.2911         178.062 
        1.14142         151.649         33.4392         175.738 
        1.15365         149.635         32.6189         173.894 
        1.16585         147.514         31.8284         171.627 
        1.17807         145.448         31.0632         170.389 
        1.19037         144.441         30.3183          168.62 
        1.20276         141.785         29.5928         166.549 
        1.21504         139.578         28.8969         164.758 
        1.22728          136.82         28.2263         162.722 
        1.23954         136.194         27.5755         161.451 
        1.25184         133.502          26.944         159.617 
        1.26414         131.502         26.3321         157.942 
        1.27632         130.978         25.7447         157.074 
         1.2886         128.626         25.1712         154.839 
        1.30093         125.154         24.6132         153.186 
        1.31316         124.592         24.0762         151.531 
        1.32541         122.782         23.5551         150.397 
        1.33772         121.582         23.0467         148.767 
        1.35005         119.874         22.5529          147.11 
        1.36225         118.392         22.0787           145.8 
        1.37447         116.251         21.6173         144.168 
        1.38676         115.211         21.1669          142.72 
        1.39907          112.78         20.7287         141.412 
        1.41133         111.248         20.3048         140.244 
        1.42358         109.653         19.8932          138.89 
        1.43591         108.761         19.4902         137.327 
        1.44818         107.698         19.1006           136.2 
        1.46037         105.578         18.7239         134.813 
        1.47263         104.405         18.3554         133.798 
        1.48494         103.099         17.9954         132.312 
        1.49724         101.565         17.6454         130.988 
        1.50952         99.7637         17.3054         129.839 
        1.52178         99.1245         16.9749         128.604 
        1.53409         97.5946         16.6517         127.503 
        1.54637         95.9963         16.3376         126.368 
        1.55858         94.6137         16.0334         125.126 
        1.57081         93.2743         15.7365         124.048 
        1.58313          92.206         15.4453         122.884 
        1.59544         91.1767         15.1617         121.804 
        1.60767         89.8158          14.887         120.632 
        1.61994         88.4369         14.6181         119.845 
        1.63225         87.2097         14.3554          118.39 
        1.64452         85.8415         14.0998         117.415 
        1.65676         84.6978         13.8513         116.446 
          1.669         84.0955         13.6086         115.506 
        1.68133         82.7501         13.3702         114.409 
        1.69363         81.8306         13.1382          113.48 
        1.70585         80.5475         12.9132         112.426 
        1.71809         79.3476          12.693         111.488 
        1.73038         78.6147         12.4773         110.462 
        1.74268          77.335         12.2664         109.522 
        1.75493         76.5731         12.0614         108.535 
        1.76714         75.2942         11.8616         107.654 
        1.77942         74.6629         11.6653         106.663 
        1.79173         73.3722          11.473           105.8 
        1.80402         72.6905         11.2854         104.965 
         1.8163         71.5806         11.1021         103.898 
         1.8286         70.5539         10.9226         103.128 
         1.8409         69.7818         10.7472         102.232 
        1.85315         68.6675         10.5762         101.453 
        1.86537          67.939         10.4093         100.565 
        1.87765         67.2475         10.2454         99.6152 
        1.88995         66.1734         10.0846          98.893 
        1.90221         65.3413         9.92783          98.039 
        1.91445         64.1394         9.77466         97.2329 
        1.92674         63.4814          9.6242         96.4507 
        1.93902         62.6637         9.47689         95.5829 
        1.95124         62.1853         9.33346         94.9127 
         1.9635         61.0879         9.19263         93.9634 
        1.97583         60.4122         9.05382         93.3455 
        1.98812          59.665          8.9184          92.518 
        2.00039         58.6764         8.78602         91.7682 
        2.01264         58.1738         8.65646         90.9999 
        2.02492         57.2995         8.52932         90.2892 
        2.03717         56.4603         8.40495         89.4876 
        2.04942         55.9185         8.28323         88.8683 
        2.06171         54.9645          8.1635         88.0943 
        2.07397         54.3902          8.0464         87.4467 
        2.08629         53.8692         7.93111         86.6825 
        2.09857         53.1001         7.81836         86.0205 
        2.11081          52.023         7.70826         85.2574 
        2.12309         51.7554         7.60003         84.6662 
        2.13538         50.9714         7.49371         83.9665 
        2.14763          50.397         7.38979         83.3101 
        2.15986         49.4765         7.28807          82.639 
        2.17214         49.0038         7.18787         82.0069 
        2.18443         48.5315         7.08945         81.4017 
        2.19671         47.6526         6.99299         80.7081 
        2.20898         47.4354         6.89844         80.0841 
        2.22126         46.6694         6.80554         79.4257 
        2.23354         46.0287         6.71438         78.8566 
         2.2458         45.5245         6.62506         78.2734 
        2.25807         45.0697         6.53728         77.6058 
        2.27035         44.4754         6.45101         77.0103 
        2.28263         43.7593         6.36634          76.401 
         2.2949         43.3535         6.28324         75.8311 
        2.30718         42.7191         6.20159         75.2796 
        2.31946         42.1536         6.12136         74.7251 
        2.33169         41.6492         6.04289         74.1388 
        2.34393           40.96         5.96568         73.5749 
        2.35622         40.7289         5.88957         73.0072 
        2.36847         40.1964           5.815          72.491 
        2.38076         39.7171          5.7415         71.9097 
        2.39305         39.1911         5.66929         71.3938 
        2.40534          38.807         5.59832         70.8053 
        2.41762         38.4072         5.52857         70.2536 
        2.42989         37.7797         5.46012         69.7922 
        2.44216         37.5082         5.39283         69.2514 
         2.4544         37.0564         5.32683         68.7335 
        2.46667         36.6317         5.26179         68.1898 
        2.47897         36.1935         5.19767         67.7072 
        2.49124         35.7008         5.13481         67.2148 
        2.50349         35.2121         5.07307         66.7091 
        2.51578         34.8151         5.01216         66.2615 
        2.52805         34.6976         4.95236         65.7514 
        2.54029         34.1671         4.89369         65.2534 
        2.55257         33.6684         4.83579         64.7978 
        2.56487         33.4046         4.77872         64.3472 
        2.57716         32.9858         4.72264         63.9062 
        2.58942         32.5937          4.6676         63.4161 
        2.60167         32.1344         4.61348         62.9418 
        2.61395         31.8832         4.56014          62.502 
        2.62624         31.6279         4.50757         62.0466 
        2.63849         31.3217           4.456         61.6161 
        2.65073         30.9754         4.40529         61.1437 
        2.66302         30.6201         4.35518         60.7196 
         2.6753         30.2459         4.30589         60.2969 
        2.68756         29.8157         4.25746         59.8419 
        2.69983         29.6272         4.20974         59.4504 
        2.71213         29.3386         4.16266         59.0494 
        2.72441          29.116         4.11638         58.6105 
        2.73665         28.8278         4.07091         58.1923 
         2.7489         28.6182         4.02615          57.792 
        2.76118          28.205         3.98193          57.391 
        2.77349         28.0741         3.93827         56.9992 
        2.78576          27.869         3.89544         56.5829 
        2.79802         27.4805         3.85327         56.2111 
        2.81031         27.2431         3.81162          55.828 
        2.82259         27.0357          3.7706         55.4201 
        2.83483         26.7576         3.73035         55.0406 
         2.8471         26.4479          3.6906         54.6737 
         2.8594         26.3321         3.65131         54.3131 
         2.8717         26.0373         3.61261          53.935 
        2.88396         25.8584         3.57461         53.5442 
        2.89619         25.6205         3.53723          53.181 
        2.90847         25.4536         3.50024         52.8347 
        2.92072         25.2997         3.46384         52.4671 
        2.93299           25.16         3.42794         52.1049 
        2.94526         24.8991         3.39252         51.7737 
        2.95753         24.7654         3.35761         51.4362 
        2.96982         24.7037         3.32313         51.0867 
        2.98209         24.4633         3.28921         50.7496 
        2.99436         24.2582         3.25573         50.3996 
        3.00666         24.2439         3.22266         50.0685 
        3.01894         24.0385         3.19011         49.7155 
        3.03119         23.9368         3.15806          49.393 
        3.04345         23.8264         3.12645         49.0877 
        3.05573         23.7724          3.0952         48.7654 
          3.068         23.6482         3.06442         48.4414 
        3.08026         23.4985         3.03409         48.1187 
        3.09254         23.4383         3.00411         47.8076 
        3.10483         23.4319         2.97453         47.5022 
         3.1171         23.3851         2.94539         47.1932 
        3.12933         23.3158         2.91672         46.8845 
        3.14159         23.1936         2.88837          46.578 
