# k  (h/Mpc)    Pcb(k)  (Mpc/h)^3    Pcb_linear(k) (Mpc/h)^3    Pcb_NL(k) (Mpc/h)^3   ShotnoiseSubtracted = false
      0.0156606         22372.5         22499.2         22319.1 
      0.0273761         19168.6         19451.6         19233.8 
      0.0384619         14491.7         14653.9         14459.8 
      0.0498308         11188.9           11526         11330.4 
      0.0625568         9455.19         9795.42         9621.82 
      0.0751274         8426.67         8322.15         8078.65 
      0.0867833         6525.06         6700.18          6624.5 
      0.0984825         5522.38          5302.3         5368.55 
       0.111151         4728.41          4427.3         4510.69 
       0.123864         4236.08         3989.87         4057.23 
       0.135742          3865.1         3587.87          3655.3 
        0.14762         3367.71          3067.8         3246.22 
       0.160083         2866.78         2557.18         2777.89 
       0.172465         2557.05         2231.93         2513.12 
       0.184281         2315.69         2057.57         2339.04 
       0.196406         2189.43         1900.16          2155.7 
       0.209011         2051.46         1690.65         1955.03 
       0.221538         1846.74         1477.47         1827.71 
       0.233611         1773.88         1321.95         1714.68 
       0.245665          1607.1         1220.11         1584.45 
       0.258103         1595.11         1135.82         1496.72 
       0.270422         1423.17         1043.68         1407.19 
       0.282519         1346.55         947.199         1334.14 
       0.294636         1320.88         863.003         1264.76 
       0.306978         1209.27         798.423         1212.96 
       0.319417          1187.6         746.479         1143.97 
        0.33169         1116.16         696.758         1084.27 
       0.343948         1072.79         645.586         1051.46 
       0.356249         1018.49         597.597         1013.17 
       0.368458         977.327         557.401         969.417 
        0.38068         963.615         523.786         933.253 
       0.392856         916.048         493.102         901.455 
       0.405069         868.562         463.098         872.079 
       0.417459          835.82         434.046         842.624 
       0.429752         833.737         407.967          813.42 
       0.441978         804.638         385.078         793.244 
       0.454294         770.226         364.293         761.419 
        0.46658         748.668          344.79         746.159 
       0.478753         735.273         326.392         724.028 
       0.490964         707.424          309.11         702.225 
       0.503334         677.886         293.159         687.088 
       0.515665         675.381         278.613         671.578 
       0.527909         647.421         265.185         658.005 
       0.540159         632.294         252.481         641.787 
        0.55248         619.772         240.427         625.362 
       0.564743         614.833         229.265         614.837 
        0.57686         595.115         219.007         598.886 
       0.589077         585.401         209.323         585.905 
       0.601441         571.479         200.115         574.754 
        0.61382         555.558         191.433         564.719 
       0.626067         550.196         183.332         554.477 
       0.638306         530.399         175.703          543.23 
       0.650632         525.682         168.475         530.695 
       0.662899         521.665         161.701         524.228 
       0.675076          505.36         155.353         517.316 
       0.687267         491.014         149.338         505.193 
       0.699615         489.993         143.567         497.248 
       0.711937         479.762          138.11         487.878 
       0.724148         464.505         132.984         481.525 
       0.736433         453.842         128.092         473.114 
       0.748747         448.314          123.44         464.866 
       0.761037         440.613         119.029         459.361 
       0.773197         433.995          114.88         451.729 
       0.785376         428.826         110.924         445.313 
       0.797761         416.169         107.093          438.85 
       0.810096         411.616         103.458         433.266 
       0.822371         401.111         100.009         426.288 
       0.834626         397.283          96.724         421.423 
       0.846916         391.486         93.5788         414.831 
       0.859215         386.862         90.5723         408.767 
       0.871383         378.439         87.7286          403.45 
        0.88363          374.19         84.9906         399.391 
       0.895928         369.102         82.3597         393.218 
       0.908253         360.084         79.8358         386.761 
       0.920535         353.128         77.4266         382.689 
       0.932774         348.123         75.1257         376.863 
        0.94508         342.957         72.9073         373.129 
       0.957324         339.502         70.7896         368.173 
        0.96953         335.312         68.7629         363.738 
       0.981769         327.458         66.8109         359.694 
       0.994071         326.335         64.9257         355.345 
         1.0064         320.386         63.1104          350.19 
        1.01868         316.814           61.37         345.757 
        1.03092         307.576         59.7034         342.752 
         1.0432         304.861          58.093         338.612 
        1.05553         301.784         56.5359         333.947 
        1.06777         297.811         55.0475         330.171 
           1.08         291.155         53.6144         326.542 
        1.09227         290.615         52.2278         322.626 
         1.1046         284.963         50.8854         319.591 
         1.1169         279.026         49.5927         315.364 
        1.12915         275.238         48.3515         312.157 
        1.14142          269.77         47.1503         308.492 
        1.15365         266.971         45.9937         305.261 
        1.16585         262.475          44.879         301.855 
        1.17807         260.045         43.8001         298.582 
        1.19037         255.614         42.7498         296.061 
        1.20276          252.63         41.7268         292.198 
        1.21504         247.475         40.7455         288.922 
        1.22728         243.984            39.8         285.787 
        1.23954          242.67         38.8823         282.925 
        1.25184         237.166         37.9919         279.945 
        1.26414         232.567         37.1291         277.302 
        1.27632         230.739         36.3009         274.757 
         1.2886         228.735         35.4922         271.643 
        1.30093         223.668         34.7054           268.2 
        1.31316         219.056         33.9482          265.64 
        1.32541         218.022         33.2135         262.818 
        1.33772         214.199         32.4965         260.439 
        1.35005         211.832         31.8003         257.497 
        1.36225         207.862         31.1317         255.091 
        1.37447         204.681          30.481         252.002 
        1.38676         202.812          29.846         250.229 
        1.39907         199.933         29.2281         247.173 
        1.41133         196.163         28.6304         244.592 
        1.42358         193.863           28.05         242.293 
        1.43591         191.427         27.4817         240.126 
        1.44818          187.81         26.9324         237.595 
        1.46037          186.36         26.4013         235.044 
        1.47263         182.758         25.8817         232.826 
        1.48494          181.34         25.3741         230.035 
        1.49724         178.203         24.8805         228.594 
        1.50952         175.064         24.4011         225.945 
        1.52178         173.256         23.9351         223.693 
        1.53409          170.22         23.4794         221.656 
        1.54637         167.683         23.0365         219.825 
        1.55858          165.91         22.6076         217.486 
        1.57081         163.121          22.189         215.382 
        1.58313          161.07         21.7784         213.194 
        1.59544         158.143         21.3784         211.295 
        1.60767         156.767         20.9911         209.419 
        1.61994         154.175          20.612         207.319 
        1.63225         151.772         20.2415         205.216 
        1.64452         149.413         19.8812         203.398 
        1.65676         147.568         19.5308         201.655 
          1.669         145.916         19.1886         199.649 
        1.68133         143.136         18.8524         197.827 
        1.69363         140.696         18.5253         196.182 
        1.70585         138.578          18.208         194.356 
        1.71809         136.868         17.8975         192.275 
        1.73038         135.214         17.5933         190.673 
        1.74268         134.024          17.296         188.807 
        1.75493         130.932         17.0069         187.282 
        1.76714         130.384         16.7252         185.646 
        1.77942         127.706         16.4485         183.913 
        1.79173         125.854         16.1773         182.186 
        1.80402         124.232         15.9127         180.564 
         1.8163         122.029         15.6543         179.126 
         1.8286         120.459         15.4012         177.367 
         1.8409         119.065         15.1538         175.724 
        1.85315         116.778         14.9128         174.283 
        1.86537         115.675         14.6774         172.812 
        1.87765         114.269         14.4463         171.333 
        1.88995         112.197         14.2196         169.695 
        1.90221         110.891         13.9986         168.376 
        1.91445         109.242         13.7826         166.756 
        1.92674         107.557         13.5704         165.285 
        1.93902          106.29         13.3627         163.796 
        1.95124         104.876         13.1605         162.419 
         1.9635         103.151         12.9619         161.006 
        1.97583          101.61         12.7662         159.584 
        1.98812         100.201         12.5752         158.452 
        2.00039         99.1048         12.3886         156.922 
        2.01264         97.9091         12.2059         155.632 
        2.02492         96.5791         12.0266         154.204 
        2.03717         95.1417         11.8512         152.998 
        2.04942         93.9721         11.6796         151.687 
        2.06171         92.3354         11.5108         150.338 
        2.07397         91.2782         11.3457         149.198 
        2.08629         89.9308         11.1831         147.894 
        2.09857         88.8796         11.0241         146.714 
        2.11081          87.469         10.8689         145.359 
        2.12309         86.3977         10.7163         144.252 
        2.13538         85.0351         10.5664         142.991 
        2.14763         83.8808         10.4198          141.83 
        2.15986         82.9798         10.2764         140.564 
        2.17214         81.8268         10.1351         139.485 
        2.18443         80.8487         9.99634         138.489 
        2.19671         79.8341         9.86033          137.28 
        2.20898         78.8068         9.72701         136.046 
        2.22126         77.6669         9.59602         135.052 
        2.23354          76.751         9.46749         133.974 
         2.2458         75.2693         9.34153         132.841 
        2.25807          74.566         9.21776         131.781 
        2.27035         73.4899         9.09612         130.711 
        2.28263         72.6173         8.97674         129.717 
         2.2949         71.2342         8.85956         128.692 
        2.30718         70.2961         8.74444         127.635 
        2.31946         69.6954          8.6313         126.544 
        2.33169         68.5973         8.52066         125.597 
        2.34393         68.0607         8.41179         124.715 
        2.35622         66.8707         8.30447         123.648 
        2.36847         66.2312         8.19933         122.794 
        2.38076         65.0509         8.09569         121.713 
        2.39305          64.458         7.99387         120.873 
        2.40534         63.5026          7.8938         119.865 
        2.41762         62.8298         7.79546          118.91 
        2.42989         61.8649         7.69893         118.047 
        2.44216         61.2977         7.60406         117.061 
         2.4544         60.3522           7.511         116.218 
        2.46667         59.5368         7.41928         115.331 
        2.47897         58.9704         7.32888         114.376 
        2.49124         58.2962         7.24023         113.525 
        2.50349         57.3382         7.15319         112.685 
        2.51578         56.9351          7.0673         111.919 
        2.52805         56.0708         6.98299         110.984 
        2.54029         55.5252         6.90025          110.14 
        2.55257         54.8003         6.81861         109.378 
        2.56487         54.4617         6.73814         108.562 
        2.57716         53.8482         6.65907         107.752 
        2.58942         52.9689         6.58146          106.96 
        2.60167         52.4089         6.50515         106.184 
        2.61395          52.051         6.42994         105.378 
        2.62624         51.1736         6.35582         104.543 
        2.63849         50.6454          6.2831         103.817 
        2.65073         49.9783         6.21159         103.054 
        2.66302         49.5654         6.14094         102.296 
         2.6753         48.9333         6.07144         101.579 
        2.68756         48.5843         6.00315         100.807 
        2.69983         47.9798         5.93587         100.088 
        2.71213         47.4443         5.86948         99.3757 
        2.72441         47.0306         5.80422         98.6448 
        2.73665         46.5119         5.74011         97.9702 
         2.7489         46.0161           5.677         97.2833 
        2.76118          45.588         5.61465         96.5569 
        2.77349          45.111         5.55309         95.8906 
        2.78576          44.689         5.49269          95.187 
        2.79802         44.3071         5.43322         94.5785 
        2.81031         43.7215          5.3745         93.8879 
        2.82259         43.3118         5.31667         93.1907 
        2.83483         42.8541          5.2599         92.5847 
         2.8471         42.4688         5.20386         91.9119 
         2.8594         42.0299         5.14846         91.2608 
         2.8717         41.7461         5.09389         90.6727 
        2.88396         41.3864         5.04031         90.0394 
        2.89619         41.0586          4.9876         89.3701 
        2.90847         40.6644         4.93544         88.7196 
        2.92072         40.3526         4.88412         88.1741 
        2.93299         40.2004          4.8335         87.5888 
        2.94526          39.794         4.78356         86.9683 
        2.95753         39.5387         4.73433         86.3621 
        2.96982         39.1347         4.68572         85.7902 
        2.98209         38.9841         4.63788         85.2139 
        2.99436         38.6749         4.59067         84.6046 
        3.00666         38.5227         4.54404          84.039 
        3.01894         38.2746         4.49815         83.4845 
        3.03119         38.0379         4.45296         82.9487 
        3.04345         37.8008         4.40839         82.4027 
        3.05573         37.7068         4.36433         81.8416 
          3.068         37.4684         4.32093         81.3026 
        3.08026         37.2584         4.27816         80.7593 
        3.09254         37.1876         4.23589         80.2333 
        3.10483         37.1813         4.19418         79.7084 
         3.1171         36.9816         4.15309         79.1746 
        3.12933          36.729         4.11266         78.6488 
        3.14159         36.7408         4.07269         78.1248 
