# k  (h/Mpc)    P(k)  (Mpc/h)^3    P_linear(k)  (Mpc/h)^3     P_NL(k)  ShotnoiseSubtracted = false
      0.0156606         22352.1         22452.6         22272.8 
      0.0273761           19119         19379.1         19162.2 
      0.0384619         14439.1         14586.4         14393.2 
      0.0498308         11139.4         11466.4         11271.8 
      0.0625568         9407.75         9740.86         9568.22 
      0.0751274         8380.95         8273.64         8031.55 
      0.0867833         6487.57            6660         6584.78 
      0.0984825         5488.55         5269.85         5335.69 
       0.111151         4698.12         4399.76         4482.64 
       0.123864         4207.49         3964.75         4031.69 
       0.135742         3838.51         3565.09         3632.09 
        0.14762         3343.83         3048.19         3225.47 
       0.160083         2845.39         2540.74         2760.02 
       0.172465         2537.58         2217.51         2496.88 
       0.184281         2297.26         2044.23         2323.87 
       0.196406         2171.55          1887.8         2141.68 
       0.209011         2033.92         1679.63         1942.28 
       0.221538         1830.37         1467.81         1815.76 
       0.233611         1757.84         1313.29         1703.45 
       0.245665          1592.2          1212.1         1574.06 
       0.258103         1579.97         1128.35         1486.89 
       0.270422          1408.9         1036.82         1397.94 
       0.282519         1332.86         940.961         1325.36 
       0.294636         1306.95         857.313         1256.42 
       0.306978         1196.28         793.154         1204.96 
       0.319417         1174.38          741.55         1136.42 
        0.33169         1103.31         692.154         1077.11 
       0.343948         1060.23         641.317         1044.51 
       0.356249         1006.14         593.643         1006.47 
       0.368458         965.061         553.711         962.999 
        0.38068         951.277         520.321         927.078 
       0.392856         904.054         489.837         895.487 
       0.405069         856.775         460.028         866.299 
       0.417459         824.074         431.169         837.039 
       0.429752         821.753         405.262         808.027 
       0.441978         792.831         382.524         787.982 
       0.454294         758.518         361.876         756.368 
        0.46658         737.088         342.501         741.206 
       0.478753         723.617         324.224          719.22 
       0.490964         695.771         307.056         697.558 
       0.503334         666.536         291.211         682.524 
       0.515665         663.854         276.762         667.117 
       0.527909         636.076         263.423         653.633 
       0.540159         620.883         250.803         637.521 
        0.55248         608.312         238.829         621.204 
       0.564743         603.127         227.741          610.75 
        0.57686         583.645         217.551         594.904 
       0.589077         573.934         207.931         582.009 
       0.601441         559.917         198.784         570.932 
        0.61382         544.106          190.16         560.963 
       0.626067         538.472         182.112         550.789 
       0.638306         518.936         174.534         539.616 
       0.650632         514.114         167.354         527.164 
       0.662899         509.915         160.625          520.74 
       0.675076         493.772          154.32         513.874 
       0.687267         479.483         148.345         501.831 
       0.699615         478.246         142.611         493.939 
       0.711937         467.946         137.191         484.631 
       0.724148         452.902         132.099          478.32 
       0.736433         442.333          127.24         469.964 
       0.748747         436.717         122.618         461.772 
       0.761037         429.012         118.237         456.302 
       0.773197         422.292         114.115         448.721 
       0.785376         417.055         110.185         442.348 
       0.797761         404.557          106.38         435.928 
       0.810096         399.902         102.769         430.381 
       0.822371         389.514         99.3431         423.449 
       0.834626         385.578         96.0799         418.617 
       0.846916         379.831         92.9555         412.069 
       0.859215         375.121         89.9691         406.044 
       0.871383         366.786         87.1443         400.763 
        0.88363         362.399         84.4245         396.731 
       0.895928         357.366         81.8111         390.599 
       0.908253          348.52          79.304         384.185 
       0.920535         341.485         76.9109         380.139 
       0.932774         336.498         74.6253         374.352 
        0.94508         331.321         72.4216         370.643 
       0.957324         327.783          70.318          365.72 
        0.96953         323.594         68.3048         361.314 
       0.981769         315.824         66.3658         357.298 
       0.994071         314.599         64.4931         352.978 
         1.0064          308.68         62.6899         347.857 
        1.01868          305.09         60.9611         343.453 
        1.03092         295.993         59.3056         340.468 
         1.0432         293.195         57.7059         336.356 
        1.05553           290.1         56.1592         331.722 
        1.06777         286.099         54.6807         327.971 
           1.08         279.558         53.2571         324.366 
        1.09227         278.881         51.8798         320.476 
         1.1046         273.289         50.5463         317.461 
         1.1169          267.45         49.2622         313.263 
        1.12915         263.711         48.0292         310.077 
        1.14142         258.359         46.8361         306.436 
        1.15365         255.459         45.6871         303.226 
        1.16585         251.034         44.5799         299.844 
        1.17807         248.589         43.5082         296.592 
        1.19037         244.187         42.4648         294.088 
        1.20276         241.191         41.4487          290.25 
        1.21504         236.168          40.474         286.996 
        1.22728         232.704         39.5347         283.882 
        1.23954         231.326         38.6231         281.039 
        1.25184         225.991         37.7387         278.079 
        1.26414          221.47         36.8816         275.453 
        1.27632          219.61         36.0589         272.925 
         1.2886         217.597         35.2556         269.832 
        1.30093         212.663          34.474         266.412 
        1.31316          208.15         33.7219         263.869 
        1.32541         207.049         32.9921         261.066 
        1.33772         203.365         32.2799         258.703 
        1.35005         200.956         31.5884          255.78 
        1.36225         197.065         30.9241         253.391 
        1.37447         193.954         30.2778         250.322 
        1.38676         192.088         29.6471         248.561 
        1.39907         189.269         29.0332         245.525 
        1.41133         185.601         28.4395         242.961 
        1.42358          183.35          27.863         240.678 
        1.43591         180.927         27.2985         238.525 
        1.44818         177.436         26.7528         236.011 
        1.46037         175.955         26.2253         233.477 
        1.47263         172.473         25.7092         231.274 
        1.48494          171.02         25.2049         228.502 
        1.49724         167.994         24.7147          227.07 
        1.50952         164.988         24.2385         224.439 
        1.52178         163.191         23.7755         222.201 
        1.53409         160.243         23.3228         220.179 
        1.54637         157.771         22.8829          218.36 
        1.55858         156.043         22.4568         216.036 
        1.57081         153.286          22.041         213.946 
        1.58313         151.302         21.6332         211.772 
        1.59544         148.506         21.2359         209.886 
        1.60767         147.116         20.8511         208.023 
        1.61994         144.611         20.4746         205.937 
        1.63225         142.297         20.1066         203.848 
        1.64452         140.017         19.7487         202.042 
        1.65676         138.238         19.4006          200.31 
          1.669         136.632         19.0606         198.318 
        1.68133         133.942         18.7267         196.508 
        1.69363         131.621         18.4017         194.874 
        1.70585         129.566         18.0866          193.06 
        1.71809         127.878         17.7782         190.993 
        1.73038         126.262          17.476         189.402 
        1.74268         125.095         17.1807         187.548 
        1.75493         122.192         16.8935         186.034 
        1.76714         121.591         16.6137         184.408 
        1.77942         119.025         16.3388         182.687 
        1.79173          117.25         16.0694         180.971 
        1.80402         115.695         15.8066         179.361 
         1.8163           113.6         15.5499         177.932 
         1.8286         112.092         15.2985         176.185 
         1.8409          110.75         15.0528         174.552 
        1.85315         108.533         14.8133         173.121 
        1.86537         107.498         14.5796          171.66 
        1.87765         106.136           14.35         170.191 
        1.88995          104.18         14.1248         168.563 
        1.90221         102.913         13.9052         167.254 
        1.91445         101.353         13.6907         165.644 
        1.92674         99.7284         13.4799         164.183 
        1.93902         98.5275         13.2736         162.703 
        1.95124         97.1514         13.0727         161.336 
         1.9635          95.541         12.8755         159.933 
        1.97583         94.0773          12.681         158.519 
        1.98812         92.7203         12.4914         157.396 
        2.00039         91.6778          12.306         155.876 
        2.01264         90.5373         12.1245         154.594 
        2.02492         89.2692         11.9464         153.176 
        2.03717          87.899         11.7722         151.977 
        2.04942         86.7762         11.6017         150.675 
        2.06171         85.2401          11.434         149.336 
        2.07397         84.2425           11.27         148.203 
        2.08629          82.947         11.1085         146.908 
        2.09857         81.9579         10.9506         145.735 
        2.11081          80.622         10.7964          144.39 
        2.12309         79.6115         10.6448          143.29 
        2.13538         78.3042         10.4959         142.037 
        2.14763         77.2373         10.3503         140.884 
        2.15986         76.3723         10.2079         139.626 
        2.17214         75.2784         10.0675         138.555 
        2.18443         74.3482         9.92968         137.565 
        2.19671         73.3987         9.79458         136.365 
        2.20898          72.434         9.66215         135.139 
        2.22126         71.3664         9.53203         134.151 
        2.23354           70.49         9.40436         133.081 
         2.2458          69.119         9.27924         131.955 
        2.25807         68.4366         9.15629         130.902 
        2.27035         67.4455         9.03547         129.839 
        2.28263         66.6193         8.91688         128.852 
         2.2949         65.3274         8.80048         127.834 
        2.30718         64.4518         8.68613         126.783 
        2.31946         63.8666         8.57375           125.7 
        2.33169         62.8517         8.46385         124.759 
        2.34393         62.3306          8.3557         123.883 
        2.35622         61.2328          8.2491         122.824 
        2.36847         60.6247         8.14465         121.975 
        2.38076         59.5341         8.04171         120.901 
        2.39305         58.9692         7.94057         120.067 
        2.40534         58.0805         7.84116         119.066 
        2.41762         57.4597         7.74347         118.117 
        2.42989         56.5489         7.64759          117.26 
        2.44216         56.0377         7.55335          116.28 
         2.4544         55.1459         7.46091         115.443 
        2.46667          54.371         7.36981         114.562 
        2.47897         53.8595         7.28001         113.613 
        2.49124         53.2324         7.19195         112.768 
        2.50349         52.3384         7.10548         111.934 
        2.51578         51.9636         7.02017         111.172 
        2.52805          51.151         6.93642         110.244 
        2.54029          50.643         6.85424         109.405 
        2.55257         49.9804         6.77314         108.648 
        2.56487         49.6568          6.6932         107.838 
        2.57716         49.0851         6.61467         107.033 
        2.58942         48.2824         6.53757         106.246 
        2.60167         47.7555         6.46177         105.476 
        2.61395          47.409         6.38706         104.676 
        2.62624         46.6097         6.31343         103.846 
        2.63849         46.1177          6.2412         103.124 
        2.65073         45.5007         6.17017         102.367 
        2.66302         45.1186         6.09999         101.614 
         2.6753         44.5304         6.03095         100.902 
        2.68756         44.2096         5.96312         100.134 
        2.69983         43.6555         5.89629         99.4208 
        2.71213         43.1611         5.83033          98.713 
        2.72441         42.7706         5.76551         97.9869 
        2.73665         42.2969         5.70183         97.3169 
         2.7489         41.8392         5.63914         96.6346 
        2.76118         41.4481         5.57721          95.913 
        2.77349         40.9974         5.51606         95.2511 
        2.78576         40.6136         5.45606         94.5522 
        2.79802         40.2616         5.39699         93.9478 
        2.81031         39.7235         5.33866         93.2618 
        2.82259         39.3467         5.28121         92.5692 
        2.83483         38.9229         5.22483         91.9672 
         2.8471          38.556         5.16916          91.299 
         2.8594         38.1613         5.11413         90.6522 
         2.8717         37.8982         5.05992         90.0681 
        2.88396         37.5792          5.0067         89.4389 
        2.89619         37.2717         4.95434         88.7741 
        2.90847         36.9112         4.90253         88.1279 
        2.92072         36.6277         4.85155          87.586 
        2.93299         36.4818         4.80127         87.0047 
        2.94526         36.1102         4.75166         86.3883 
        2.95753         35.8751         4.70276         85.7861 
        2.96982         35.5011         4.65447         85.2181 
        2.98209         35.3747         4.60695         84.6456 
        2.99436         35.0856         4.56006         84.0403 
        3.00666         34.9481         4.51374         83.4786 
        3.01894         34.7221         4.46816         82.9278 
        3.03119         34.4881         4.42326         82.3955 
        3.04345         34.2841         4.37899         81.8532 
        3.05573         34.1881         4.33523         81.2958 
          3.068         33.9741         4.29211         80.7604 
        3.08026         33.7832         4.24963         80.2207 
        3.09254         33.7134         4.20764         79.6983 
        3.10483         33.7112         4.16621         79.1768 
         3.1171         33.5303         4.12539         78.6466 
        3.12933         33.2981         4.08524         78.1243 
        3.14159         33.3052         4.04553         77.6038 
