# k  (h/Mpc)    Pcb(k)  (Mpc/h)^3    Pcb_linear(k) (Mpc/h)^3    Pcb_NL(k) (Mpc/h)^3   ShotnoiseSubtracted = false
      0.0156606         15860.8         15925.8         15815.3 
      0.0273761         13638.6         13770.8         13655.7 
      0.0384619         10333.9         10375.2           10279 
      0.0498308         8006.69          8160.9         8066.27 
      0.0625568         6761.03         6935.82         6849.64 
      0.0751274         5991.78         5892.76         5769.74 
      0.0867833         4660.48         4744.34         4708.57 
      0.0984825         3901.35         3754.54         3793.82 
       0.111151         3318.89         3134.98         3180.09 
       0.123864         2976.81         2825.25         2862.38 
       0.135742         2702.34          2540.6         2578.36 
        0.14762         2338.82         2172.34         2271.77 
       0.160083         1966.14         1810.77          1930.3 
       0.172465         1753.47         1580.46         1731.52 
       0.184281         1602.07            1457         1610.96 
       0.196406          1490.3         1345.53         1479.24 
       0.209011         1382.64         1197.18         1337.45 
       0.221538         1247.29         1046.22         1237.75 
       0.233611         1178.37         936.097         1151.56 
       0.245665         1077.12         863.982         1060.77 
       0.258103         1043.66         804.293          999.42 
       0.270422         937.664         739.051         934.855 
       0.282519         874.598         670.731         877.432 
       0.294636         865.573          611.11         827.138 
       0.306978         779.894         565.379         789.151 
       0.319417         756.559         528.597         742.981 
        0.33169         712.895         493.389          700.92 
       0.343948         680.137         457.153         676.478 
       0.356249          640.12         423.171         648.962 
       0.368458         620.271         394.708         615.637 
        0.38068         600.769         370.904         589.822 
       0.392856         566.908         349.176          566.96 
       0.405069         542.195          327.93         549.347 
       0.417459         520.177         307.357         524.453 
       0.429752         508.061          288.89         505.574 
       0.441978         491.194         272.682         491.248 
       0.454294         465.283         257.964         469.996 
        0.46658         455.941         244.154         458.728 
       0.478753         442.487         231.125          443.45 
       0.490964         426.228         218.888         428.924 
       0.503334         403.452         207.592         417.729 
       0.515665         402.208         197.292         408.645 
       0.527909         387.517         187.784         397.272 
       0.540159         377.721         178.788         386.128 
        0.55248         370.295         170.252         375.556 
       0.564743         365.006         162.348         368.514 
        0.57686         350.837         155.084         357.826 
       0.589077         339.106         148.227         349.919 
       0.601441         335.296         141.706         342.021 
        0.61382         329.064         135.558         335.383 
       0.626067         323.583         129.822         328.074 
       0.638306         309.562         124.419         321.816 
       0.650632         304.435         119.301         312.541 
       0.662899         302.041         114.504          308.57 
       0.675076         290.397         110.009          302.67 
       0.687267         283.146          105.75         295.671 
       0.699615         278.926         101.663         290.557 
       0.711937         274.432         97.7991         285.327 
       0.724148         266.147          94.169          281.03 
       0.736433         260.361         90.7052         275.279 
       0.748747         256.104         87.4105         270.038 
       0.761037         251.504         84.2873           265.7 
       0.773197         248.086         81.3491         262.167 
       0.785376          244.57         78.5476         257.374 
       0.797761         238.632         75.8347         253.612 
       0.810096         235.651         73.2607         249.899 
       0.822371         226.742         70.8187         245.753 
       0.834626         226.101         68.4925         242.048 
       0.846916         221.395         66.2653         238.519 
       0.859215         221.203         64.1364         235.049 
       0.871383         215.212         62.1226         231.392 
        0.88363         213.479         60.1838         228.987 
       0.895928         208.531         58.3208         225.421 
       0.908253         202.808         56.5336         221.672 
       0.920535         202.064         54.8276          218.69 
       0.932774          195.48         53.1983         215.639 
        0.94508         193.655         51.6273         213.375 
       0.957324         193.183         50.1278         210.167 
        0.96953         190.488         48.6926         207.113 
       0.981769         184.554         47.3103          205.21 
       0.994071         183.678         45.9754         202.514 
         1.0064         179.454         44.6899         199.437 
        1.01868         177.022         43.4576         197.186 
        1.03092         173.827         42.2774         195.077 
         1.0432         170.437          41.137         192.646 
        1.05553         167.826         40.0344         190.325 
        1.06777         167.623         38.9804         188.399 
           1.08         163.442         37.9656         185.942 
        1.09227         161.518         36.9838         184.035 
         1.1046         158.973         36.0331          181.98 
         1.1169         156.481         35.1177         179.498 
        1.12915         154.085         34.2388         177.791 
        1.14142         151.616         33.3882          175.47 
        1.15365         149.609         32.5692         173.629 
        1.16585         147.493         31.7799         171.365 
        1.17807         145.432         31.0159         170.129 
        1.19037         144.434         30.2721         168.363 
        1.20276         141.775         29.5477         166.295 
        1.21504         139.582         28.8529         164.507 
        1.22728         136.829         28.1833         162.474 
        1.23954         136.203         27.5335         161.205 
        1.25184         133.513          26.903         159.373 
        1.26414          131.52          26.292         157.701 
        1.27632         130.998         25.7055         156.835 
         1.2886         128.647         25.1328         154.603 
        1.30093         125.182         24.5757         152.952 
        1.31316         124.631         24.0395           151.3 
        1.32541         122.822         23.5192         150.167 
        1.33772         121.623         23.0116         148.541 
        1.35005         119.921         22.5186         146.886 
        1.36225         118.443         22.0451         145.578 
        1.37447         116.301         21.5843         143.949 
        1.38676         115.271         21.1347         142.502 
        1.39907         112.836         20.6971         141.196 
        1.41133          111.31         20.2738          140.03 
        1.42358         109.718         19.8628         138.678 
        1.43591         108.833         19.4605         137.118 
        1.44818         107.772         19.0714         135.993 
        1.46037         105.652         18.6954         134.607 
        1.47263         104.478         18.3274         133.594 
        1.48494          103.18          17.968          132.11 
        1.49724         101.646         17.6185         130.789 
        1.50952         99.8475          17.279         129.641 
        1.52178          99.208          16.949         128.408 
        1.53409          97.689         16.6263         127.309 
        1.54637         96.0845         16.3127         126.175 
        1.55858         94.7089         16.0089         124.935 
        1.57081         93.3701         15.7125         123.859 
        1.58313         92.3031         15.4218         122.697 
        1.59544         91.2764         15.1386         121.619 
        1.60767         89.9139         14.8643         120.448 
        1.61994         88.5411         14.5959         119.663 
        1.63225         87.3123         14.3335          118.21 
        1.64452         85.9492         14.0784         117.236 
        1.65676          84.805         13.8302         116.268 
          1.669          84.204         13.5879          115.33 
        1.68133         82.8656         13.3498         114.235 
        1.69363         81.9439         13.1182         113.307 
        1.70585         80.6655         12.8935         112.255 
        1.71809         79.4637         12.6737         111.318 
        1.73038         78.7301         12.4582         110.294 
        1.74268         77.4498         12.2477         109.355 
        1.75493          76.693          12.043         108.369 
        1.76714         75.4129         11.8435          107.49 
        1.77942         74.7866         11.6475           106.5 
        1.79173         73.4953         11.4555         105.639 
        1.80402         72.8111         11.2682         104.805 
         1.8163         71.7072         11.0852          103.74 
         1.8286         70.6797         10.9059         102.971 
         1.8409         69.9037         10.7308         102.076 
        1.85315         68.7904         10.5601         101.299 
        1.86537         68.0636         10.3934         100.412 
        1.87765         67.3699         10.2298         99.4634 
        1.88995         66.2976         10.0692         98.7423 
        1.90221         65.4685          9.9127         97.8896 
        1.91445         64.2638         9.75977         97.0848 
        1.92674         63.6109         9.60953         96.3037 
        1.93902         62.7931         9.46245         95.4372 
        1.95124          62.316         9.31923          94.768 
         1.9635         61.2151         9.17862         93.8202 
        1.97583          60.542         9.04002         93.2033 
        1.98812          59.796         8.90481          92.377 
        2.00039         58.8066         8.77263         91.6284 
        2.01264         58.3028         8.64327         90.8612 
        2.02492         57.4282         8.51632         90.1516 
        2.03717         56.5903         8.39214         89.3512 
        2.04942         56.0452          8.2706         88.7329 
        2.06171         55.0944         8.15106         87.9601 
        2.07397         54.5185         8.03414         87.3134 
        2.08629          53.998         7.91903         86.5504 
        2.09857         53.2312         7.80645         85.8894 
        2.11081         52.1499         7.69652         85.1275 
        2.12309         51.8832         7.58844         84.5372 
        2.13538         51.0996         7.48229         83.8385 
        2.14763         50.5257         7.37852         83.1831 
        2.15986         49.6068         7.27697          82.513 
        2.17214           49.13         7.17691         81.8819 
        2.18443         48.6611         7.07864         81.2776 
        2.19671         47.7796         6.98233         80.5851 
        2.20898         47.5613         6.88793         79.9621 
        2.22126         46.7955         6.79517         79.3047 
        2.23354         46.1547         6.70415         78.7365 
         2.2458         45.6516         6.61496         78.1541 
        2.25807         45.1973         6.52731         77.4876 
        2.27035         44.6007         6.44118         76.8929 
        2.28263         43.8841         6.35664         76.2846 
         2.2949         43.4763         6.27366         75.7155 
        2.30718          42.844         6.19214         75.1648 
        2.31946         42.2762         6.11203         74.6113 
        2.33169         41.7726         6.03368         74.0258 
        2.34393         41.0818         5.95659         73.4627 
        2.35622         40.8507         5.88059         72.8959 
        2.36847         40.3181         5.80614         72.3806 
        2.38076         39.8396         5.73275         71.8001 
        2.39305         39.3127         5.66065          71.285 
        2.40534         38.9283         5.58979         70.6974 
        2.41762         38.5272         5.52015         70.1465 
        2.42989         37.8975          5.4518         69.6859 
        2.44216         37.6273         5.38461         69.1459 
         2.4544         37.1754         5.31872         68.6288 
        2.46667         36.7474         5.25377         68.0859 
        2.47897         36.3095         5.18975          67.604 
        2.49124         35.8162         5.12698         67.1124 
        2.50349         35.3265         5.06534         66.6074 
        2.51578         34.9302         5.00452         66.1606 
        2.52805         34.8137         4.94482         65.6512 
        2.54029         34.2815         4.88623          65.154 
        2.55257         33.7823         4.82842         64.6991 
        2.56487         33.5171         4.77143         64.2492 
        2.57716         33.0984         4.71545         63.8089 
        2.58942         32.7058         4.66048         63.3194 
        2.60167         32.2445         4.60645         62.8459 
        2.61395         31.9942         4.55319         62.4068 
        2.62624         31.7384          4.5007          61.952 
        2.63849         31.4303         4.44921         61.5222 
        2.65073         31.0838         4.39857         61.0505 
        2.66302         30.7294         4.34855          60.627 
         2.6753         30.3534         4.29933         60.2051 
        2.68756         29.9229         4.25097         59.7507 
        2.69983         29.7329         4.20333         59.3598 
        2.71213         29.4434         4.15631         58.9594 
        2.72441         29.2224          4.1101         58.5212 
        2.73665         28.9329         4.06471         58.1036 
         2.7489         28.7225         4.02002         57.7039 
        2.76118         28.3092         3.97587         57.3035 
        2.77349         28.1769         3.93227         56.9123 
        2.78576         27.9721         3.88951         56.4967 
        2.79802         27.5833         3.84739         56.1254 
        2.81031          27.345         3.80581         55.7429 
        2.82259         27.1359         3.76486         55.3356 
        2.83483         26.8583         3.72466         54.9567 
         2.8471         26.5477         3.68498         54.5904 
         2.8594         26.4307         3.64575         54.2304 
         2.8717          26.135          3.6071         53.8528 
        2.88396         25.9567         3.56916         53.4626 
        2.89619         25.7186         3.53184         53.0999 
        2.90847         25.5504          3.4949         52.7542 
        2.92072         25.3977         3.45856         52.3871 
        2.93299         25.2577         3.42272         52.0255 
        2.94526         24.9952         3.38735         51.6948 
        2.95753         24.8611         3.35249         51.3578 
        2.96982         24.8004         3.31807         51.0088 
        2.98209         24.5592         3.28419         50.6722 
        2.99436         24.3527         3.25076         50.3228 
        3.00666         24.3395         3.21774         49.9922 
        3.01894          24.134         3.18525         49.6397 
        3.03119         24.0306         3.15325         49.3177 
        3.04345         23.9207         3.12168         49.0129 
        3.05573         23.8661         3.09049         48.6911 
          3.068         23.7424         3.05975         48.3676 
        3.08026         23.5931         3.02946         48.0454 
        3.09254         23.5322         2.99953         47.7348 
        3.10483         23.5259            2.97         47.4298 
         3.1171         23.4783          2.9409         47.1213 
        3.12933         23.4103         2.91227         46.8131 
        3.14159         23.2871         2.88397          46.507 
