# k  (h/Mpc)    Pcb(k)  (Mpc/h)^3    Pcb_linear(k) (Mpc/h)^3    Pcb_NL(k) (Mpc/h)^3   ShotnoiseSubtracted = false
      0.0156606         8501.11         8520.02         8470.47 
      0.0273761         7346.28         7369.24         7330.52 
      0.0384619         5578.28         5552.85         5525.94 
      0.0498308         4345.78         4368.11         4343.62 
      0.0625568         3667.67         3712.58         3688.64 
      0.0751274         3219.08         3154.35         3118.47 
      0.0867833         2524.32         2539.66         2531.15 
      0.0984825         2081.89         2009.85         2025.42 
       0.111151         1756.84         1678.21         1694.51 
       0.123864            1578         1512.42         1526.13 
       0.135742         1424.69         1360.05         1374.16 
        0.14762         1220.39         1162.91         1197.76 
       0.160083         1015.62         969.359         1009.59 
       0.172465         903.054         846.067         895.936 
       0.184281         833.789         779.976         832.217 
       0.196406         763.868         720.306         762.922 
       0.209011         699.083          640.89         687.103 
       0.221538         628.609         560.078         624.563 
       0.233611         579.119         501.125         573.434 
       0.245665         539.563          462.52         527.465 
       0.258103         500.837         430.567         495.161 
       0.270422         461.537         395.641           459.8 
       0.282519         422.392         359.067         426.429 
       0.294636          416.13          327.15         398.061 
       0.306978         368.751         302.669         376.385 
       0.319417         353.959         282.978         353.718 
        0.33169         331.777          264.13         332.404 
       0.343948         316.545         244.731         316.587 
       0.356249         295.069         226.539         301.535 
       0.368458         285.221         211.302         283.517 
        0.38068         271.408         198.559         269.911 
       0.392856         253.606         186.927         258.245 
       0.405069          242.96         175.553         247.806 
       0.417459         231.631          164.54         234.538 
       0.429752         223.095         154.654         225.202 
       0.441978         215.144         145.977         217.678 
       0.454294         200.639         138.098         207.041 
        0.46658         200.697         130.705         200.375 
       0.478753           189.6          123.73         192.998 
       0.490964         183.696         117.179         185.768 
       0.503334         174.164         111.132         179.777 
       0.515665         170.399         105.618         175.213 
       0.527909         165.234         100.528         168.008 
       0.540159         159.844         95.7122         163.101 
        0.55248         155.361         91.1425         157.658 
       0.564743         150.811         86.9113         153.682 
        0.57686         145.942         83.0225         148.651 
       0.589077         139.611         79.3516         145.167 
       0.601441         136.735          75.861         141.362 
        0.61382         134.771         72.5698         137.214 
       0.626067         129.824         69.4986         133.734 
       0.638306         124.933         66.6066         130.607 
       0.650632         120.651         63.8665         126.086 
       0.662899         120.587         61.2988         123.383 
       0.675076         116.284         58.8924          120.43 
       0.687267         113.528         56.6122         117.632 
       0.699615         110.328         54.4242         115.217 
       0.711937         107.172         52.3558         112.202 
       0.724148         106.026         50.4124         110.627 
       0.736433         102.203         48.5581         107.741 
       0.748747         100.138         46.7943         105.416 
       0.761037         98.1287         45.1224         102.955 
       0.773197         95.9835         43.5494         101.769 
       0.785376         93.9883         42.0497          99.212 
       0.797761         92.8978         40.5974         97.7606 
       0.810096         89.6928         39.2194         95.5889 
       0.822371         87.8797         37.9121         93.8215 
       0.834626         85.9967         36.6668         92.2203 
       0.846916         84.9272         35.4745         90.6446 
       0.859215         83.2043         34.3348         88.8626 
       0.871383         82.0399         33.2567         87.3732 
        0.88363         79.8276         32.2188         86.1937 
       0.895928         78.2798         31.2215         84.7847 
       0.908253          76.308         30.2647         83.2805 
       0.920535         75.9499         29.3514         82.0569 
       0.932774          74.298         28.4792         80.6127 
        0.94508         73.3693         27.6382         79.2709 
       0.957324         71.6277         26.8354         78.2477 
        0.96953         71.6958         26.0671         76.8674 
       0.981769         69.2868         25.3271         76.0189 
       0.994071         68.5364         24.6125          74.896 
         1.0064         67.0322         23.9243          73.778 
        1.01868         66.2051         23.2646         72.8123 
        1.03092         65.0299         22.6328         71.7757 
         1.0432         63.9247         22.0223         70.6941 
        1.05553         62.2875          21.432         70.1034 
        1.06777         61.9739         20.8678         69.0982 
           1.08         60.6052         20.3245         68.1388 
        1.09227         59.7748         19.7989           67.15 
         1.1046         58.8575           19.29         66.3152 
         1.1169         58.1924         18.7999         65.3545 
        1.12915         57.3119         18.3294         64.6886 
        1.14142         56.2114         17.8741         63.8913 
        1.15365         55.2922         17.4356         63.1604 
        1.16585         54.5004         17.0131          62.294 
        1.17807         53.6486         16.6041         61.5644 
        1.19037          53.535         16.2059         60.9792 
        1.20276         52.5169         15.8181         60.2584 
        1.21504         51.9933         15.4461         59.5517 
        1.22728          50.916         15.0877         58.9082 
        1.23954         50.3511         14.7398         58.1224 
        1.25184         49.5304         14.4022         57.6163 
        1.26414         48.7621         14.0752         56.9001 
        1.27632         48.3718         13.7612         56.3544 
         1.2886         47.8632         13.4546         55.7087 
        1.30093         47.1384         13.1564         54.9928 
        1.31316         46.4037         12.8693         54.6048 
        1.32541         46.1261         12.5908          53.977 
        1.33772         45.2639          12.319         53.4132 
        1.35005         44.7906         12.0551         52.9044 
        1.36225         44.0261         11.8016         52.3764 
        1.37447         42.9893          11.555         51.8194 
        1.38676         43.1687         11.3142         51.3346 
        1.39907         42.4824           11.08         50.8997 
        1.41133         41.6028         10.8534         50.4278 
        1.42358         41.1532         10.6334          49.858 
        1.43591         40.7696          10.418         49.4514 
        1.44818         40.2927         10.2097         48.8633 
        1.46037         39.7611         10.0084         48.4789 
        1.47263         39.4679         9.81142         48.0892 
        1.48494         38.6794           9.619         47.5763 
        1.49724         38.4765         9.43189         47.1409 
        1.50952         38.0384         9.25016          46.733 
        1.52178         37.4484         9.07349         46.3323 
        1.53409         37.1574         8.90073         45.9198 
        1.54637         36.5736         8.73284          45.471 
        1.55858         35.7951         8.57023         45.0551 
        1.57081         35.8485         8.41155         44.7374 
        1.58313         35.4278          8.2559         44.3405 
        1.59544         34.7938         8.10428         43.9359 
        1.60767         34.3656         7.95745         43.5303 
        1.61994         33.9529         7.81375         43.1804 
        1.63225         33.7422         7.67331         42.8231 
        1.64452         33.3261         7.53671         42.4853 
        1.65676         32.9171         7.40388          42.102 
          1.669         32.6066         7.27414         41.8131 
        1.68133         32.2813          7.1467          41.413 
        1.69363         31.7469         7.02269         41.0619 
        1.70585         31.5371         6.90242         40.8183 
        1.71809          30.994         6.78472          40.382 
        1.73038         30.8305          6.6694         40.1433 
        1.74268         30.3808          6.5567         39.7365 
        1.75493          30.064         6.44711         39.4564 
        1.76714         29.8109         6.34032         39.1723 
        1.77942         29.4953          6.2354         38.8538 
        1.79173         29.0768         6.13259         38.5346 
        1.80402         28.7598         6.03232         38.3267 
         1.8163         28.5764         5.93434         37.8831 
         1.8286         28.0824         5.83838         37.6646 
         1.8409          27.849         5.74462         37.3549 
        1.85315          27.539         5.65324         37.1178 
        1.86537         27.1817         5.56402         36.8385 
        1.87765         27.0509         5.47641          36.543 
        1.88995         26.6452         5.39047         36.2077 
        1.90221         26.3827         5.30667         35.9506 
        1.91445         26.0161          5.2248         35.7092 
        1.92674         25.7859         5.14437         35.4249 
        1.93902          25.496         5.06563         35.1889 
        1.95124         25.0723         4.98896          34.976 
         1.9635         24.9333         4.91369         34.6787 
        1.97583         24.6709         4.83949         34.4536 
        1.98812         24.4573          4.7671         34.1986 
        2.00039         24.1674         4.69635          33.945 
        2.01264         23.8779         4.62709         33.7248 
        2.02492         23.7079         4.55913         33.4527 
        2.03717         23.3349         4.49266         33.2226 
        2.04942         23.1425         4.42759         32.9668 
        2.06171         22.9768         4.36359         32.7584 
        2.07397         22.7233           4.301         32.4952 
        2.08629         22.4909         4.23938         32.2622 
        2.09857         22.2371         4.17911         32.0555 
        2.11081          21.985         4.12026         31.8238 
        2.12309         21.8314          4.0624         31.5979 
        2.13538         21.5059         4.00557          31.404 
        2.14763         21.3708         3.95002         31.1747 
        2.15986         21.1217         3.89566         30.9531 
        2.17214         20.9138         3.84209         30.7606 
        2.18443          20.715         3.78948         30.5171 
        2.19671          20.459         3.73792         30.3117 
        2.20898         20.2788         3.68739         30.0944 
        2.22126         20.1558         3.63773         29.9022 
        2.23354         19.9781         3.58901         29.7197 
         2.2458         19.7814         3.54126         29.5259 
        2.25807         19.4946         3.49434         29.2891 
        2.27035          19.312         3.44822         29.1159 
        2.28263           19.16         3.40297         28.9263 
         2.2949         19.0009         3.35855         28.7374 
        2.30718         18.8176         3.31491         28.5353 
        2.31946         18.6917         3.27202         28.3429 
        2.33169         18.4637         3.23008         28.1571 
        2.34393         18.2946          3.1888         27.9862 
        2.35622         18.1043         3.14812         27.8061 
        2.36847         17.9112         3.10826          27.602 
        2.38076         17.7569         3.06897         27.4511 
        2.39305         17.6202         3.03038         27.2747 
        2.40534         17.4288         2.99244         27.0581 
        2.41762         17.2526         2.95516          26.931 
        2.42989         17.1327         2.91857         26.7154 
        2.44216         16.9218          2.8826         26.5662 
         2.4544         16.9131         2.84732         26.3807 
        2.46667         16.6821         2.81256         26.2216 
        2.47897         16.4773         2.77829         26.0426 
        2.49124         16.4118         2.74468         25.8786 
        2.50349         16.1933         2.71168         25.7059 
        2.51578         16.0983         2.67913         25.5684 
        2.52805         15.9446         2.64716         25.3962 
        2.54029         15.8191          2.6158         25.2353 
        2.55257         15.7083         2.58485         25.0705 
        2.56487         15.5238         2.55434         24.9234 
        2.57716         15.4159         2.52437         24.7461 
        2.58942         15.3339         2.49495         24.6161 
        2.60167         15.1059         2.46602         24.4577 
        2.61395         15.0623         2.43751         24.3044 
        2.62624         14.9672         2.40941         24.1452 
        2.63849         14.7983         2.38184         24.0203 
        2.65073         14.6772         2.35474         23.8567 
        2.66302         14.5888         2.32795         23.7234 
         2.6753          14.527         2.30161         23.5686 
        2.68756         14.3793         2.27572         23.4348 
        2.69983         14.2555         2.25021         23.2769 
        2.71213         14.1295         2.22504         23.1247 
        2.72441         14.0593          2.2003         22.9916 
        2.73665         13.9451           2.176         22.8544 
         2.7489         13.9106         2.15208         22.7145 
        2.76118         13.7531         2.12844         22.5798 
        2.77349         13.6781         2.10511         22.4464 
        2.78576         13.5714         2.08221         22.3207 
        2.79802         13.5174         2.05967         22.1742 
        2.81031         13.4213         2.03741         22.0366 
        2.82259         13.2933         2.01548         21.9201 
        2.83483         13.2858         1.99396         21.7888 
         2.8471         13.2133         1.97272         21.6452 
         2.8594         13.1138         1.95172         21.5105 
         2.8717          13.053         1.93103         21.3927 
        2.88396         12.9717         1.91072         21.2634 
        2.89619         12.9435         1.89074         21.1354 
        2.90847         12.8582         1.87096         21.0259 
        2.92072         12.8144         1.85151         20.8782 
        2.93299         12.7071         1.83232         20.7722 
        2.94526         12.6695         1.81339         20.6592 
        2.95753         12.6348         1.79473         20.5275 
        2.96982         12.5722          1.7763         20.4089 
        2.98209         12.5483         1.75816         20.2934 
        2.99436         12.4946         1.74027         20.1674 
        3.00666         12.4765         1.72259         20.0483 
        3.01894         12.4279         1.70519         19.9472 
        3.03119         12.4067         1.68806         19.8294 
        3.04345         12.3322         1.67116         19.7035 
        3.05573         12.3313         1.65446          19.593 
          3.068         12.2917         1.63801         19.4872 
        3.08026         12.2863         1.62179         19.3622 
        3.09254         12.2465         1.60577         19.2583 
        3.10483         12.2558         1.58996         19.1582 
         3.1171         12.2856         1.57438         19.0454 
        3.12933         12.2443         1.55906         18.9353 
        3.14159          12.202         1.54391         18.8209 
