# k  (h/Mpc)    Pcb(k)  (Mpc/h)^3    Pcb_linear(k) (Mpc/h)^3    Pcb_NL(k) (Mpc/h)^3   ShotnoiseSubtracted = false
      0.0156606         17647.3         17727.4         17598.7 
      0.0273761         15159.4         15327.9         15186.5 
      0.0384619         11479.9           11548         11426.9 
      0.0498308         8885.93         9083.33            8963 
      0.0625568         7505.42         7719.71         7611.13 
      0.0751274         6663.53         6558.73         6404.77 
      0.0867833         5175.87          5280.5         5234.48 
      0.0984825         4347.13         4178.84         4225.15 
       0.111151         3705.23         3489.25         3543.94 
       0.123864         3322.58         3144.52         3189.23 
       0.135742         3020.57          2827.7         2872.95 
        0.14762         2619.89         2417.82          2537.8 
       0.160083         2209.93         2015.39         2161.05 
       0.172465          1971.3         1759.05         1943.74 
       0.184281         1796.67         1621.64          1808.7 
       0.196406         1678.92         1497.58         1662.46 
       0.209011         1562.41         1332.46         1504.45 
       0.221538         1409.24         1164.44         1397.28 
       0.233611         1338.45         1041.88         1303.73 
       0.245665          1219.4         961.611         1201.91 
       0.258103         1191.18         895.177         1133.31 
       0.270422         1066.85         822.564         1061.86 
       0.282519         999.608         746.523         999.837 
       0.294636         987.653         680.165          944.36 
       0.306978         894.021         629.266         902.575 
       0.319417         870.365         588.328         850.217 
        0.33169         819.936         549.141          803.14 
       0.343948         783.606         508.811         776.642 
       0.356249         739.293         470.988         746.175 
       0.368458         714.987         439.309         709.686 
        0.38068         696.336         412.816         680.947 
       0.392856         658.581         388.632         655.464 
       0.405069         628.478         364.985         635.192 
       0.417459         603.867         342.088         608.648 
       0.429752         593.366         321.534         587.023 
       0.441978         573.282         303.495         571.063 
       0.454294         545.103         287.113         546.915 
        0.46658         532.052         271.742         534.619 
       0.478753         518.723         257.242         517.376 
       0.490964         499.263         243.622         500.914 
       0.503334         474.356          231.05          488.54 
       0.515665         473.397         219.586         477.926 
       0.527909          455.35         209.003         465.874 
       0.540159         443.916          198.99         453.134 
        0.55248         435.294          189.49         441.032 
       0.564743         430.811         180.693         433.191 
        0.57686         414.364         172.608         421.065 
       0.589077         402.376         164.976          411.65 
       0.601441         397.211         157.719         402.817 
        0.61382         388.444         150.876          395.53 
       0.626067         383.042         144.491         387.307 
       0.638306         367.572         138.478          379.84 
       0.650632         362.756         132.782         369.493 
       0.662899         359.652         127.443         365.115 
       0.675076          346.03          122.44         358.846 
       0.687267         337.414         117.699         350.346 
       0.699615         333.311          113.15          344.62 
       0.711937         328.355          108.85         338.414 
       0.724148         317.633          104.81         333.416 
       0.736433          310.59         100.955         326.941 
       0.748747          306.26         97.2877         320.887 
       0.761037         300.554         93.8116         316.277 
       0.773197         296.995         90.5414          311.74 
       0.785376         292.476         87.4233         306.604 
       0.797761         285.065         84.4039         301.812 
       0.810096         282.428          81.539         297.833 
       0.822371         272.292         78.8211         292.906 
       0.834626         271.394          76.232         288.854 
       0.846916         265.511         73.7531         284.547 
       0.859215         265.499         71.3836         280.477 
       0.871383         258.426         69.1423         276.388 
        0.88363         256.914         66.9845         273.539 
       0.895928         251.255         64.9109         269.187 
       0.908253         244.708         62.9217         264.857 
       0.920535         243.217          61.023         261.384 
       0.932774          236.33         59.2096          257.76 
        0.94508         233.884         57.4611         255.073 
       0.957324         233.114         55.7921         251.406 
        0.96953         229.769         54.1948         248.016 
       0.981769         222.946         52.6563          245.58 
       0.994071         222.084         51.1705         242.433 
         1.0064         217.244         49.7398         238.822 
        1.01868          214.43         48.3681         235.939 
        1.03092         209.716         47.0546         233.615 
         1.0432         206.129         45.7854         230.753 
        1.05553         203.428         44.5582         227.786 
        1.06777         202.992         43.3851         225.451 
           1.08         198.004         42.2556         222.681 
        1.09227         195.632         41.1628         220.194 
         1.1046         192.799         40.1048         217.928 
         1.1169         189.072          39.086         214.938 
        1.12915         186.443         38.1077         212.995 
        1.14142         183.502          37.161         210.241 
        1.15365         180.989         36.2494         208.029 
        1.16585         178.415         35.3709         205.379 
        1.17807         176.167         34.5206         203.739 
        1.19037         174.545         33.6928         201.757 
        1.20276         171.894         32.8865         199.212 
        1.21504         168.563         32.1132         197.067 
        1.22728         165.463         31.3679         194.546 
        1.23954         164.979         30.6447         193.146 
        1.25184         161.874         29.9429         190.942 
        1.26414         159.215         29.2629         188.969 
        1.27632         158.667         28.6102         187.696 
         1.2886         156.585         27.9728         185.215 
        1.30093         152.056         27.3527         183.166 
        1.31316         150.447         26.7559         181.095 
        1.32541         148.892         26.1769         179.685 
        1.33772         147.506         25.6118         177.769 
        1.35005         145.234         25.0631         175.773 
        1.36225         143.232         24.5361         174.183 
        1.37447         141.136         24.0233         172.122 
        1.38676         139.449         23.5228         170.598 
        1.39907         136.979         23.0358         168.838 
        1.41133         135.012         22.5647         167.353 
        1.42358         133.188         22.1073         165.783 
        1.43591         131.757         21.6594         163.969 
        1.44818         130.307         21.2265         162.533 
        1.46037         128.092         20.8079         160.839 
        1.47263         126.808         20.3984           159.6 
        1.48494         124.836         19.9983         157.706 
        1.49724         123.175         19.6093         156.331 
        1.50952         120.931         19.2315         154.856 
        1.52178         120.463         18.8642         153.233 
        1.53409         118.021          18.505         151.971 
        1.54637         116.603          18.156         150.673 
        1.55858         114.536         17.8179         149.087 
        1.57081         113.086          17.488         147.829 
        1.58313         111.742         17.1644         146.353 
        1.59544         110.358         16.8492         145.089 
        1.60767         109.066         16.5439         143.695 
        1.61994         107.224         16.2451         142.634 
        1.63225         105.914         15.9532         140.966 
        1.64452          104.01         15.6692         139.718 
        1.65676         102.532          15.393         138.582 
          1.669         101.956         15.1233         137.438 
        1.68133         99.8806         14.8583         136.154 
        1.69363         98.9269         14.6005         134.963 
        1.70585         97.1316         14.3504         133.749 
        1.71809         95.9601         14.1057          132.43 
        1.73038         95.2453          13.866         131.336 
        1.74268         93.9589         13.6317         130.126 
        1.75493         92.3939         13.4038         128.977 
        1.76714         91.1254         13.1818         127.943 
        1.77942         90.0811         12.9637         126.673 
        1.79173         88.7217         12.7499         125.689 
        1.80402         88.0587         12.5415         124.618 
         1.8163         86.3361         12.3378         123.416 
         1.8286         85.1625         12.1383         122.373 
         1.8409         84.5101         11.9433         121.297 
        1.85315         83.1605         11.7533         120.333 
        1.86537         82.1826         11.5679         119.319 
        1.87765         81.4777         11.3857         118.252 
        1.88995           80.12          11.207         117.293 
        1.90221         79.0829         11.0328         116.284 
        1.91445         77.8877         10.8626         115.237 
        1.92674         76.7289         10.6954         114.304 
        1.93902           75.81         10.5317         113.277 
        1.95124         75.1334         10.3723         112.397 
         1.9635         73.9879         10.2158         111.321 
        1.97583         72.9253         10.0615         110.525 
        1.98812         71.9992         9.91103         109.578 
        2.00039         71.0099         9.76392         108.644 
        2.01264         70.4144         9.61993         107.733 
        2.02492         69.3975         9.47865         106.832 
        2.03717         68.2583         9.34044           105.9 
        2.04942         67.9551         9.20516         105.147 
        2.06171         66.4777         9.07211         104.228 
        2.07397         65.7795         8.94197         103.415 
        2.08629         65.0522         8.81386         102.512 
        2.09857         64.0663         8.68855         101.702 
        2.11081         63.0892          8.5662         100.771 
        2.12309         62.5464         8.44592          100.09 
        2.13538         61.6431         8.32777         99.2292 
        2.14763         60.8181         8.21228         98.4342 
        2.15986         59.7233         8.09925         97.6103 
        2.17214         59.3126         7.98788         96.8037 
        2.18443         58.6045         7.87851         96.1593 
        2.19671         57.5535         7.77132         95.3326 
        2.20898         57.3358         7.66625         94.5507 
        2.22126          56.426         7.56301         93.7733 
        2.23354         55.7051          7.4617         93.0707 
         2.2458         54.9895         7.36243         92.3635 
        2.25807         54.2621         7.26488         91.5779 
        2.27035         53.7361         7.16901         90.8463 
        2.28263         52.8783         7.07492         90.1271 
         2.2949         52.4393         6.98257         89.4284 
        2.30718         51.4458         6.89184         88.7643 
        2.31946         51.0325         6.80267         88.0624 
        2.33169         50.2468         6.71547         87.3826 
        2.34393         49.5811         6.62967         86.7244 
        2.35622         49.1738         6.54509         86.0432 
        2.36847         48.5801         6.46222         85.4534 
        2.38076         47.8183         6.38053         84.7017 
        2.39305         47.2805         6.30029         84.1127 
        2.40534          46.793         6.22142         83.4217 
        2.41762         46.2928         6.14391         82.7435 
        2.42989         45.7428         6.06784         82.1961 
        2.44216         45.2358         5.99306         81.5335 
         2.4544         44.6738         5.91972         80.9102 
        2.46667         44.1791         5.84743         80.2729 
        2.47897         43.6836         5.77618         79.6814 
        2.49124         43.0969         5.70632         79.1075 
        2.50349         42.6727         5.63771         78.4825 
        2.51578         42.0813         5.57002         77.9744 
        2.52805         41.6938         5.50357         77.3474 
        2.54029         41.2105         5.43836         76.7287 
        2.55257         40.6005         5.37402         76.2032 
        2.56487         40.2794         5.31059         75.6754 
        2.57716         39.7593         5.24828         75.1299 
        2.58942         39.2366         5.18711         74.5525 
        2.60167         38.9027         5.12697         74.0075 
        2.61395         38.3803         5.06769         73.4722 
        2.62624         38.1643         5.00927         72.9016 
        2.63849         37.7252         4.95196         72.3953 
        2.65073         37.3386          4.8956         71.8519 
        2.66302          36.801         4.83992         71.3271 
         2.6753         36.3848         4.78514         70.8247 
        2.68756         35.9552         4.73132         70.2864 
        2.69983          35.719         4.67829          69.827 
        2.71213         35.3463         4.62597         69.3423 
        2.72441         34.9742         4.57453         68.8281 
        2.73665         34.5287         4.52401         68.3292 
         2.7489         34.4518         4.47427           67.85 
        2.76118         33.9176         4.42513         67.3846 
        2.77349         33.7273         4.37661         66.9011 
        2.78576         33.4605         4.32901         66.4053 
        2.79802         33.0106         4.28214         65.9929 
        2.81031         32.6677         4.23586         65.5129 
        2.82259         32.5796         4.19028         65.0302 
        2.83483         32.1443         4.14554         64.6044 
         2.8471         31.7907         4.10137         64.1595 
         2.8594         31.6552         4.05771         63.6997 
         2.8717         31.4139          4.0147         63.2678 
        2.88396         31.0938         3.97247         62.8174 
        2.89619         30.8832         3.93093         62.3597 
        2.90847         30.6493         3.88982         61.9439 
        2.92072         30.3926         3.84937          61.531 
        2.93299         30.2191         3.80948         61.1083 
        2.94526         29.9529         3.77011         60.7047 
        2.95753         29.7874         3.73131         60.2933 
        2.96982          29.689           3.693         59.8802 
        2.98209         29.3718          3.6553         59.4818 
        2.99436         29.2243         3.61809          59.058 
        3.00666         29.1049         3.58134         58.6742 
        3.01894         28.8774         3.54517         58.2657 
        3.03119         28.7447         3.50955          57.886 
        3.04345         28.5647         3.47442         57.5238 
        3.05573         28.4609          3.4397         57.1416 
          3.068         28.4045         3.40549         56.7569 
        3.08026         28.2095         3.37178         56.3748 
        3.09254         28.0999         3.33847         56.0026 
        3.10483         28.1077          3.3056         55.6424 
         3.1171         27.9579         3.27322         55.2796 
        3.12933          27.921         3.24135         54.9072 
        3.14159         27.7744         3.20985         54.5393 
