# k  (h/Mpc)    Pcb(k)  (Mpc/h)^3    Pcb_linear(k) (Mpc/h)^3    Pcb_NL(k) (Mpc/h)^3   ShotnoiseSubtracted = false
      0.0156606         14605.4         14660.6         14561.4 
      0.0273761         12568.9         12677.4           12577 
      0.0384619         9527.68         9551.52         9469.03 
      0.0498308         7388.69         7513.14         7432.42 
      0.0625568         6239.02         6385.36         6311.42 
      0.0751274         5522.24         5425.11         5319.13 
      0.0867833         4300.27         4367.84         4337.56 
      0.0984825         3592.15          3456.6         3491.62 
       0.111151         3052.22         2886.21         2925.87 
       0.123864         2738.62         2601.06         2633.83 
       0.135742         2483.89            2339          2372.4 
        0.14762         2146.64         1999.97         2087.44 
       0.160083         1801.17         1667.09         1771.68 
       0.172465         1606.09         1455.05         1586.97 
       0.184281         1470.32         1341.38         1476.32 
       0.196406          1363.9         1238.76            1355 
       0.209011            1263         1102.18         1224.55 
       0.221538         1139.51         963.205         1130.97 
       0.233611         1072.58         861.819         1050.54 
       0.245665         983.187         795.426         967.368 
       0.258103         946.895         740.473         911.024 
       0.270422          853.53         680.409           851.4 
       0.282519         793.626         617.509         797.769 
       0.294636           786.2          562.62         751.215 
       0.306978         706.275         520.518         716.005 
       0.319417         683.805         486.654         673.936 
        0.33169         644.414         454.239         635.388 
       0.343948         614.407         420.879         612.472 
       0.356249         577.572         389.593         587.062 
       0.368458         560.219         363.389         556.206 
        0.38068         540.805         341.474         532.458 
       0.392856         509.529          321.47         511.472 
       0.405069         488.188         301.909         495.374 
       0.417459         467.991         282.969         472.082 
       0.429752         455.549         265.968         454.956 
       0.441978         440.646         251.046         441.792 
       0.454294         416.386         237.495         422.428 
        0.46658         409.509         224.781         411.934 
       0.478753         396.153         212.786         398.001 
       0.490964         382.005          201.52         384.746 
       0.503334         360.979          191.12         374.433 
       0.515665         359.403         181.638         366.227 
       0.527909         346.942         172.884         355.505 
       0.540159          338.11         164.601         345.446 
        0.55248          331.55         156.743          335.82 
       0.564743         325.839         149.466         329.309 
        0.57686          313.37         142.778         319.578 
       0.589077          302.18         136.465         312.575 
       0.601441         298.901         130.462         305.364 
        0.61382         294.195         124.802         299.137 
       0.626067         288.738         119.521         292.473 
       0.638306         275.789         114.547         286.873 
       0.650632         270.566         109.835         278.394 
       0.662899         268.902         105.419         274.636 
       0.675076         258.657          101.28         269.127 
       0.687267         252.244          97.359         263.005 
       0.699615         248.205         93.5962         258.285 
       0.711937         243.836         90.0391         253.582 
       0.724148         237.242          86.697          249.76 
       0.736433         232.172          83.508         244.507 
       0.748747         227.989         80.4747         239.779 
       0.761037         224.215         77.5994         235.688 
       0.773197         220.798         74.8943         232.678 
       0.785376          218.02         72.3151         228.178 
       0.797761         212.855         69.8175         224.997 
       0.810096         209.739         67.4477         221.473 
       0.822371         201.895         65.1995         217.792 
       0.834626         201.147         63.0578         214.374 
       0.846916         197.475         61.0073         211.261 
       0.859215         196.858         59.0473         208.132 
       0.871383         191.756         57.1934         204.798 
        0.88363         189.817         55.4084         202.639 
       0.895928         185.523         53.6932         199.556 
       0.908253         180.454         52.0478         196.143 
       0.920535         179.909         50.4772         193.524 
       0.932774         173.928         48.9772         190.741 
        0.94508         172.511         47.5309           188.7 
       0.957324         172.012         46.1503         185.836 
        0.96953         169.862          44.829         183.043 
       0.981769         164.612         43.5564         181.399 
       0.994071         163.878         42.3274         178.977 
         1.0064         159.981         41.1439         176.248 
        1.01868         157.961         40.0093         174.307 
        1.03092         155.433         38.9228         172.372 
         1.0432         152.445         37.8729         170.196 
        1.05553         149.863         36.8578         168.233 
        1.06777         149.701         35.8874         166.509 
           1.08         146.159         34.9531         164.295 
        1.09227         144.574         34.0492         162.652 
         1.1046         142.214          33.174          160.75 
         1.1169         140.351         32.3313         158.571 
        1.12915         138.129         31.5221         157.003 
        1.14142         135.997          30.739         154.963 
        1.15365         134.182         29.9849         153.332 
        1.16585          132.31         29.2583         151.354 
        1.17807         130.404         28.5549         150.272 
        1.19037         129.796         27.8701          148.68 
        1.20276         127.153         27.2032         146.868 
        1.21504         125.639         26.5635         145.274 
        1.22728         123.157          25.947         143.548 
        1.23954         122.449         25.3488         142.315 
        1.25184         119.925         24.7683         140.738 
        1.26414         118.368         24.2058         139.277 
        1.27632          117.74         23.6659         138.551 
         1.2886         115.557         23.1386         136.522 
        1.30093         112.841         22.6257         135.068 
        1.31316         112.504          22.132         133.693 
        1.32541          110.86         21.6531         132.661 
        1.33772         109.669         21.1857         131.237 
        1.35005         108.312         20.7318         129.796 
        1.36225         106.979         20.2959         128.634 
        1.37447         104.888         19.8717         127.227 
        1.38676         104.367         19.4577         125.885 
        1.39907         102.017         19.0548         124.814 
        1.41133         100.682         18.6652         123.801 
        1.42358         99.3919         18.2868         122.549 
        1.43591         98.7664         17.9163           121.2 
        1.44818         97.6809         17.5582         120.203 
        1.46037         95.8698          17.212         119.019 
        1.47263         94.5369         16.8732         118.114 
        1.48494         93.7659         16.5423         116.853 
        1.49724         92.2458         16.2205         115.635 
        1.50952         90.8259          15.908         114.633 
        1.52178          90.032         15.6041         113.605 
        1.53409         89.0657         15.3071         112.613 
        1.54637         87.2238         15.0183         111.585 
        1.55858         86.2789         14.7387         110.521 
        1.57081         85.0769         14.4658         109.572 
        1.58313         84.0528         14.1981          108.58 
        1.59544         83.1643         13.9374         107.602 
        1.60767         81.9362         13.6848         106.595 
        1.61994          80.874         13.4377         105.914 
        1.63225         79.6811         13.1962         104.631 
        1.64452         78.6368         12.9613         103.814 
        1.65676         77.5377         12.7328         102.925 
          1.669         77.0037         12.5097         102.096 
        1.68133         76.0293         12.2906         101.133 
        1.69363         75.0461         12.0773         100.348 
        1.70585          74.145         11.8704         99.4053 
        1.71809          72.852          11.668         98.6538 
        1.73038         72.0969         11.4697         97.6979 
        1.74268         70.9838         11.2759         96.9067 
        1.75493         70.4218         11.0874         96.0316 
        1.76714         69.2557         10.9038         95.2377 
        1.77942         68.8406         10.7233         94.4021 
        1.79173         67.6542         10.5465          93.602 
        1.80402         66.9279         10.3741         92.8965 
         1.8163         66.1062         10.2056         91.9603 
         1.8286         65.1503         10.0406         91.3267 
         1.8409         64.2329         9.87932         90.5141 
        1.85315         63.3347         9.72217         89.8674 
        1.86537         62.7233         9.56874          89.061 
        1.87765         61.9776         9.41806          88.208 
        1.88995         61.1409         9.27027         87.5821 
        1.90221         60.5092         9.12616         86.8385 
        1.91445         59.4207         8.98536         86.1572 
        1.92674         58.9157         8.84704         85.4589 
        1.93902         58.1914         8.71163         84.6967 
        1.95124         57.7546         8.57978         84.1306 
         1.9635          56.658         8.45032         83.3001 
        1.97583          56.131         8.32272         82.7578 
        1.98812         55.4383         8.19824         82.0162 
        2.00039         54.6623         8.07655         81.3643 
        2.01264         54.0217         7.95745         80.7024 
        2.02492         53.3111         7.84058          80.089 
        2.03717         52.6078         7.72625         79.3766 
        2.04942          51.963         7.61436          78.835 
        2.06171         51.2794          7.5043         78.1427 
        2.07397         50.6411         7.39665          77.591 
        2.08629          50.119         7.29068         76.9094 
        2.09857         49.6114         7.18703         76.3499 
        2.11081         48.5352         7.08582         75.6784 
        2.12309         48.2546         6.98632         75.1404 
        2.13538         47.6383         6.88859         74.5402 
        2.14763         47.1476         6.79306         73.9687 
        2.15986         46.4982         6.69956         73.3779 
        2.17214         45.8469         6.60745         72.8589 
        2.18443         45.5712         6.51697         72.2766 
        2.19671         44.7196          6.4283         71.6735 
        2.20898         44.4025         6.34139         71.1265 
        2.22126         43.8148         6.25599          70.556 
        2.23354         43.2341          6.1722         70.0688 
         2.2458         42.8307         6.09008          69.545 
        2.25807         42.3991         6.00939         68.9616 
        2.27035         41.8147         5.93009         68.4442 
        2.28263         41.2476         5.85226          67.914 
         2.2949         40.7291         5.77587         67.4194 
        2.30718         40.3191         5.70082         66.9299 
        2.31946         39.7422         5.62706         66.4462 
        2.33169         39.3239         5.55493         65.9239 
        2.34393         38.7149         5.48395         65.4225 
        2.35622         38.4409         5.41399         64.9319 
        2.36847         37.9525         5.34544         64.4596 
        2.38076         37.6323         5.27787         63.9785 
        2.39305         37.1524         5.21149         63.5133 
        2.40534         36.7669         5.14625         62.9833 
        2.41762         36.3463         5.08214         62.5118 
        2.42989         35.7786         5.01921         62.1049 
        2.44216          35.555         4.95736          61.628 
         2.4544         35.1985         4.89669          61.184 
        2.46667         34.6334          4.8369         60.6956 
        2.47897         34.3276         4.77796         60.2743 
        2.49124         33.8855         4.72017         59.8359 
        2.50349         33.4753         4.66342         59.4091 
        2.51578         33.1255         4.60743         58.9999 
        2.52805          32.993         4.55246         58.5478 
        2.54029         32.5609         4.49852         58.1258 
        2.55257         32.1309          4.4453         57.7214 
        2.56487         31.8006         4.39284         57.3154 
        2.57716         31.4846         4.34129         56.9335 
        2.58942         31.0955         4.29069          56.503 
        2.60167          30.698         4.24094         56.0708 
        2.61395         30.4732         4.19191         55.6931 
        2.62624          30.228         4.14359         55.2967 
        2.63849         29.9216         4.09618         54.9095 
        2.65073         29.5754         4.04956         54.4945 
        2.66302         29.2876          4.0035         54.1327 
         2.6753         28.9571         3.95819         53.7555 
        2.68756         28.6057         3.91367         53.3615 
        2.69983          28.386         3.86981         53.0056 
        2.71213          28.029         3.82652         52.6512 
        2.72441         27.9159         3.78398         52.2597 
        2.73665         27.6224         3.74218         51.8958 
         2.7489         27.4259         3.70104         51.5447 
        2.76118         27.1158         3.66039         51.1784 
        2.77349         26.9002         3.62026         50.8434 
        2.78576         26.7122         3.58089         50.4787 
        2.79802         26.3845         3.54212         50.1377 
        2.81031         26.1671         3.50383         49.8067 
        2.82259         25.9505         3.46613         49.4474 
        2.83483         25.7052         3.42912         49.1086 
         2.8471          25.494         3.39258         48.7844 
         2.8594         25.2861         3.35647         48.4708 
         2.8717         25.0168         3.32089         48.1329 
        2.88396         24.9141         3.28596         47.7883 
        2.89619         24.7231          3.2516         47.4707 
        2.90847         24.5192         3.21759         47.1555 
        2.92072         24.4149         3.18413         46.8415 
        2.93299         24.2893         3.15114         46.5165 
        2.94526         24.0589         3.11857         46.2212 
        2.95753         23.8932         3.08648         45.9294 
        2.96982         23.8716         3.05479         45.6191 
        2.98209         23.6519          3.0236         45.3177 
        2.99436         23.4712         2.99283          45.014 
        3.00666         23.4291         2.96243         44.7177 
        3.01894         23.3028         2.93251         44.4063 
        3.03119         23.1317         2.90305         44.1158 
        3.04345         23.0324         2.87399         43.8415 
        3.05573          22.963         2.84526         43.5587 
          3.068         22.9032         2.81697         43.2706 
        3.08026         22.8289         2.78908         42.9854 
        3.09254         22.7062         2.76153         42.7131 
        3.10483         22.7284         2.73434         42.4422 
         3.1171         22.6162         2.70755         42.1667 
        3.12933         22.6422         2.68119         41.8947 
        3.14159         22.5542         2.65513         41.6218 
