# k  (h/Mpc)    Pcb(k)  (Mpc/h)^3    Pcb_linear(k) (Mpc/h)^3    Pcb_NL(k) (Mpc/h)^3   ShotnoiseSubtracted = false
      0.0156606           22369         22495.6         22315.5 
      0.0273761         19165.6         19448.5         19230.8 
      0.0384619         14489.6         14651.6         14457.6 
      0.0498308         11187.3         11524.1         11328.6 
      0.0625568         9453.99         9793.87          9620.3 
      0.0751274         8425.64         8320.83         8077.37 
      0.0867833         6524.31         6699.12         6623.46 
      0.0984825         5521.81         5301.46          5367.7 
       0.111151         4727.96          4426.6         4509.98 
       0.123864         4235.73         3989.24         4056.59 
       0.135742         3864.79         3587.31         3654.73 
        0.14762         3367.47         3067.32         3245.71 
       0.160083         2866.62         2556.78         2777.45 
       0.172465         2556.92         2231.57         2512.72 
       0.184281         2315.61         2057.24         2338.67 
       0.196406         2189.37         1899.86         2155.36 
       0.209011         2051.43         1690.38         1954.72 
       0.221538         1846.75         1477.24         1827.42 
       0.233611          1773.9         1321.74         1714.41 
       0.245665         1607.14         1219.92          1584.2 
       0.258103         1595.16         1135.64         1496.49 
       0.270422         1423.25         1043.52         1406.97 
       0.282519         1346.63          947.05         1333.93 
       0.294636         1320.98         862.867         1264.56 
       0.306978         1209.38         798.296         1212.77 
       0.319417         1187.72         746.361         1143.79 
        0.33169         1116.29         696.648          1084.1 
       0.343948         1072.94         645.484          1051.3 
       0.356249         1018.64         597.502         1013.01 
       0.368458         977.493         557.313         969.264 
        0.38068         963.789         523.704         933.106 
       0.392856         916.225         493.024         901.313 
       0.405069         868.749         463.025         871.941 
       0.417459         836.019         433.977         842.491 
       0.429752         833.946         407.902         813.292 
       0.441978         804.851         385.017         793.118 
       0.454294         770.448         364.235         761.299 
        0.46658         748.894         344.736         746.041 
       0.478753         735.507          326.34         723.914 
       0.490964          707.67         309.061         702.114 
       0.503334         678.129         293.112          686.98 
       0.515665         675.633         278.569         671.472 
       0.527909         647.676         265.143         657.901 
       0.540159         632.558         252.442         641.686 
        0.55248         620.043         240.389         625.263 
       0.564743         615.118         229.229          614.74 
        0.57686         595.396         218.972         598.791 
       0.589077         585.685          209.29         585.813 
       0.601441         571.773         200.084         574.664 
        0.61382         555.854         191.403          564.63 
       0.626067         550.507         183.303          554.39 
       0.638306         530.705         175.675         543.144 
       0.650632         525.995         168.448         530.611 
       0.662899         521.988         161.676         524.146 
       0.675076         505.681         155.329         517.235 
       0.687267         491.339         149.315         505.113 
       0.699615         490.328         143.544          497.17 
       0.711937         480.105         138.089         487.801 
       0.724148         464.843         132.963         481.449 
       0.736433          454.18         128.072         473.039 
       0.748747         448.659          123.42         464.793 
       0.761037         440.961          119.01         459.288 
       0.773197          434.35         114.862         451.657 
       0.785376         429.186         110.906         445.243 
       0.797761         416.527         107.076          438.78 
       0.810096         411.981         103.441         433.198 
       0.822371         401.474         99.9932         426.221 
       0.834626         397.653         96.7088         421.357 
       0.846916         391.855          93.564         414.766 
       0.859215         387.237          90.558         408.702 
       0.871383         378.814         87.7147         403.386 
        0.88363         374.573         84.9772         399.328 
       0.895928         369.484         82.3467         393.156 
       0.908253         360.463         79.8232           386.7 
       0.920535         353.514         77.4144         382.628 
       0.932774         348.509         75.1139         376.803 
        0.94508         343.346         72.8957          373.07 
       0.957324         339.897         70.7784         368.115 
        0.96953         335.708         68.7521          363.68 
       0.981769         327.853         66.8003         359.638 
       0.994071         326.735         64.9155         355.289 
         1.0064         320.787         63.1004         350.135 
        1.01868         317.217         61.3603         345.702 
        1.03092         307.977          59.694         342.698 
         1.0432         305.266         58.0838         338.559 
        1.05553         302.192          56.527         333.894 
        1.06777         298.222         55.0388         330.119 
           1.08         291.564         53.6059          326.49 
        1.09227          291.03         52.2196         322.575 
         1.1046         285.377         50.8773         319.541 
         1.1169         279.439         49.5849         315.315 
        1.12915          275.65         48.3438         312.108 
        1.14142         270.179         47.1428         308.443 
        1.15365         267.386         45.9864         305.212 
        1.16585         262.888          44.872         301.808 
        1.17807         260.461         43.7932         298.535 
        1.19037         256.031          42.743         296.014 
        1.20276         253.049         41.7202         292.152 
        1.21504          247.89         40.7391         288.876 
        1.22728         244.399         39.7937         285.742 
        1.23954         243.088         38.8762          282.88 
        1.25184         237.578         37.9859           279.9 
        1.26414         232.978         37.1232         277.258 
        1.27632         231.153         36.2952         274.713 
         1.2886          229.15         35.4866           271.6 
        1.30093         224.079         34.6999         268.157 
        1.31316         219.464         33.9428         265.598 
        1.32541         218.434         33.2082         262.777 
        1.33772         214.607         32.4914         260.398 
        1.35005         212.243         31.7953         257.456 
        1.36225         208.271         31.1268         255.051 
        1.37447         205.088         30.4762         251.962 
        1.38676          203.22         29.8413         250.189 
        1.39907         200.339         29.2235         247.134 
        1.41133         196.566         28.6259         244.553 
        1.42358         194.265         28.0455         242.255 
        1.43591          191.83         27.4774         240.088 
        1.44818         188.208         26.9281         237.557 
        1.46037         186.761         26.3972         235.007 
        1.47263         183.155         25.8776          232.79 
        1.48494          181.74         25.3701         229.999 
        1.49724         178.598         24.8766         228.558 
        1.50952         175.455         24.3973         225.909 
        1.52178         173.647         23.9313         223.657 
        1.53409         170.608         23.4757         221.621 
        1.54637          168.07         23.0328          219.79 
        1.55858         166.296          22.604         217.452 
        1.57081         163.507         22.1855         215.348 
        1.58313         161.454         21.7749          213.16 
        1.59544         158.522          21.375         211.261 
        1.60767         157.147         20.9878         209.386 
        1.61994         154.552         20.6088         207.286 
        1.63225         152.147         20.2383         205.184 
        1.64452         149.785         19.8781         203.366 
        1.65676         147.938         19.5277         201.623 
          1.669         146.285         19.1855         199.617 
        1.68133         143.502         18.8494         197.796 
        1.69363         141.057         18.5223         196.151 
        1.70585         138.938         18.2051         194.326 
        1.71809         137.227         17.8947         192.244 
        1.73038         135.572         17.5905         190.643 
        1.74268         134.382         17.2933         188.777 
        1.75493         131.283         17.0042         187.253 
        1.76714         130.738         16.7226         185.617 
        1.77942         128.056         16.4459         183.884 
        1.79173           126.2         16.1747         182.157 
        1.80402         124.577         15.9102         180.536 
         1.8163          122.37         15.6518         179.098 
         1.8286         120.797         15.3987         177.339 
         1.8409         119.402         15.1514         175.696 
        1.85315         117.113         14.9104         174.255 
        1.86537         116.007         14.6751         172.785 
        1.87765           114.6          14.444         171.306 
        1.88995         112.523         14.2173         169.668 
        1.90221         111.217         13.9963          168.35 
        1.91445         109.564         13.7804          166.73 
        1.92674         107.877         13.5683         165.259 
        1.93902         106.608         13.3606          163.77 
        1.95124         105.192         13.1584         162.394 
         1.9635         103.463         12.9598         160.981 
        1.97583         101.919         12.7641         159.558 
        1.98812         100.509         12.5732         158.427 
        2.00039         99.4105         12.3866         156.897 
        2.01264         98.2128         12.2039         155.608 
        2.02492         96.8806         12.0247          154.18 
        2.03717         95.4409         11.8494         152.974 
        2.04942         94.2697         11.6778         151.663 
        2.06171         92.6291          11.509         150.315 
        2.07397         91.5696         11.3439         149.175 
        2.08629         90.2205         11.1813         147.871 
        2.09857         89.1669         11.0224          146.69 
        2.11081         87.7534         10.8672         145.336 
        2.12309           86.68         10.7146         144.229 
        2.13538         85.3155         10.5647         142.968 
        2.14763         84.1574         10.4182         141.807 
        2.15986         83.2554         10.2748         140.542 
        2.17214         82.1002         10.1335         139.463 
        2.18443         81.1204         9.99476         138.467 
        2.19671         80.1032         9.85877         137.259 
        2.20898         79.0735         9.72548         136.025 
        2.22126         77.9307         9.59451          135.03 
        2.23354         77.0134         9.46599         133.953 
         2.2458         75.5274         9.34006          132.82 
        2.25807         74.8236          9.2163          131.76 
        2.27035          73.744         9.09468          130.69 
        2.28263         72.8696         8.97532         129.696 
         2.2949         71.4831         8.85816         128.672 
        2.30718         70.5423         8.74306         127.614 
        2.31946         69.9413         8.62994         126.524 
        2.33169         68.8399         8.51932         125.577 
        2.34393         68.3028         8.41046         124.695 
        2.35622          67.109         8.30316         123.629 
        2.36847         66.4684         8.19803         122.775 
        2.38076         65.2846         8.09441         121.693 
        2.39305         64.6907         7.99261         120.854 
        2.40534         63.7326         7.89255         119.846 
        2.41762         63.0577         7.79422         118.892 
        2.42989         62.0909         7.69772         118.028 
        2.44216         61.5212         7.60286         117.042 
         2.4544         60.5738         7.50981         116.199 
        2.46667         59.7568         7.41811         115.312 
        2.47897          59.188         7.32772         114.358 
        2.49124          58.512         7.23909         113.507 
        2.50349         57.5515         7.15206         112.668 
        2.51578         57.1474         7.06619         111.901 
        2.52805          56.281         6.98188         110.967 
        2.54029         55.7339         6.89916         110.122 
        2.55257         55.0064         6.81753          109.36 
        2.56487         54.6675         6.73707         108.545 
        2.57716         54.0521         6.65802         107.735 
        2.58942         53.1695         6.58042         106.943 
        2.60167         52.6083         6.50412         106.167 
        2.61395         52.2502         6.42893         105.362 
        2.62624         51.3695         6.35481         104.527 
        2.63849         50.8399         6.28211           103.8 
        2.65073         50.1707         6.21061         103.038 
        2.66302         49.7566         6.13997          102.28 
         2.6753         49.1228         6.07048         101.563 
        2.68756         48.7725          6.0022         100.791 
        2.69983          48.166         5.93493         100.072 
        2.71213         47.6289         5.86855           99.36 
        2.72441         47.2143          5.8033         98.6292 
        2.73665         46.6936          5.7392         97.9548 
         2.7489         46.1964          5.6761          97.268 
        2.76118         45.7668         5.61376         96.5416 
        2.77349         45.2887         5.55221         95.8754 
        2.78576         44.8652         5.49183          95.172 
        2.79802         44.4821         5.43237         94.5636 
        2.81031         43.8945         5.37365         93.8731 
        2.82259         43.4835         5.31583          93.176 
        2.83483         43.0246         5.25907           92.57 
         2.8471         42.6385         5.20304         91.8974 
         2.8594         42.1977         5.14765         91.2464 
         2.8717         41.9133         5.09308         90.6584 
        2.88396         41.5517         5.03951         90.0252 
        2.89619          41.223         4.98681          89.356 
        2.90847         40.8275         4.93466         88.7056 
        2.92072         40.5145         4.88335         88.1601 
        2.93299         40.3622         4.83274          87.575 
        2.94526         39.9543          4.7828         86.9545 
        2.95753         39.6981         4.73358         86.3484 
        2.96982          39.293         4.68498         85.7766 
        2.98209         39.1414         4.63715         85.2005 
        2.99436         38.8314         4.58995         84.5912 
        3.00666         38.6787         4.54333         84.0257 
        3.01894         38.4297         4.49744         83.4713 
        3.03119          38.193         4.45226         82.9356 
        3.04345         37.9545         4.40769         82.3897 
        3.05573         37.8606         4.36364         81.8287 
          3.068         37.6213         4.32024         81.2898 
        3.08026         37.4105         4.27748         80.7466 
        3.09254         37.3397         4.23522         80.2207 
        3.10483         37.3331         4.19352         79.6958 
         3.1171         37.1328         4.15243         79.1621 
        3.12933         36.8794         4.11201         78.6364 
        3.14159         36.8914         4.07205         78.1124 
