# k  (h/Mpc)    Pcb(k)  (Mpc/h)^3    Pcb_linear(k) (Mpc/h)^3    Pcb_NL(k) (Mpc/h)^3   ShotnoiseSubtracted = false
      0.0156606         19604.7         19702.9         19553.7 
      0.0273761         16822.2         17035.1         16863.9 
      0.0384619         12730.5         12833.9         12684.5 
      0.0498308         9843.13         10094.6         9945.09 
      0.0625568         8315.54          8579.1         8445.16 
      0.0751274         7395.31         7288.82         7099.88 
      0.0867833         5736.26         5868.28         5810.68 
      0.0984825         4833.58         4643.98         4698.17 
       0.111151         4127.77         3877.63         3943.36 
       0.123864         3700.02         3494.52         3547.95 
       0.135742         3368.81         3142.43         3196.25 
        0.14762          2927.9         2686.93         2829.91 
       0.160083         2478.85         2239.71         2414.77 
       0.172465         2211.23         1954.84         2177.36 
       0.184281         2009.85         1802.13         2026.31 
       0.196406         1887.27         1664.26         1864.46 
       0.209011         1761.48         1480.76         1688.72 
       0.221538          1587.8         1294.05         1573.11 
       0.233611         1515.74         1157.83         1471.41 
       0.245665         1376.94         1068.64         1357.72 
       0.258103         1355.14         994.809         1281.19 
       0.270422         1210.78         914.113         1202.21 
       0.282519         1139.44         829.609         1135.34 
       0.294636         1122.79         755.865         1074.12 
       0.306978         1021.32         699.302         1028.14 
       0.319417         997.949         653.807         968.996 
        0.33169         939.355         610.259          916.59 
       0.343948         899.656          565.44         887.589 
       0.356249         850.947         523.408         853.868 
       0.368458         820.516         488.203         814.168 
        0.38068         803.553         458.761         782.288 
       0.392856         761.621         431.886         754.077 
       0.405069         724.848         405.607         730.401 
       0.417459         697.136         380.161         702.387 
       0.429752         689.525          357.32         677.704 
       0.441978         665.718         337.273         659.993 
       0.454294         635.046         319.068         632.651 
        0.46658         618.072         301.986         619.179 
       0.478753          604.84         285.872         599.864 
       0.490964         581.689         270.736         581.243 
       0.503334         554.999         256.765         567.665 
       0.515665          553.76         244.025         555.184 
       0.527909         531.761         232.264          542.44 
       0.540159         518.441         221.137         528.136 
        0.55248          508.43         210.579         514.268 
       0.564743         504.358         200.803          505.43 
        0.57686         486.037         191.819         491.738 
       0.589077         474.467         183.337         480.759 
       0.601441          466.54         175.272          470.97 
        0.61382         454.823         167.668         462.736 
       0.626067         449.439         160.572          453.61 
       0.638306         432.374          153.89         444.667 
       0.650632         427.878          147.56         433.303 
       0.662899         424.224         141.627         428.232 
       0.675076         409.068         136.067         421.661 
       0.687267         398.402         130.799         411.598 
       0.699615         395.107         125.744         405.067 
       0.711937         388.726         120.965         397.653 
       0.724148         375.778         116.475         392.009 
       0.736433         367.155         112.191          384.75 
       0.748747         362.523         108.115         377.802 
       0.761037         355.842         104.252         372.861 
       0.773197         351.487         100.618         367.143 
       0.785376         346.294         97.1532          361.56 
       0.797761         336.757         93.7977         355.861 
       0.810096         334.147          90.614         351.396 
       0.822371         323.438         87.5935         345.616 
       0.834626         321.544         84.7163         341.222 
       0.846916         315.126         81.9615         335.988 
       0.859215         314.033         79.3283         331.177 
       0.871383         306.161         76.8376         326.619 
        0.88363         304.217         74.4396         323.271 
       0.895928          298.41         72.1353          318.15 
       0.908253         290.949         69.9247         313.046 
       0.920535         287.758         67.8146         309.223 
       0.932774         281.412         65.7993          304.78 
        0.94508         277.865         63.8563         301.619 
       0.957324         276.457         62.0015         297.477 
        0.96953         272.546         60.2265         293.732 
       0.981769         265.209         58.5167         290.639 
       0.994071         264.325         56.8656         287.006 
         1.0064         258.814         55.2756         282.802 
        1.01868         255.907         53.7513         279.223 
        1.03092         248.904         52.2916         276.664 
         1.0432         245.767         50.8811         273.306 
        1.05553         242.834         49.5174         269.645 
        1.06777          241.43         48.2137         266.775 
           1.08         235.685         46.9585          263.69 
        1.09227          233.71         45.7441         260.567 
         1.1046         230.007         44.5683         258.007 
         1.1169         224.897         43.4361         254.504 
        1.12915         222.031         42.3489         252.153 
        1.14142         218.242         41.2969         248.998 
        1.15365          215.48         40.2838         246.372 
        1.16585         211.957         39.3076         243.409 
        1.17807         209.664         38.3626         241.186 
        1.19037         207.182         37.4426         239.005 
        1.20276         204.315         36.5467         235.911 
        1.21504             200         35.6872         233.329 
        1.22728         196.794         34.8591         230.429 
        1.23954         196.036         34.0553         228.613 
        1.25184         192.066         33.2755          226.09 
        1.26414         188.553         32.5197         223.851 
        1.27632         187.764         31.7944         222.046 
         1.2886         186.229         31.0861          219.32 
        1.30093         181.048         30.3969         216.745 
        1.31316         177.931         29.7337         214.379 
        1.32541         176.756         29.0902         212.493 
        1.33772         174.726         28.4623         210.349 
        1.35005         172.122         27.8525          207.99 
        1.36225         169.241         27.2669         206.068 
        1.37447         166.957          26.697         203.548 
        1.38676         165.095         26.1408         201.961 
        1.39907         162.504         25.5996         199.682 
        1.41133         159.866         25.0761         197.767 
        1.42358         157.991         24.5678         195.904 
        1.43591         156.183           24.07         193.935 
        1.44818         153.665         23.5889         192.079 
        1.46037         151.864         23.1238         190.052 
        1.47263          149.67         22.6687         188.485 
        1.48494         147.645         22.2241         186.173 
        1.49724         145.618         21.7918         184.796 
        1.50952         142.979         21.3719         182.907 
        1.52178         142.294         20.9637          180.91 
        1.53409         139.287         20.5646         179.406 
        1.54637         137.694         20.1767         177.916 
        1.55858         135.503          19.801         175.978 
        1.57081         133.558         19.4343         174.451 
        1.58313         131.817         19.0747         172.672 
        1.59544         129.676         18.7244         171.151 
        1.60767         128.664         18.3852         169.577 
        1.61994         126.341         18.0532         168.121 
        1.63225         124.788         17.7287         166.278 
        1.64452         122.578         17.4131         164.789 
        1.65676         120.852         17.1062         163.391 
          1.669         119.994         16.8064         161.959 
        1.68133         117.494          16.512         160.478 
        1.69363         115.862         16.2255         159.044 
        1.70585          113.89         15.9476         157.639 
        1.71809         112.577         15.6757          155.96 
        1.73038         111.785         15.4092         154.715 
        1.74268         110.605         15.1488         153.234 
        1.75493         107.834         14.8956         151.929 
        1.76714         107.118         14.6489          150.68 
        1.77942         105.353         14.4065         149.157 
        1.79173         103.817          14.169         147.936 
        1.80402         102.972         13.9373          146.63 
         1.8163         100.797         13.7109         145.332 
         1.8286         99.5419         13.4892         144.005 
         1.8409         98.8735         13.2726         142.677 
        1.85315         96.9833         13.0614         141.533 
        1.86537         96.0327         12.8553         140.359 
        1.87765         95.0098         12.6529         139.153 
        1.88995         93.3858         12.4543         137.905 
        1.90221         92.1523         12.2607         136.766 
        1.91445         91.0439         12.0716         135.471 
        1.92674          89.566         11.8857         134.333 
        1.93902         88.3914         11.7038          133.13 
        1.95124         87.4474         11.5267         132.021 
         1.9635         86.0147         11.3528         130.837 
        1.97583         84.7562         11.1813         129.794 
        1.98812         83.7124         11.0141         128.758 
        2.00039         82.7375         10.8506          127.59 
        2.01264         81.7548         10.6906         126.538 
        2.02492         80.8707         10.5336         125.423 
        2.03717         79.4804           10.38         124.385 
        2.04942         79.0083         10.2297         123.423 
        2.06171         77.2167         10.0818          122.35 
        2.07397          76.425         9.93718         121.374 
        2.08629         75.5384          9.7948          120.32 
        2.09857         74.4409         9.65555         119.354 
        2.11081         73.2225         9.51959         118.251 
        2.12309         72.2601         9.38591         117.422 
        2.13538         71.4049         9.25462          116.39 
        2.14763         70.4942         9.12627         115.463 
        2.15986         69.3959         9.00066         114.456 
        2.17214         68.7322          8.8769         113.523 
        2.18443          67.873         8.75536         112.762 
        2.19671         66.6769         8.63623         111.796 
        2.20898         66.1714         8.51947         110.824 
        2.22126         65.2032         8.40474         109.955 
        2.23354         64.4839         8.29216         109.097 
         2.2458         63.3778         8.18184         108.236 
        2.25807         62.6146         8.07343         107.336 
        2.27035         61.8441          7.9669         106.459 
        2.28263          61.024         7.86233         105.628 
         2.2949         60.2406          7.7597         104.802 
        2.30718         59.2487         7.65887         103.997 
        2.31946         58.9078         7.55978         103.116 
        2.33169         57.8439         7.46288         102.331 
        2.34393         57.3328         7.36752          101.58 
        2.35622          56.378         7.27353         100.768 
        2.36847         55.9628         7.18143          100.08 
        2.38076          55.005         7.09066         99.1684 
        2.39305         54.4104         7.00149         98.4976 
        2.40534         53.7623         6.91384         97.6862 
        2.41762         53.1457          6.8277          96.889 
        2.42989          52.381         6.74316         96.2134 
        2.44216         51.8192         6.66006         95.4192 
         2.4544         51.0834         6.57856         94.7094 
        2.46667         50.5235         6.49823         93.9704 
        2.47897         49.9765         6.41905         93.2331 
        2.49124         49.3751         6.34141         92.5681 
        2.50349         49.0415         6.26516         91.8456 
        2.51578         48.1948         6.18994         91.2443 
        2.52805         47.6747         6.11609         90.4806 
        2.54029         47.2032         6.04363         89.7593 
        2.55257         46.5634         5.97212         89.1469 
        2.56487         46.2264         5.90164          88.522 
        2.57716         45.5182         5.83239         87.8587 
        2.58942         44.9062         5.76441         87.1889 
        2.60167         44.5161         5.69758          86.557 
        2.61395         43.9129         5.63171         85.9258 
        2.62624         43.5227         5.56678         85.2349 
        2.63849         42.9762         5.50309         84.6323 
        2.65073          42.611         5.44046          84.011 
        2.66302          42.055         5.37859         83.3787 
         2.6753         41.6283         5.31771         82.8008 
        2.68756         41.1865          5.2579         82.1772 
        2.69983         40.7159         5.19897         81.6198 
        2.71213         40.3313         5.14082         81.0371 
        2.72441         39.9337         5.08366           80.44 
        2.73665         39.3728         5.02751         79.8736 
         2.7489         39.1008         4.97224         79.3081 
        2.76118         38.6581         4.91763         78.7428 
        2.77349         38.2706         4.86371         78.1816 
        2.78576         37.9603         4.81081         77.5918 
        2.79802         37.5807         4.75872         77.1225 
        2.81031         37.1108         4.70729         76.5546 
        2.82259          37.012         4.65664         75.9869 
        2.83483         36.5043         4.60692         75.5003 
         2.8471         36.1786         4.55783         74.9573 
         2.8594         35.8706         4.50931          74.412 
         2.8717         35.7115         4.46152         73.9219 
        2.88396         35.2767         4.41459         73.3997 
        2.89619         35.1266         4.36842         72.8519 
        2.90847         34.7037         4.32274         72.3375 
        2.92072         34.5115         4.27779         71.8812 
        2.93299         34.3382         4.23345         71.3987 
        2.94526          33.967         4.18971         70.9075 
        2.95753         33.7537         4.14659         70.4109 
        2.96982         33.5218         4.10401         69.9357 
        2.98209          33.255         4.06212         69.4755 
        2.99436          33.006         4.02077         68.9694 
        3.00666         32.9838         3.97993         68.5134 
        3.01894         32.6337         3.93974         68.0441 
        3.03119          32.585         3.90015         67.6052 
        3.04345         32.4515         3.86111          67.174 
        3.05573         32.0836         3.82253         66.7196 
          3.068         32.0927         3.78451         66.2729 
        3.08026         31.9067         3.74705         65.8267 
        3.09254         31.8297         3.71003         65.3985 
        3.10483         31.7852          3.6735         64.9739 
         3.1171         31.5744         3.63751         64.5416 
        3.12933         31.5068          3.6021          64.108 
        3.14159          31.372         3.56709         63.6703 
