# k  (h/Mpc)    Pcb(k)  (Mpc/h)^3    Pcb_linear(k) (Mpc/h)^3    Pcb_NL(k) (Mpc/h)^3   ShotnoiseSubtracted = false
      0.0156606         18672.7         18762.1         18622.9 
      0.0273761         16030.7         16222.1         16065.6 
      0.0384619         12135.3         12221.5         12086.2 
      0.0498308          9387.5            9613         9478.02 
      0.0625568         7929.68         8169.83         8048.49 
      0.0751274         7046.45         6941.12         6769.55 
      0.0867833          5469.1         5588.36         5536.52 
      0.0984825         4601.16         4422.46         4472.79 
       0.111151         3925.59         3692.67         3752.91 
       0.123864         3519.33         3327.83         3376.94 
       0.135742         3201.93         2992.55         3042.11 
        0.14762         2780.15         2558.77         2690.42 
       0.160083         2349.44         2132.88         2293.41 
       0.172465         2095.76          1861.6         2065.41 
       0.184281         1907.29         1716.17         1922.03 
       0.196406         1786.73         1584.88         1767.56 
       0.209011         1665.24         1410.14         1600.26 
       0.221538         1501.49         1232.32         1488.58 
       0.233611         1429.92         1102.61          1390.7 
       0.245665          1300.6         1017.67         1282.66 
       0.258103          1275.6          947.36         1209.91 
       0.270422         1140.77         870.514          1134.5 
       0.282519         1071.34          790.04         1069.85 
       0.294636         1057.08         719.814         1011.36 
       0.306978         959.286         665.948         967.363 
       0.319417         935.632         622.623         911.482 
        0.33169         881.034         581.152         861.598 
       0.343948         842.871         538.471         833.801 
       0.356249         796.203         498.444         801.626 
       0.368458         768.844         464.918           763.4 
        0.38068         750.959          436.88         733.005 
       0.392856         711.028         411.287         706.073 
       0.405069         677.527         386.261         684.108 
       0.417459         651.316         362.029         656.713 
       0.429752         642.153         340.277         633.512 
       0.441978         620.149         321.186         616.632 
       0.454294         590.665          303.85         590.825 
        0.46658         575.526         287.583         577.915 
       0.478753         562.231         272.237         559.581 
       0.490964         540.835         257.823         542.004 
       0.503334         514.975         244.518         528.984 
       0.515665         513.925         232.386         517.436 
       0.527909         493.843         221.186         504.995 
       0.540159         481.394          210.59         491.417 
        0.55248          472.05         200.536          478.41 
       0.564743         467.829         191.226         470.067 
        0.57686         450.335          182.67         457.128 
       0.589077          438.47         174.593         446.894 
       0.601441         431.988         166.913         437.556 
        0.61382         421.707         159.671         429.806 
       0.626067         416.282         152.914         421.098 
       0.638306         400.028         146.551         412.893 
       0.650632         395.365         140.522          401.99 
       0.662899         391.926         134.872         397.283 
       0.675076         377.426         129.578         390.836 
       0.687267         367.814          124.56         381.524 
       0.699615         364.006         119.746         375.399 
       0.711937         358.428         115.195         368.592 
       0.724148         346.485          110.92         363.243 
       0.736433         338.627          106.84         356.359 
       0.748747         334.169         102.959         349.844 
       0.761037          327.91         99.2801         345.061 
       0.773197         323.999         95.8192         339.936 
       0.785376         319.056         92.5195         334.575 
       0.797761         310.602          89.324         329.284 
       0.810096         308.046         86.2921         325.079 
       0.822371         297.528         83.4157         319.714 
       0.834626         296.151         80.6758         315.476 
       0.846916         289.892         78.0524         310.703 
       0.859215         289.468         75.5448         306.265 
       0.871383         281.929         73.1728         301.935 
        0.88363         280.277         70.8891         298.828 
       0.895928         274.466         68.6947         294.074 
       0.908253         267.477         66.5896         289.366 
       0.920535         265.187         64.5802         285.686 
       0.932774         258.489          62.661         281.664 
        0.94508         255.505         60.8106         278.731 
       0.957324         254.425         59.0443          274.82 
        0.96953         250.745         57.3539         271.249 
       0.981769         243.611         55.7258         268.486 
       0.994071         242.738         54.1534         265.087 
         1.0064         237.523         52.6392         261.177 
        1.01868         234.648         51.1877         257.933 
        1.03092         228.761         49.7976          255.49 
         1.0432         225.348         48.4543         252.377 
        1.05553         222.541         47.1556         249.055 
        1.06777         221.709         45.9141         246.458 
           1.08         216.298         44.7188         243.526 
        1.09227         214.013         43.5623         240.708 
         1.1046         210.807         42.4426         238.299 
         1.1169         206.326         41.3644          235.04 
        1.12915         203.578         40.3291          232.91 
        1.14142         200.279         39.3272          229.94 
        1.15365         197.559         38.3625         227.518 
        1.16585         194.524         37.4328         224.695 
        1.17807         192.229         36.5329         222.778 
        1.19037         190.183         35.6568          220.69 
        1.20276         187.464         34.8036         217.866 
        1.21504         183.571         33.9851         215.503 
        1.22728         180.391         33.1965         212.765 
        1.23954          179.81          32.431         211.189 
        1.25184         176.311         31.6884         208.815 
        1.26414         173.234         30.9687         206.701 
        1.27632         172.578         30.2779         205.163 
         1.2886         170.807         29.6034         202.552 
        1.30093         165.885         28.9471         200.246 
        1.31316         163.474         28.3156         198.003 
        1.32541         162.139         27.7028         196.374 
        1.33772         160.511         27.1048         194.329 
        1.35005         157.969         26.5241         192.149 
        1.36225          155.53         25.9664         190.391 
        1.37447         153.413         25.4237         188.092 
        1.38676         151.564          24.894         186.531 
        1.39907          149.06         24.3786         184.513 
        1.41133         146.768         23.8801         182.819 
        1.42358         144.925          23.396         181.101 
        1.43591         143.256          22.922         179.196 
        1.44818         141.298         22.4638         177.553 
        1.46037         139.272         22.0209         175.692 
        1.47263         137.595         21.5875           174.3 
        1.48494         135.509         21.1641         172.184 
        1.49724          133.69         20.7524         170.802 
        1.50952         131.264         20.3526         169.126 
        1.52178         130.728         19.9638         167.299 
        1.53409         127.927         19.5837         165.924 
        1.54637         126.473         19.2143          164.53 
        1.55858         124.251         18.8566         162.759 
        1.57081         122.595         18.5074         161.377 
        1.58313         121.052         18.1649          159.74 
        1.59544         119.308         17.8314         158.351 
        1.60767         118.189         17.5083          156.86 
        1.61994         116.092         17.1921         155.609 
        1.63225         114.689         16.8831         153.843 
        1.64452         112.591         16.5826         152.467 
        1.65676         110.954         16.2903         151.202 
          1.669         110.299         16.0048         149.922 
        1.68133         107.928         15.7244          148.54 
        1.69363         106.692         15.4516         147.215 
        1.70585         104.772          15.187         145.908 
        1.71809         103.577          14.928         144.398 
        1.73038         102.854         14.6743         143.235 
        1.74268         101.626         14.4263         141.886 
        1.75493         99.4186         14.1852         140.654 
        1.76714         98.3851         13.9502         139.517 
        1.77942         96.9972         13.7194         138.105 
        1.79173         95.6156         13.4932         137.015 
        1.80402         94.8556         13.2725         135.822 
         1.8163         92.8857          13.057         134.563 
         1.8286         91.6544         12.8458         133.377 
         1.8409         91.0132         12.6395         132.173 
        1.85315         89.4443         12.4385         131.121 
        1.86537         88.4066         12.2422         130.026 
        1.87765         87.5977         12.0494         128.891 
        1.88995         86.1147         11.8603         127.788 
        1.90221         84.9624         11.6759         126.706 
        1.91445         83.8677         11.4958          125.53 
        1.92674         82.4737         11.3188         124.497 
        1.93902          81.459         11.1456         123.382 
        1.95124         80.6415         10.9769          122.38 
         1.9635         79.3737         10.8113         121.252 
        1.97583         78.1964          10.648         120.335 
        1.98812         77.2053         10.4888         119.333 
        2.00039         76.2608         10.3331         118.286 
        2.01264         75.4627         10.1807         117.303 
        2.02492         74.5028         10.0312         116.294 
        2.03717         73.2531         9.88491         115.302 
        2.04942         72.9207         9.74175         114.453 
        2.06171         71.2568         9.60094         113.454 
        2.07397         70.4768         9.46322         112.553 
        2.08629         69.6704         9.32764         111.573 
        2.09857         68.6118         9.19503         110.684 
        2.11081         67.5637         9.06555         109.663 
        2.12309         66.7845         8.93825         108.914 
        2.13538         65.9557         8.81322         107.965 
        2.14763           65.06         8.69099           107.1 
        2.15986         63.9463         8.57137         106.184 
        2.17214         63.4305         8.45352         105.307 
        2.18443         62.6675         8.33777         104.609 
        2.19671         61.4907         8.22432         103.712 
        2.20898         61.1672         8.11313         102.834 
        2.22126         60.2317         8.00387         102.004 
        2.23354         59.5285         7.89667         101.226 
         2.2458         58.6308         7.79161         100.441 
        2.25807           57.85         7.68837         99.5953 
        2.27035         57.2292         7.58691          98.787 
        2.28263         56.4266         7.48734           98.01 
         2.2949         55.8269          7.3896         97.2457 
        2.30718         54.7935         7.29358         96.5131 
        2.31946         54.4642         7.19922         95.7188 
        2.33169         53.5137         7.10693         94.9848 
        2.34393         52.9416         7.01613         94.2774 
        2.35622         52.2593         6.92661         93.5327 
        2.36847         51.7766         6.83891         92.8945 
        2.38076         50.8696         6.75247         92.0576 
        2.39305         50.3118         6.66755         91.4259 
        2.40534         49.7785         6.58408         90.6752 
        2.41762         49.1834         6.50205          89.934 
        2.42989         48.5953         6.42154         89.3229 
        2.44216         48.0373         6.34241         88.5941 
         2.4544         47.4111         6.26479         87.9236 
        2.46667         46.8701         6.18829         87.2317 
        2.47897         46.3721         6.11289         86.5677 
        2.49124         45.7598         6.03895         85.9518 
        2.50349         45.4401         5.96635         85.2726 
        2.51578         44.7057         5.89471         84.7194 
        2.52805         44.2132         5.82439         84.0215 
        2.54029         43.7655         5.75538         83.3457 
        2.55257          43.133         5.68728         82.7791 
        2.56487         42.7769         5.62016         82.2034 
        2.57716         42.1912         5.55422         81.5988 
        2.58942         41.6171         5.48948         80.9713 
        2.60167         41.3072         5.42583          80.384 
        2.61395         40.7012          5.3631          79.802 
        2.62624         40.4597         5.30127         79.1645 
        2.63849         39.9299         5.24062         78.6105 
        2.65073         39.5676         5.18098         78.0285 
        2.66302          39.032         5.12205          77.449 
         2.6753         38.5892         5.06408         76.9065 
        2.68756         38.1839         5.00712         76.3271 
        2.69983         37.8228           4.951         75.8183 
        2.71213         37.4396         4.89563         75.2842 
        2.72441         37.0605         4.84119         74.7276 
        2.73665          36.529         4.78772         74.1909 
         2.7489         36.4053         4.73509         73.6678 
        2.76118         35.8888         4.68308         73.1552 
        2.77349         35.6031         4.63173         72.6286 
        2.78576         35.3351         4.58136         72.0851 
        2.79802         34.9248         4.53176         71.6464 
        2.81031          34.522         4.48278         71.1203 
        2.82259         34.4601         4.43454         70.5942 
        2.83483         33.9793         4.38719         70.1392 
         2.8471         33.6314         4.34045         69.6452 
         2.8594         33.3877         4.29424         69.1375 
         2.8717         33.2034         4.24872         68.6753 
        2.88396         32.8282         4.20403         68.1907 
        2.89619         32.6816         4.16007         67.6858 
        2.90847         32.3352         4.11657         67.2201 
        2.92072         32.1302         4.07376         66.7865 
        2.93299         31.9406         4.03154         66.3306 
        2.94526          31.621         3.98988         65.8831 
        2.95753         31.4245         3.94882         65.4299 
        2.96982         31.2855         3.90827         64.9835 
        2.98209         30.9858         3.86837         64.5526 
        2.99436         30.7906           3.829         64.0863 
        3.00666         30.7239         3.79011         63.6682 
        3.01894         30.4537         3.75183         63.2276 
        3.03119         30.3144         3.71414         62.8171 
        3.04345         30.1907         3.67696         62.4213 
        3.05573         29.9339         3.64021         62.0029 
          3.068         29.9329         3.60401         61.5856 
        3.08026         29.7623         3.56833         61.1713 
        3.09254         29.6327         3.53308         60.7699 
        3.10483         29.6248         3.49829          60.377 
         3.1171         29.4123         3.46402          59.979 
        3.12933          29.397          3.4303         59.5732 
        3.14159         29.2597         3.39696         59.1692 
