# k  (h/Mpc)    Pcb(k)  (Mpc/h)^3    Pcb_linear(k) (Mpc/h)^3    Pcb_NL(k) (Mpc/h)^3   ShotnoiseSubtracted = false
      0.0156606         4987.66          4994.1         4967.78 
      0.0273761         4322.91          4320.5          4304.5 
      0.0384619         3284.64         3255.89          3247.4 
      0.0498308         2567.51         2561.36          2554.7 
      0.0625568         2166.35         2177.05         2169.48 
      0.0751274         1887.55         1849.74         1837.49 
      0.0867833         1489.06          1489.3         1487.08 
      0.0984825         1216.46         1178.62         1185.32 
       0.111151         1022.04         984.143         990.867 
       0.123864          918.22         886.923         892.457 
       0.135742         826.691         797.573         803.228 
        0.14762         704.307         681.969         695.327 
       0.160083          584.77         568.464          583.63 
       0.172465          517.76         496.163         514.646 
       0.184281          479.66         457.405         477.011 
       0.196406         437.633         422.413         437.866 
       0.209011         397.084         375.841         393.036 
       0.221538         354.923          328.45         352.487 
       0.233611          322.58         293.878         320.701 
       0.245665         302.812         271.239         295.176 
       0.258103         275.134         252.501         276.346 
       0.270422         257.105         232.019         255.429 
       0.282519         233.797          210.57         235.297 
       0.294636         226.786         191.853         217.942 
       0.306978          200.12         177.497         204.566 
       0.319417         191.485         165.949         192.022 
        0.33169         178.478         154.896         180.084 
       0.343948          170.22          143.52         169.592 
       0.356249         157.313         132.852         160.652 
       0.368458         151.054         123.916         150.181 
        0.38068         142.612         116.443         142.415 
       0.392856         132.981         109.622         135.732 
       0.405069         126.428         102.951         128.862 
       0.417459         119.726          96.493         121.964 
       0.429752         114.987         90.6954         116.358 
       0.441978         110.039         85.6069         111.943 
       0.454294         102.359         80.9862         106.084 
        0.46658         102.335         76.6506          101.87 
       0.478753         95.4285         72.5605          97.808 
       0.490964         92.4922         68.7186         93.9234 
       0.503334         88.5087         65.1724         90.1456 
       0.515665         85.1208         61.9388          87.514 
       0.527909         81.8865         58.9536         83.1264 
       0.540159         78.9607         56.1295         80.4312 
        0.55248          74.843         53.4496         77.3662 
       0.564743         73.3278         50.9683         75.0059 
        0.57686         71.0492         48.6877         72.4194 
       0.589077         67.4179         46.5349         70.3456 
       0.601441         65.5977         44.4879         68.1285 
        0.61382         63.7538         42.5578         65.7177 
       0.626067         61.1042         40.7568         63.9428 
       0.638306         59.2833         39.0608         61.9267 
       0.650632         57.3111         37.4539           59.81 
       0.662899         56.1037         35.9481         58.0966 
       0.675076         53.8131         34.5369         56.5065 
       0.687267         53.0409         33.1997         54.9222 
       0.699615         51.1492         31.9165         53.7039 
       0.711937         49.1103         30.7036          51.897 
       0.724148         48.8562         29.5639         50.9853 
       0.736433          46.235         28.4764         49.4838 
       0.748747         45.6358         27.4421         48.2303 
       0.761037         44.3702         26.4616         47.0995 
       0.773197         43.3329         25.5392         46.1868 
       0.785376         41.8211         24.6596         44.9907 
       0.797761         41.3167         23.8079         44.0816 
       0.810096         40.2519         22.9998          43.002 
       0.822371          39.324         22.2332         41.9545 
       0.834626         38.2367         21.5029         41.2399 
       0.846916         37.3242         20.8037         40.2967 
       0.859215         36.1865         20.1353         39.4141 
       0.871383         35.6873         19.5031         38.7001 
        0.88363         34.7826         18.8944         38.0064 
       0.895928         33.9898         18.3095         37.1186 
       0.908253         33.2975         17.7484         36.5258 
       0.920535         32.7194         17.2129         35.7735 
       0.932774         32.1533         16.7013         35.0958 
        0.94508         31.4789         16.2082         34.3791 
       0.957324         30.7989         15.7374         33.8114 
        0.96953         30.1807         15.2868         33.1492 
       0.981769         29.5821         14.8529         32.6648 
       0.994071         28.9429         14.4338         32.0679 
         1.0064         28.3034         14.0302         31.5292 
        1.01868         27.7291         13.6433         31.0382 
        1.03092         27.5107         13.2728         30.4828 
         1.0432          26.786         12.9148         29.9056 
        1.05553         26.2804         12.5686         29.6277 
        1.06777         25.6188         12.2377         29.0088 
           1.08         25.0831         11.9191         28.5622 
        1.09227         24.7602         11.6109         28.2089 
         1.1046         24.3992         11.3124         27.7014 
         1.1169         23.9865         11.0251         27.2968 
        1.12915         23.7066         10.7491         26.9151 
        1.14142         23.0039         10.4821         26.4999 
        1.15365         22.7991         10.2249         26.1367 
        1.16585          22.501         9.97715         25.7911 
        1.17807         21.9805          9.7373           25.33 
        1.19037         21.7923         9.50379         25.1151 
        1.20276         21.4648         9.27637          24.719 
        1.21504         21.0354         9.05822         24.4435 
        1.22728         20.6289         8.84802         24.0804 
        1.23954         20.3708           8.644         23.7323 
        1.25184         19.9858         8.44606         23.4565 
        1.26414         19.7452         8.25425         23.1212 
        1.27632         19.4652         8.07013         22.8261 
         1.2886          19.254         7.89034         22.5671 
        1.30093         18.7911         7.71542         22.3315 
        1.31316         18.5901         7.54709          22.015 
        1.32541         18.3665         7.38376         21.7979 
        1.33772         18.0331         7.22438         21.5243 
        1.35005         17.8007          7.0696         21.2946 
        1.36225         17.5588         6.92095         21.0312 
        1.37447         17.2068          6.7763          20.768 
        1.38676         17.0196         6.63513         20.5624 
        1.39907         16.7607         6.49776          20.327 
        1.41133         16.5092         6.36488           20.09 
        1.42358         16.3099         6.23585         19.8555 
        1.43591         16.0627         6.10952         19.6836 
        1.44818         15.8442         5.98739         19.4747 
        1.46037         15.7528         5.86934         19.2226 
        1.47263         15.4608         5.75382         19.0727 
        1.48494         15.3395         5.64097         18.8246 
        1.49724         15.1206         5.53125         18.6686 
        1.50952         14.8981         5.42467         18.4934 
        1.52178         14.7095         5.32106         18.2716 
        1.53409         14.4426         5.21975         18.0951 
        1.54637         14.4134         5.12129         17.8796 
        1.55858          14.165         5.02593         17.7306 
        1.57081         13.9477         4.93287         17.5735 
        1.58313         13.8418          4.8416         17.3986 
        1.59544         13.6031         4.75268         17.2475 
        1.60767         13.4728         4.66657         17.0609 
        1.61994         13.2343          4.5823         16.9206 
        1.63225         13.1723         4.49994         16.7847 
        1.64452         12.9926         4.41984         16.6381 
        1.65676         12.8245         4.34193         16.4607 
          1.669         12.7189         4.26585         16.3096 
        1.68133         12.4735         4.19112         16.1594 
        1.69363         12.3357         4.11839         15.9862 
        1.70585         12.1937         4.04786         15.8964 
        1.71809         12.0698         3.97884         15.7473 
        1.73038         11.9371         3.91121         15.6271 
        1.74268         11.8252         3.84511         15.4707 
        1.75493         11.6168         3.78085         15.3343 
        1.76714         11.6287         3.71822         15.2164 
        1.77942         11.4775         3.65669          15.066 
        1.79173          11.247          3.5964         14.9628 
        1.80402         11.1838          3.5376         14.8463 
         1.8163         11.0558         3.48014         14.7224 
         1.8286         10.8947         3.42386          14.608 
         1.8409         10.7909         3.36888         14.4907 
        1.85315         10.6833         3.31529          14.364 
        1.86537          10.584         3.26297         14.2596 
        1.87765         10.4924         3.21159         14.1463 
        1.88995         10.3047         3.16119         14.0404 
        1.90221         10.2635         3.11205         13.9097 
        1.91445         10.1334         3.06403         13.8255 
        1.92674          10.024         3.01687         13.7074 
        1.93902         9.93255         2.97069         13.6247 
        1.95124         9.80599         2.92573         13.5181 
         1.9635         9.71023         2.88159         13.4072 
        1.97583         9.62811         2.83807         13.2888 
        1.98812         9.55205         2.79562         13.1906 
        2.00039         9.46699         2.75413         13.1113 
        2.01264         9.36959         2.71351         13.0215 
        2.02492         9.29061         2.67366         12.9101 
        2.03717         9.14776         2.63468         12.8214 
        2.04942         9.05082         2.59652         12.7299 
        2.06171         9.02422         2.55899         12.6424 
        2.07397          8.9106         2.52228         12.5587 
        2.08629         8.83239         2.48614         12.4775 
        2.09857         8.75256          2.4508         12.3805 
        2.11081         8.67619         2.41629         12.3109 
        2.12309         8.56179         2.38236         12.2008 
        2.13538         8.48704         2.34903         12.1249 
        2.14763         8.40523         2.31645         12.0458 
        2.15986         8.36852         2.28457         11.9725 
        2.17214         8.28676         2.25316         11.8708 
        2.18443          8.1784         2.22231         11.8046 
        2.19671         8.15379         2.19207         11.7252 
        2.20898         8.03442         2.16243          11.651 
        2.22126         7.94904         2.13331         11.5694 
        2.23354         7.91708         2.10474         11.4847 
         2.2458         7.82315         2.07674         11.4234 
        2.25807          7.7591         2.04922          11.337 
        2.27035         7.70124         2.02218         11.2686 
        2.28263         7.63649         1.99564         11.1918 
         2.2949         7.54862         1.96959         11.1265 
        2.30718          7.4939           1.944          11.069 
        2.31946         7.43815         1.91884         10.9938 
        2.33169         7.37321         1.89425         10.9261 
        2.34393         7.32144         1.87004         10.8512 
        2.35622         7.26996         1.84619         10.7877 
        2.36847         7.20272         1.82281         10.7181 
        2.38076         7.14317         1.79977         10.6539 
        2.39305         7.05308         1.77714         10.5777 
        2.40534         7.01679         1.75489         10.5096 
        2.41762         6.96721         1.73303         10.4627 
        2.42989         6.92556         1.71157         10.3998 
        2.44216         6.86546         1.69048         10.3286 
         2.4544         6.80208         1.66979         10.2688 
        2.46667         6.79084          1.6494         10.2083 
        2.47897         6.73128          1.6293         10.1375 
        2.49124         6.65174         1.60959         10.0793 
        2.50349         6.61856         1.59024         10.0298 
        2.51578         6.56217         1.57115         9.97375 
        2.52805         6.52647          1.5524         9.91563 
        2.54029         6.46346         1.53401           9.859 
        2.55257         6.45091         1.51586         9.80043 
        2.56487         6.37762         1.49797         9.73405 
        2.57716         6.33879         1.48039         9.68636 
        2.58942         6.31667         1.46314          9.6324 
        2.60167         6.26806         1.44617         9.57442 
        2.61395          6.2101         1.42945         9.52274 
        2.62624         6.18929         1.41298          9.4677 
        2.63849         6.16695         1.39681         9.41648 
        2.65073          6.1124         1.38091         9.35736 
        2.66302         6.07418         1.36521         9.30257 
         2.6753         6.03567         1.34976         9.25182 
        2.68756         6.00726         1.33457         9.20921 
        2.69983         5.96678         1.31962         9.14864 
        2.71213         5.93101         1.30486         9.09792 
        2.72441         5.89362         1.29035         9.05053 
        2.73665         5.88136          1.2761         8.99615 
         2.7489         5.85833         1.26207         8.94938 
        2.76118           5.803         1.24821         8.90932 
        2.77349         5.78051         1.23452         8.85488 
        2.78576         5.76402         1.22109         8.80791 
        2.79802         5.72209         1.20787         8.76042 
        2.81031         5.70541         1.19482           8.717 
        2.82259         5.66896         1.18196         8.67029 
        2.83483         5.65343         1.16934         8.62161 
         2.8471         5.63699         1.15688         8.58015 
         2.8594         5.62966         1.14457         8.53586 
         2.8717         5.58396         1.13243          8.4835 
        2.88396          5.5642         1.12052         8.44168 
        2.89619          5.5302          1.1088         8.40371 
        2.90847          5.5289         1.09721         8.35311 
        2.92072         5.53025          1.0858         8.30862 
        2.93299          5.5181         1.07455         8.27208 
        2.94526         5.49701         1.06344          8.2255 
        2.95753         5.47893          1.0525         8.18086 
        2.96982          5.4576         1.04169         8.14158 
        2.98209         5.45111         1.03106         8.09431 
        2.99436         5.44572         1.02056         8.05447 
        3.00666         5.45433          1.0102         8.01792 
        3.01894         5.42401        0.999994         7.97195 
        3.03119         5.42911        0.989948         7.93258 
        3.04345         5.42497        0.980038         7.89385 
        3.05573         5.41511        0.970244         7.85095 
          3.068         5.41014        0.960595         7.81504 
        3.08026          5.4353        0.951087         7.77784 
        3.09254         5.42672        0.941689         7.73628 
        3.10483         5.41654        0.932417         7.70033 
         3.1171         5.42799        0.923283         7.66463 
        3.12933         5.43313        0.914296         7.62202 
        3.14159         5.42068        0.905409         7.58516 
