# k  (h/Mpc)    P(k)  (Mpc/h)^3    P_linear(k)  (Mpc/h)^3     P_NL(k)  ShotnoiseSubtracted = false
      0.0156606           21479         21568.4         21398.7 
      0.0273761         18380.9         18616.4         18414.8 
      0.0384619         13886.3         14012.4           13834 
      0.0498308         10718.2         11015.3           10836 
      0.0625568         9051.43         9357.74          9198.2 
      0.0751274         8058.65         7948.27         7724.17 
      0.0867833         6241.42         6398.12         6328.84 
      0.0984825         5273.47         5062.64         5124.54 
       0.111151          4510.5         4226.78         4303.77 
       0.123864         4040.34         3808.88         3871.18 
       0.135742         3683.63         3424.94         3487.41 
        0.14762         3206.63         2928.36         3094.02 
       0.160083         2724.09         2440.86         2645.14 
       0.172465         2429.55         2130.34         2390.43 
       0.184281         2202.01         1963.87         2224.73 
       0.196406         2077.17         1813.59         2049.21 
       0.209011         1943.35          1613.6         1857.62 
       0.221538         1749.76         1410.11         1734.74 
       0.233611         1677.43         1261.67         1625.96 
       0.245665         1520.45         1164.46         1501.73 
       0.258103         1505.22            1084         1418.08 
       0.270422         1342.65         996.064         1332.43 
       0.282519         1268.22         903.976          1261.7 
       0.294636         1245.47         823.617         1195.33 
       0.306978         1137.82          761.98         1145.67 
       0.319417         1115.35         712.403         1080.27 
        0.33169         1048.45         664.949         1023.22 
       0.343948         1006.39         616.111         991.853 
       0.356249         953.965          570.31         955.241 
       0.368458         916.521         531.948         912.983 
        0.38068         901.708          499.87         878.381 
       0.392856         856.203         470.584         847.881 
       0.405069         812.402         441.948         820.604 
       0.417459         781.401         414.222         791.715 
       0.429752         777.305         389.334         764.153 
       0.441978         750.031         367.489         744.885 
       0.454294         716.963         347.653         714.666 
        0.46658         696.789          329.04         700.088 
       0.478753         683.454         311.481         678.973 
       0.490964         656.963         294.988          658.33 
       0.503334         628.758         279.766         643.768 
       0.515665         626.568         265.884         629.366 
       0.527909         600.688          253.07         616.126 
       0.540159         585.942         240.946         600.576 
        0.55248         574.273         229.442         585.059 
       0.564743          569.61         218.791         575.177 
        0.57686         550.403         209.001          560.05 
       0.589077         540.007         199.759          547.75 
       0.601441         528.076         190.972          537.11 
        0.61382         513.557         182.686         527.775 
       0.626067         507.968         174.955         517.932 
       0.638306         489.342         167.674         507.502 
       0.650632         484.751         160.776         495.385 
       0.662899         480.694         154.312         489.456 
       0.675076         464.778         148.255         482.696 
       0.687267         451.684         142.514         471.276 
       0.699615         449.716         137.006         463.865 
       0.711937         440.869         131.799           455.2 
       0.724148         426.411         126.907         449.085 
       0.736433         416.407         122.239         441.105 
       0.748747         411.147         117.799         433.325 
       0.761037         403.741          113.59          428.05 
       0.773197         397.904          109.63         421.106 
       0.785376         392.545         105.855         415.024 
       0.797761          380.94         102.199         408.773 
       0.810096         377.229         98.7296         403.638 
       0.822371         366.673         95.4386          397.08 
       0.834626         363.392         92.3037         392.399 
       0.846916         357.333         89.3022         386.273 
       0.859215         353.863         86.4331          380.67 
       0.871383         345.661         83.7193         375.646 
        0.88363         342.196         81.1064         371.843 
       0.895928         336.886         78.5957          366.04 
       0.908253         328.481         76.1871         360.082 
       0.920535         322.784         73.8881         356.093 
       0.932774         317.449         71.6923         350.761 
        0.94508         312.695         69.5752         347.214 
       0.957324         310.015         67.5543         342.575 
        0.96953         305.907         65.6203         338.421 
       0.981769         298.298         63.7574         334.698 
       0.994071         297.187         61.9584         330.609 
         1.0064         291.378          60.226         325.803 
        1.01868         288.125         58.5652         321.647 
        1.03092         279.488         56.9748         318.823 
         1.0432          276.73         55.4379         314.968 
        1.05553         273.631          53.952         310.655 
        1.06777         270.443         52.5316         307.207 
           1.08         264.191          51.164         303.793 
        1.09227         263.141         49.8408          300.14 
         1.1046         258.177         48.5597          297.27 
         1.1169         252.397         47.3261         293.307 
        1.12915         249.072         46.1416         290.423 
        1.14142          244.16         44.9953         286.941 
        1.15365          241.39         43.8915         283.923 
        1.16585         237.092         42.8278         280.697 
        1.17807         234.765         41.7983         277.796 
        1.19037         231.081         40.7959          275.42 
        1.20276         227.993         39.8197         271.818 
        1.21504         223.166         38.8832         268.789 
        1.22728         219.867         37.9809         265.713 
        1.23954         218.666         37.1052          263.25 
        1.25184         213.744         36.2555         260.441 
        1.26414         209.447         35.4321         257.955 
        1.27632         208.041         34.6417         255.653 
         1.2886         206.377           33.87         252.696 
        1.30093         201.297         33.1191         249.555 
        1.31316         197.103         32.3965         247.052 
        1.32541         196.029         31.6954         244.569 
        1.33772         192.883         31.0112         242.279 
        1.35005         190.461         30.3469         239.549 
        1.36225         186.807         29.7088         237.311 
        1.37447         183.982         29.0878         234.408 
        1.38676         182.145         28.4819         232.733 
        1.39907         179.469         27.8922          229.94 
        1.41133         176.096         27.3218         227.583 
        1.42358         174.013         26.7679          225.44 
        1.43591         171.833         26.2256         223.359 
        1.44818         168.549         25.7014         221.066 
        1.46037         167.063         25.1946         218.699 
        1.47263         163.849         24.6987         216.725 
        1.48494         162.245         24.2143         214.089 
        1.49724         159.639         23.7433         212.693 
        1.50952         156.688         23.2858          210.33 
        1.52178         155.359         22.8411         208.126 
        1.53409         152.334         22.4062         206.301 
        1.54637          150.16         21.9836         204.598 
        1.55858         148.388         21.5742         202.389 
        1.57081         145.828         21.1748         200.506 
        1.58313         143.903         20.7829         198.463 
        1.59544         141.258         20.4013         196.688 
        1.60767         140.026         20.0316         194.935 
        1.61994         137.593         19.6699         193.053 
        1.63225         135.524         19.3164         191.062 
        1.64452         133.302         18.9725         189.362 
        1.65676         131.537         18.6381         187.728 
          1.669         130.132         18.3115         185.936 
        1.68133         127.565         17.9907         184.239 
        1.69363         125.374         17.6785         182.662 
        1.70585         123.395         17.3758         181.004 
        1.71809         121.826         17.0795         179.049 
        1.73038         120.499         16.7892         177.588 
        1.74268         119.342         16.5054         175.854 
        1.75493         116.326         16.2296         174.413 
        1.76714          115.87         15.9608         172.916 
        1.77942         113.492         15.6966          171.25 
        1.79173         111.693         15.4378         169.708 
        1.80402         110.439         15.1854         168.197 
         1.8163          108.28         14.9388         166.826 
         1.8286         106.929         14.6972          165.21 
         1.8409         105.876         14.4612         163.675 
        1.85315           103.6         14.2311         162.338 
        1.86537          102.77         14.0065         160.985 
        1.87765         101.455          13.786         159.609 
        1.88995         99.5722         13.5696         158.097 
        1.90221         98.3827         13.3587         156.853 
        1.91445         96.9862         13.1526         155.337 
        1.92674         95.4678         12.9501          153.99 
        1.93902         94.2301         12.7519         152.604 
        1.95124         92.9795         12.5589         151.317 
         1.9635         91.4519         12.3694         149.995 
        1.97583          90.052         12.1826         148.703 
        1.98812         88.8057         12.0004         147.611 
        2.00039         87.7948         11.8223         146.207 
        2.01264          86.685          11.648         145.006 
        2.02492         85.6469         11.4769         143.685 
        2.03717         84.2232         11.3095          142.55 
        2.04942         83.2911         11.1458         141.356 
        2.06171         81.6761         10.9846         140.115 
        2.07397         80.8042         10.8271          139.03 
        2.08629         79.6489          10.672         137.818 
        2.09857         78.6237         10.5202         136.709 
        2.11081         77.3053         10.3721         135.448 
        2.12309            76.3         10.2264         134.438 
        2.13538         75.1495         10.0834         133.254 
        2.14763          74.172         9.94356         132.183 
        2.15986         73.2337         9.80669         131.008 
        2.17214         72.2851         9.67185          129.98 
        2.18443         71.3251         9.53942         129.076 
        2.19671         70.3742         9.40963         127.957 
        2.20898         69.5623         9.28241         126.812 
        2.22126         68.5017          9.1574          125.87 
        2.23354         67.7086         9.03475         124.861 
         2.2458         66.3947         8.91455         123.832 
        2.25807         65.7099         8.79643         122.829 
        2.27035         64.7578         8.68035         121.827 
        2.28263         63.9446         8.56643         120.896 
         2.2949         62.7959          8.4546         119.942 
        2.30718         61.9529         8.34474         118.975 
        2.31946         61.4401         8.23678         117.955 
        2.33169         60.4101          8.1312         117.067 
        2.34393         59.9608          8.0273         116.236 
        2.35622         58.8166         7.92489          115.26 
        2.36847         58.3365         7.82455         114.472 
        2.38076         57.3036         7.72565         113.443 
        2.39305         56.7226         7.62849         112.673 
        2.40534         55.9101         7.53299         111.736 
        2.41762         55.2608         7.43914         110.835 
        2.42989         54.4101         7.34703         110.041 
        2.44216          53.894         7.25649         109.119 
         2.4544          53.027         7.16768         108.325 
        2.46667         52.3622         7.08016         107.497 
        2.47897         51.8132         6.99389         106.618 
        2.49124         51.2901         6.90929         105.835 
        2.50349         50.5492         6.82622          105.04 
        2.51578         50.0084         6.74427         104.336 
        2.52805         49.3355          6.6638         103.457 
        2.54029         48.8404         6.58485         102.659 
        2.55257         48.1813         6.50694         101.955 
        2.56487         47.9235         6.43015         101.205 
        2.57716         47.2651          6.3547         100.444 
        2.58942         46.5543         6.28063         99.7017 
        2.60167         46.0008         6.20781         98.9748 
        2.61395          45.651         6.13604         98.2331 
        2.62624         44.8823          6.0653         97.4531 
        2.63849         44.4224         5.99591         96.7645 
        2.65073         43.8946         5.92767         96.0632 
        2.66302         43.4713         5.86025         95.3387 
         2.6753         42.9903         5.79392         94.6778 
        2.68756         42.6063         5.72876         93.9564 
        2.69983         42.0552         5.66455         93.2989 
        2.71213         41.6216         5.60119         92.6316 
        2.72441         41.2085         5.53891         91.9511 
        2.73665         40.7448         5.47773         91.3205 
         2.7489         40.2949         5.41751         90.6776 
        2.76118         39.9238         5.35801         90.0065 
        2.77349         39.4659         5.29926         89.3777 
        2.78576         39.1054         5.24163         88.7154 
        2.79802         38.7718         5.18488         88.1588 
        2.81031         38.2173         5.12884         87.5122 
        2.82259         37.9429         5.07365         86.8631 
        2.83483         37.4789         5.01948         86.3029 
         2.8471         37.1875           4.966         85.6746 
         2.8594         36.7981         4.91313         85.0617 
         2.8717         36.5653         4.86105         84.5136 
        2.88396         36.2413         4.80992           83.92 
        2.89619         35.9544         4.75962         83.2906 
        2.90847         35.6079         4.70985         82.6875 
        2.92072         35.3751         4.66087         82.1753 
        2.93299         35.2389         4.61257         81.6329 
        2.94526         34.8458         4.56491         81.0585 
        2.95753         34.6204         4.51793         80.4873 
        2.96982         34.2757         4.47154         79.9521 
        2.98209         34.1458         4.42589         79.4221 
        2.99436         33.8414         4.38084         78.8494 
        3.00666          33.762         4.33634         78.3214 
        3.01894         33.4694         4.29255         77.8002 
        3.03119         33.3304         4.24942         77.2989 
        3.04345         33.1644         4.20688          76.792 
        3.05573          32.944         4.16484         76.2693 
          3.068           32.81         4.12342         75.7642 
        3.08026         32.6231         4.08261         75.2557 
        3.09254           32.54         4.04227          74.765 
        3.10483         32.5564         4.00247         74.2756 
         3.1171         32.3734         3.96326         73.7792 
        3.12933         32.1997         3.92468         73.2894 
        3.14159         32.1463         3.88653         72.7952 
