# k  (h/Mpc)    Pcb(k)  (Mpc/h)^3    Pcb_linear(k) (Mpc/h)^3    Pcb_NL(k) (Mpc/h)^3   ShotnoiseSubtracted = false
      0.0156606         17896.1         17978.4         17847.8 
      0.0273761         15370.2         15544.8         15401.4 
      0.0384619         11637.7         11711.3         11588.5 
      0.0498308         9005.41         9211.76         9089.73 
      0.0625568         7605.45         7828.85         7718.73 
      0.0751274            6753         6651.44          6495.3 
      0.0867833          5243.9         5355.14         5308.47 
      0.0984825         4404.98          4237.9         4284.87 
       0.111151         3754.77         3538.57         3594.03 
       0.123864         3366.17         3188.96         3234.31 
       0.135742         3060.49         2867.67         2913.55 
        0.14762         2654.78         2451.99         2573.67 
       0.160083         2239.58         2043.88         2191.59 
       0.172465         1997.59         1783.91         1971.21 
       0.184281         1819.64         1644.55         1834.26 
       0.196406         1700.96         1518.74         1685.96 
       0.209011         1582.98         1351.29         1525.72 
       0.221538         1427.39          1180.9         1417.02 
       0.233611         1356.25          1056.6         1322.15 
       0.245665         1234.99           975.2          1218.9 
       0.258103         1207.24         907.827         1149.32 
       0.270422         1080.42         834.188         1076.87 
       0.282519          1012.7         757.072         1013.97 
       0.294636         1000.05         689.776         957.705 
       0.306978          905.57         638.159         915.329 
       0.319417         881.653         596.642         862.232 
        0.33169         830.285         556.901          814.49 
       0.343948         793.521         516.001         787.617 
       0.356249         748.566         477.644         756.719 
       0.368458         723.562         445.517         719.715 
        0.38068         704.925          418.65          690.57 
       0.392856         666.749         394.124         664.726 
       0.405069         635.828         370.143         644.168 
       0.417459         610.782         346.922         617.249 
       0.429752         600.396         326.078         595.319 
       0.441978         579.922         307.783         579.133 
       0.454294         551.397          291.17         554.643 
        0.46658          537.87         275.583         542.174 
       0.478753         524.424         260.877         524.687 
       0.490964         504.465         247.064         507.992 
       0.503334         479.407         234.315         495.444 
       0.515665         478.339         222.689          484.68 
       0.527909         459.807         211.956         472.458 
       0.540159         448.103         201.802         459.537 
        0.55248         439.245         192.168         447.264 
       0.564743         434.674         183.246         439.313 
        0.57686         418.048         175.047         427.015 
       0.589077          406.06         167.307         417.467 
       0.601441         400.464         159.947         408.509 
        0.61382           391.4         153.008         401.119 
       0.626067         385.829         146.533          392.78 
       0.638306         370.286         140.435         385.208 
       0.650632         365.414         134.658         374.714 
       0.662899         362.136         129.244         370.275 
       0.675076         348.357          124.17         363.917 
       0.687267         339.484         119.363         355.297 
       0.699615         335.352         114.749          349.49 
       0.711937         330.206         110.388         343.196 
       0.724148         319.238         106.291         338.128 
       0.736433         312.018         102.381         331.561 
       0.748747         307.618         98.6624         325.422 
       0.761037         301.732         95.1373         320.746 
       0.773197         298.034         91.8208         316.145 
       0.785376         293.382         88.6587         310.937 
       0.797761         285.792         85.5966         306.077 
       0.810096         283.076         82.6913         302.042 
       0.822371         272.904         79.9349         297.046 
       0.834626         271.808         77.3093         292.936 
       0.846916         265.865         74.7953         288.568 
       0.859215         265.669         72.3924          284.44 
       0.871383         258.503         70.1194         280.294 
        0.88363         256.857          67.931         277.404 
       0.895928         251.186         65.8282         272.991 
       0.908253          244.57         63.8109           268.6 
       0.920535         242.854         61.8853         265.077 
       0.932774         236.032         60.0463         261.402 
        0.94508         233.398         58.2731         258.678 
       0.957324         232.498         56.5805         254.958 
        0.96953         229.066         54.9606         251.521 
       0.981769         222.209         53.4004          249.05 
       0.994071         221.256         51.8936         245.859 
         1.0064         216.367         50.4426         242.197 
        1.01868         213.517         49.0516         239.274 
        1.03092         208.571         47.7196         236.916 
         1.0432         204.994         46.4324         234.014 
        1.05553         202.272         45.1879         231.005 
        1.06777           201.7         43.9982         228.637 
           1.08          196.62         42.8527         225.828 
        1.09227         194.276         41.7445         223.305 
         1.1046         191.342         40.6715         221.008 
         1.1169         187.469         39.6383         217.975 
        1.12915         184.825         38.6462         216.005 
        1.14142         181.841         37.6861         213.212 
        1.15365         179.248         36.7617         210.969 
        1.16585         176.575         35.8708         208.281 
        1.17807         174.285         35.0084         206.618 
        1.19037         172.557         34.1689         204.608 
        1.20276         169.919         33.3513         202.027 
        1.21504          166.47          32.567         199.852 
        1.22728          163.35         31.8112         197.295 
        1.23954         162.817         31.0777         195.876 
        1.25184         159.666         30.3661         193.641 
        1.26414         156.952         29.6764          191.64 
        1.27632         156.342         29.0145         190.348 
         1.2886         154.279         28.3681         187.832 
        1.30093         149.785         27.7392         185.754 
        1.31316         147.982          27.134         183.654 
        1.32541         146.448         26.5468         182.224 
        1.33772         145.034         25.9737         180.281 
        1.35005         142.703         25.4173         178.257 
        1.36225         140.614         24.8828         176.645 
        1.37447         138.534         24.3628         174.554 
        1.38676         136.799         23.8552         173.008 
        1.39907         134.391         23.3613         171.223 
        1.41133         132.333         22.8836         169.718 
        1.42358         130.532         22.4197         168.126 
        1.43591         129.028         21.9655         166.286 
        1.44818         127.497         21.5264          164.83 
        1.46037         125.357          21.102         163.112 
        1.47263         124.002         20.6867         161.855 
        1.48494         122.013         20.2809         159.934 
        1.49724         120.346         19.8864          158.54 
        1.50952         118.127         19.5033         157.045 
        1.52178         117.612         19.1308         155.398 
        1.53409         115.111         18.7665         154.119 
        1.54637         113.713         18.4125         152.802 
        1.55858         111.644         18.0697         151.194 
        1.57081         110.163         17.7351         149.918 
        1.58313         108.808         17.4069         148.421 
        1.59544         107.364         17.0873         147.139 
        1.60767         106.136         16.7777         145.726 
        1.61994          104.26         16.4747          144.65 
        1.63225         102.961         16.1786         142.958 
        1.64452         101.044         15.8906         141.692 
        1.65676         99.5821         15.6105          140.54 
          1.669         98.9806          15.337          139.38 
        1.68133         96.8701         15.0683         138.078 
        1.69363         95.8926         14.8068          136.87 
        1.70585         94.1056         14.5532         135.639 
        1.71809         92.9506         14.3051         134.301 
        1.73038         92.2292         14.0619         133.192 
        1.74268         90.9606         13.8243         131.965 
        1.75493         89.3274         13.5933         130.799 
        1.76714         88.1279         13.3681         129.751 
        1.77942         87.0268         13.1469         128.463 
        1.79173         85.7008         12.9301         127.466 
        1.80402         85.0205         12.7187         126.379 
         1.8163         83.3008         12.5121          125.16 
         1.8286         82.1353         12.3098         124.102 
         1.8409         81.4966         12.1121         123.011 
        1.85315         80.1453         11.9194         122.034 
        1.86537         79.1756         11.7313         121.005 
        1.87765         78.4756         11.5466         119.923 
        1.88995         77.1378         11.3654         118.951 
        1.90221         76.0832         11.1887         117.927 
        1.91445         74.9615         11.0161         116.865 
        1.92674         73.7535         10.8465          115.92 
        1.93902         72.8581         10.6805         114.878 
        1.95124         72.1535         10.5189         113.985 
         1.9635         71.0352         10.3601         112.894 
        1.97583         69.9751         10.2037         112.087 
        1.98812         69.0571         10.0511         111.126 
        2.00039         68.1141         9.90189         110.179 
        2.01264         67.4848         9.75587         109.256 
        2.02492          66.514         9.61259         108.342 
        2.03717         65.4019         9.47243         107.396 
        2.04942         65.0905         9.33524         106.633 
        2.06171         63.6383         9.20031         105.701 
        2.07397          62.943         9.06834         104.877 
        2.08629         62.2127         8.93841         103.961 
        2.09857         61.2429         8.81133         103.139 
        2.11081         60.3009         8.68725         102.195 
        2.12309         59.7199         8.56527         101.505 
        2.13538         58.8739         8.44545         100.631 
        2.14763         58.0589         8.32833         99.8252 
        2.15986         56.9909          8.2137         98.9896 
        2.17214         56.5903         8.10076         98.1717 
        2.18443         55.8873         7.98984         97.5181 
        2.19671         54.8575         7.88113         96.6797 
        2.20898         54.6271         7.77458         95.8868 
        2.22126         53.7497         7.66988         95.0985 
        2.23354         53.0525         7.56715         94.3859 
         2.2458         52.3365         7.46647         93.6687 
        2.25807         51.6223         7.36754          92.872 
        2.27035         51.0826         7.27032           92.13 
        2.28263         50.2913          7.1749         91.4007 
         2.2949          49.836         7.08124         90.6921 
        2.30718         48.8763         6.98923         90.0187 
        2.31946          48.489          6.8988         89.3068 
        2.33169         47.6987         6.81037         88.6174 
        2.34393         47.0887         6.72335         87.9499 
        2.35622         46.6396         6.63758         87.2591 
        2.36847          46.096         6.55353          86.661 
        2.38076         45.3401          6.4707         85.8987 
        2.39305         44.8168         6.38932         85.3014 
        2.40534         44.3465         6.30933         84.6006 
        2.41762         43.8394         6.23073         83.9128 
        2.42989         43.3236         6.15358         83.3576 
        2.44216         42.8299         6.07775         82.6857 
         2.4544         42.2721         6.00337         82.0535 
        2.46667         41.7993         5.93006         81.4073 
        2.47897         41.3253         5.85781         80.8074 
        2.49124         40.7617         5.78695         80.2254 
        2.50349         40.3785         5.71738         79.5915 
        2.51578         39.7922         5.64873         79.0763 
        2.52805         39.3858         5.58134         78.4404 
        2.54029         38.9439         5.51521          77.813 
        2.55257          38.358         5.44996         77.2801 
        2.56487         38.0371         5.38564         76.7448 
        2.57716         37.5411         5.32244         76.1916 
        2.58942         37.0306         5.26041          75.606 
        2.60167         36.7271         5.19942         75.0533 
        2.61395         36.2129          5.1393         74.5105 
        2.62624         36.0084         5.08006         73.9318 
        2.63849         35.5688         5.02194         73.4184 
        2.65073         35.1962         4.96478         72.8673 
        2.66302         34.6961         4.90832          72.335 
         2.6753         34.2911         4.85276         71.8255 
        2.68756         33.8949         4.79818         71.2796 
        2.69983         33.6512          4.7444         70.8137 
        2.71213         33.2906         4.69134         70.3222 
        2.72441         32.9227         4.63918         69.8007 
        2.73665         32.4948         4.58794         69.2948 
         2.7489         32.4219          4.5375         68.8088 
        2.76118         31.9188         4.48766         68.3368 
        2.77349         31.7222         4.43846         67.8465 
        2.78576         31.4644         4.39018         67.3437 
        2.79802         31.0498         4.34265         66.9255 
        2.81031         30.7202         4.29572         66.4387 
        2.82259          30.642         4.24949         65.9491 
        2.83483         30.2135         4.20412         65.5173 
         2.8471         29.8884         4.15933         65.0661 
         2.8594         29.7359         4.11505         64.5999 
         2.8717         29.5249         4.07143         64.1619 
        2.88396         29.2096          4.0286          63.705 
        2.89619          29.025         3.98647         63.2409 
        2.90847          28.789         3.94479         62.8192 
        2.92072         28.5604         3.90376         62.4005 
        2.93299         28.3813         3.86331         61.9718 
        2.94526         28.1225         3.82339         61.5625 
        2.95753         27.9612         3.78404         61.1454 
        2.96982         27.8588         3.74519         60.7264 
        2.98209         27.5705         3.70695         60.3223 
        2.99436         27.4235         3.66922         59.8925 
        3.00666         27.3119         3.63195         59.5033 
        3.01894         27.0906         3.59527         59.0891 
        3.03119         26.9622         3.55915          58.704 
        3.04345         26.8032         3.52352         58.3367 
        3.05573          26.678         3.48831         57.9491 
          3.068          26.642         3.45362          57.559 
        3.08026          26.457         3.41943         57.1714 
        3.09254         26.3457         3.38565          56.794 
        3.10483         26.3562         3.35231         56.4287 
         3.1171         26.1934         3.31947         56.0608 
        3.12933          26.175         3.28716         55.6831 
        3.14159         26.0388         3.25521           55.31 
