# k  (h/Mpc)    Pcb(k)  (Mpc/h)^3    Pcb_linear(k) (Mpc/h)^3    Pcb_NL(k) (Mpc/h)^3   ShotnoiseSubtracted = false
      0.0156606         7787.52         7803.38         7759.14 
      0.0273761         6733.29          6749.6         6716.96 
      0.0384619         5113.55            5086          5064.4 
      0.0498308         3986.12         4000.89         3981.69 
      0.0625568         3363.86         3400.49         3381.29 
      0.0751274         2948.59         2889.19         2860.03 
      0.0867833         2314.63         2326.18         2319.61 
      0.0984825         1905.52          1840.9         1854.29 
       0.111151         1606.59         1537.14         1550.99 
       0.123864         1443.11         1385.28         1396.93 
       0.135742         1302.19         1245.72         1257.71 
        0.14762         1114.17         1065.16         1094.38 
       0.160083         926.573         887.877         921.429 
       0.172465         823.341         774.949         816.377 
       0.184281         760.798         714.413         757.974 
       0.196406         696.224         659.759         694.975 
       0.209011         636.121         587.019         625.442 
       0.221538          571.46             513         566.678 
       0.233611             525         459.002         519.134 
       0.245665         490.051         423.642         477.544 
       0.258103         452.765         394.375         448.011 
       0.270422         418.488         362.385         415.529 
       0.282519         382.383         328.885         384.718 
       0.294636         375.869         299.651         358.472 
       0.306978         332.667         277.227         338.375 
       0.319417          319.06         259.192          317.91 
        0.33169         298.738         241.928         298.606 
       0.343948         285.081          224.16         283.626 
       0.356249         265.346         207.497         269.812 
       0.368458          256.19         193.541         253.332 
        0.38068          243.42         181.869         240.937 
       0.392856         227.286         171.215         230.338 
       0.405069         217.461         160.797         220.464 
       0.417459         207.146          150.71         208.611 
       0.429752         199.386         141.654         200.056 
       0.441978         192.032         133.707         193.173 
       0.454294         178.918          126.49         183.546 
        0.46658         179.103         119.718         177.325 
       0.478753         168.678          113.33         170.702 
       0.490964         163.476          107.33          164.19 
       0.503334         155.283         101.791         158.639 
       0.515665         151.441         96.7403         154.477 
       0.527909         146.726         92.0779         147.738 
       0.540159         141.822         87.6669          143.37 
        0.55248         137.312         83.4814         138.421 
       0.564743         133.365         79.6058         134.743 
        0.57686         129.129         76.0439          130.29 
       0.589077         123.383         72.6815         127.092 
       0.601441         120.698         69.4843         123.635 
        0.61382         118.677         66.4698         119.815 
       0.626067          114.08         63.6568         116.731 
       0.638306          110.06         61.0079         113.807 
       0.650632          106.17         58.4981         109.803 
       0.662899         105.883         56.1462         107.285 
       0.675076         102.071         53.9421         104.659 
       0.687267         99.7866         51.8536         102.119 
       0.699615         96.7596         49.8495         100.028 
       0.711937         93.8511         47.9549         97.1683 
       0.724148         92.9761         46.1749         95.7976 
       0.736433         89.2634         44.4765         93.1952 
       0.748747         87.5879          42.861         91.1259 
       0.761037         85.6598         41.3295         88.9608 
       0.773197         83.7902         39.8888         87.8519 
       0.785376         81.8181         38.5151         85.5971 
       0.797761         80.9967         37.1849         84.2459 
       0.810096         78.1725         35.9228         82.3219 
       0.822371          76.686         34.7253         80.7018 
       0.834626         74.9318         33.5847         79.3451 
       0.846916         73.8344         32.4926         77.8987 
       0.859215         72.2211         31.4487         76.2973 
       0.871383         71.2499         30.4613          75.012 
        0.88363         69.2867         29.5106         73.9484 
       0.895928         67.8706         28.5971         72.6213 
       0.908253          66.215         27.7207         71.3803 
       0.920535         65.8658         26.8842         70.2275 
       0.932774         64.5076         26.0853         69.0181 
        0.94508          63.618          25.315         67.7672 
       0.957324         62.0155         24.5797         66.8745 
        0.96953         61.9828          23.876         65.6619 
       0.981769         59.9159         23.1982         64.8788 
       0.994071         59.2299         22.5436         63.9099 
         1.0064         57.9359         21.9133         62.9169 
        1.01868         57.0831          21.309         62.0627 
        1.03092         56.1675         20.7304         61.1335 
         1.0432         55.2098         20.1712          60.142 
        1.05553         53.8335         19.6305         59.6645 
        1.06777         53.3825         19.1137         58.7248 
           1.08         52.1402         18.6161         57.8746 
        1.09227         51.5026         18.1347         57.0711 
         1.1046         50.7342         17.6685         56.2956 
         1.1169         50.1485         17.2197         55.4889 
        1.12915         49.3049         16.7887         54.8862 
        1.14142         48.3632         16.3716         54.1929 
        1.15365         47.6335           15.97         53.5652 
        1.16585         46.9151          15.583         52.7976 
        1.17807         46.1632         15.2084         52.1155 
        1.19037         46.0332         14.8437         51.6494 
        1.20276         45.2055         14.4885          51.006 
        1.21504         44.6299         14.1478          50.437 
        1.22728         43.7542         13.8194         49.8371 
        1.23954         43.2648         13.5008         49.1436 
        1.25184         42.5377         13.1916         48.6964 
        1.26414         41.9229          12.892         48.0659 
        1.27632         41.5845         12.6045         47.5743 
         1.2886         41.1467         12.3237         47.0594 
        1.30093          40.454         12.0505         46.4533 
        1.31316         39.8301         11.7876         46.0725 
        1.32541         39.5679         11.5325         45.5494 
        1.33772         38.8057         11.2835         45.0711 
        1.35005          38.373         11.0418         44.6286 
        1.36225         37.7433         10.8096         44.1957 
        1.37447         36.8548         10.5837         43.6977 
        1.38676         36.9912         10.3632         43.3138 
        1.39907         36.3972         10.1486         42.9158 
        1.41133         35.6426         9.94111         42.4636 
        1.42358         35.2764         9.73958         42.0204 
        1.43591         34.8768         9.54227         41.6604 
        1.44818         34.5127         9.35152           41.18 
        1.46037         34.0583         9.16714         40.8059 
        1.47263         33.8176         8.98671         40.4813 
        1.48494         33.1487         8.81046         40.0532 
        1.49724         33.0448         8.63908         39.6818 
        1.50952         32.5597         8.47262         39.3622 
        1.52178         32.0669          8.3108         38.9822 
        1.53409         31.8134         8.15257         38.6393 
        1.54637         31.3767         7.99878         38.2487 
        1.55858         30.6629         7.84985         37.9221 
        1.57081         30.7516          7.7045          37.628 
        1.58313         30.3712         7.56194         37.2692 
        1.59544         29.8055         7.42306         36.9596 
        1.60767         29.4617         7.28857         36.5935 
        1.61994         29.1107         7.15695         36.3094 
        1.63225         28.9574         7.02832         36.0387 
        1.64452         28.5353          6.9032         35.7357 
        1.65676         28.2256         6.78153         35.4114 
          1.669         27.9484          6.6627          35.157 
        1.68133         27.6095         6.54598         34.8364 
        1.69363         27.2032         6.43239          34.497 
        1.70585         26.9949         6.32222         34.3156 
        1.71809         26.5494         6.21442         33.9573 
        1.73038         26.4143         6.10879          33.745 
        1.74268          26.068         6.00556         33.4057 
        1.75493         25.7506         5.90519         33.1733 
        1.76714         25.5966         5.80737         32.9309 
        1.77942         25.3073         5.71128         32.6543 
        1.79173          24.871         5.61711         32.3982 
        1.80402         24.6178         5.52526         32.2281 
         1.8163         24.5058         5.43552         31.8467 
         1.8286         24.0665         5.34763         31.6636 
         1.8409         23.8638         5.26175         31.4262 
        1.85315         23.6193         5.17804         31.2052 
        1.86537          23.303         5.09633         30.9684 
        1.87765         23.1747         5.01608         30.7269 
        1.88995         22.8498         4.93736         30.4566 
        1.90221         22.6192         4.86061         30.2398 
        1.91445         22.3304         4.78562           30.02 
        1.92674          22.134         4.71195         29.7969 
        1.93902         21.8744         4.63983         29.6073 
        1.95124         21.5391         4.56961         29.4407 
         1.9635         21.4209         4.50066         29.1755 
        1.97583         21.1946          4.4327         28.9702 
        1.98812         21.0196          4.3664         28.7814 
        2.00039         20.7855         4.30159         28.5664 
        2.01264         20.5393         4.23815         28.3814 
        2.02492         20.3826         4.17591          28.143 
        2.03717         20.0632         4.11502         27.9611 
        2.04942         19.9059         4.05542         27.7502 
        2.06171         19.7651          3.9968         27.5687 
        2.07397         19.5596         3.93947         27.3534 
        2.08629         19.3678         3.88303         27.1588 
        2.09857         19.1719         3.82783           26.99 
        2.11081         18.9321         3.77392         26.8016 
        2.12309         18.8038         3.72093         26.6145 
        2.13538         18.5584         3.66888         26.4371 
        2.14763         18.3895           3.618         26.2608 
        2.15986         18.2447          3.5682         26.0912 
        2.17214         18.0406         3.51914         25.9194 
        2.18443         17.8701         3.47095         25.7263 
        2.19671         17.6733         3.42373         25.5444 
        2.20898         17.5076         3.37744         25.3765 
        2.22126         17.3804         3.33195         25.2212 
        2.23354         17.2777         3.28733         25.0509 
         2.2458         17.0662         3.24359         24.9118 
        2.25807         16.8434         3.20061         24.7006 
        2.27035         16.7054         3.15838          24.557 
        2.28263         16.5429         3.11693         24.3974 
         2.2949         16.4447         3.07624          24.251 
        2.30718         16.2893         3.03627          24.098 
        2.31946         16.1675         2.99698          23.928 
        2.33169         15.9886         2.95857         23.7738 
        2.34393         15.8405         2.92076         23.6415 
        2.35622         15.6409          2.8835         23.4827 
        2.36847         15.5189         2.84699         23.3216 
        2.38076         15.3566         2.81101         23.1904 
        2.39305         15.2589         2.77565         23.0391 
        2.40534         15.0912         2.74091         22.8655 
        2.41762         14.9439         2.70676         22.7591 
        2.42989         14.8259         2.67324         22.5922 
        2.44216         14.6803          2.6403         22.4553 
         2.4544         14.6655         2.60799         22.3014 
        2.46667         14.4654         2.57614         22.1769 
        2.47897         14.2862         2.54475         22.0279 
        2.49124         14.2315         2.51397         21.8931 
        2.50349         14.0578         2.48375         21.7467 
        2.51578         13.9613         2.45393         21.6421 
        2.52805         13.8494         2.42465         21.4996 
        2.54029         13.7542         2.39592          21.367 
        2.55257         13.6528         2.36758         21.2328 
        2.56487         13.4739         2.33963         21.1066 
        2.57716         13.3908         2.31218         20.9597 
        2.58942         13.3184         2.28523          20.857 
        2.60167         13.1402         2.25873         20.7293 
        2.61395         13.1302         2.23262         20.6013 
        2.62624         13.0256         2.20688         20.4744 
        2.63849         12.8843         2.18163         20.3701 
        2.65073         12.7843          2.1568         20.2341 
        2.66302         12.7104         2.13227          20.124 
         2.6753         12.6523         2.10814         19.9946 
        2.68756         12.5384         2.08443         19.8855 
        2.69983         12.4367         2.06107         19.7607 
        2.71213         12.3294         2.03801         19.6303 
        2.72441         12.2898         2.01535         19.5263 
        2.73665         12.1993         1.99309         19.4115 
         2.7489         12.1503         1.97118         19.2905 
        2.76118         12.0147         1.94953         19.1846 
        2.77349         11.9512         1.92816          19.072 
        2.78576           11.85         1.90719         18.9687 
        2.79802         11.8179         1.88654         18.8506 
        2.81031         11.7372         1.86615         18.7377 
        2.82259         11.6703         1.84607         18.6368 
        2.83483         11.6209         1.82636         18.5322 
         2.8471         11.5569          1.8069          18.419 
         2.8594         11.5062         1.78766         18.3071 
         2.8717         11.4434         1.76871         18.2085 
        2.88396         11.3666         1.75011         18.1039 
        2.89619          11.336         1.73181         17.9981 
        2.90847         11.2878          1.7137         17.9045 
        2.92072         11.2431         1.69588         17.7862 
        2.93299          11.151          1.6783         17.6955 
        2.94526         11.1345         1.66096         17.6023 
        2.95753         11.0856         1.64387         17.4961 
        2.96982         11.0395         1.62699         17.3964 
        2.98209          11.034         1.61038         17.2993 
        2.99436         11.0008         1.59399         17.1963 
        3.00666         10.9743         1.57779         17.1014 
        3.01894          10.945         1.56186         17.0201 
        3.03119         10.9078         1.54617         16.9194 
        3.04345         10.8428         1.53069         16.8122 
        3.05573           10.86         1.51539         16.7232 
          3.068         10.8362         1.50032         16.6391 
        3.08026         10.8147         1.48547         16.5331 
        3.09254         10.8153          1.4708         16.4498 
        3.10483          10.806         1.45631         16.3693 
         3.1171         10.8303         1.44205         16.2735 
        3.12933         10.7959         1.42801         16.1821 
        3.14159         10.7611         1.41413         16.0898 
