# k  (h/Mpc)    Pcb(k)  (Mpc/h)^3    Pcb_linear(k) (Mpc/h)^3    Pcb_NL(k) (Mpc/h)^3   ShotnoiseSubtracted = false
      0.0156606         3413.55         3416.54         3399.32 
      0.0273761         2963.41         2956.17         2947.06 
      0.0384619         2251.92         2227.89         2224.13 
      0.0498308         1763.52         1752.71         1750.29 
      0.0625568         1487.93         1489.76         1486.34 
      0.0751274         1290.66          1265.8         1259.83 
      0.0867833         1021.89         1019.15         1018.27 
      0.0984825         830.418         806.553         810.216 
       0.111151         696.246         673.473         677.072 
       0.123864          625.48         606.945         609.777 
       0.135742         562.352         545.801          548.65 
        0.14762         478.145         466.691         473.394 
       0.160083         396.958         389.017          396.63 
       0.172465         350.388         339.539         348.727 
       0.184281         324.823         313.017         322.782 
       0.196406         296.213         289.071         296.646 
       0.209011         267.537           257.2         265.742 
       0.221538         238.136         224.769         236.712 
       0.233611         215.163         201.111         214.397 
       0.245665         202.156         185.618         197.448 
       0.258103         182.488         172.795          184.58 
       0.270422         171.198         158.778         170.264 
       0.282519         155.407           144.1         156.315 
       0.294636         149.017         131.292         144.177 
       0.306978         131.639         121.467         134.802 
       0.319417         125.737         113.565         126.444 
        0.33169         116.951         106.001         118.447 
       0.343948         111.233         98.2157          110.95 
       0.356249         102.285          90.915         104.723 
       0.368458         97.8078         84.7999         97.6483 
        0.38068         91.8967          79.686         92.4137 
       0.392856          85.795         75.0178         87.8444 
       0.405069         81.2724         70.4533         83.0008 
       0.417459         76.4042         66.0335         78.5567 
       0.429752         73.2465          62.066         74.6335 
       0.441978         69.8303         58.5838         71.5708 
       0.454294         64.9566         55.4217         67.7544 
        0.46658          64.614         52.4547         64.7753 
       0.478753         60.0885         49.6557         62.0114 
       0.490964          58.121         47.0266         59.4912 
       0.503334         55.7093         44.5998         56.8065 
       0.515665         53.1087         42.3869         54.9863 
       0.527909         50.8665         40.3441         52.1118 
       0.540159         48.8753         38.4114         50.2225 
        0.55248         45.8107         36.5775         48.1738 
       0.564743         45.1342         34.8794         46.6112 
        0.57686          43.678         33.3187         44.8981 
       0.589077         41.2196         31.8455         43.4913 
       0.601441         39.8785         30.4447         41.9719 
        0.61382         38.5522         29.1238         40.3624 
       0.626067         36.9881         27.8913           39.18 
       0.638306         35.8197         26.7307         37.7921 
       0.650632         34.7762          25.631         36.5674 
       0.662899         33.4927         24.6005         35.3603 
       0.675076         32.0011         23.6348         34.2806 
       0.687267         31.5941         22.7197         33.2181 
       0.699615         30.4758         21.8416         32.3594 
       0.711937         29.0196         21.0115         31.2742 
       0.724148         28.8849         20.2316         30.5611 
       0.736433         27.2149         19.4874         29.6158 
       0.748747         26.8011         18.7796         28.8111 
       0.761037         26.0943         18.1086         28.0985 
       0.773197         25.3037         17.4773         27.4093 
       0.785376         24.3279         16.8755         26.6911 
       0.797761         23.8794         16.2926         26.0354 
       0.810096         23.3402         15.7396          25.395 
       0.822371          22.708          15.215         24.6912 
       0.834626         22.0116         14.7152         24.2061 
       0.846916         21.3826         14.2367         23.5906 
       0.859215          20.636         13.7793         23.0524 
       0.871383         20.2995         13.3467         22.5886 
        0.88363         19.7733         12.9301         22.0886 
       0.895928         19.3713         12.5299         21.5329 
       0.908253           18.92         12.1459          21.137 
       0.920535         18.4066         11.7794         20.6555 
       0.932774         18.1168         11.4293         20.1765 
        0.94508         17.5775         11.0918         19.7863 
       0.957324         17.2544         10.7696         19.4123 
        0.96953         16.6979         10.4613         18.9945 
       0.981769         16.5532         10.1643         18.6519 
       0.994071         16.0845         9.87754         18.2622 
         1.0064         15.6428         9.60136         17.9339 
        1.01868         15.3412         9.33659         17.6118 
        1.03092         15.1555         9.08304           17.26 
         1.0432         14.6267         8.83803         16.9206 
        1.05553         14.3971         8.60115         16.6955 
        1.06777         13.9797         8.37471         16.3263 
           1.08         13.7294         8.15668         16.0625 
        1.09227         13.4721         7.94574         15.8057 
         1.1046         13.2575          7.7415         15.4959 
         1.1169         12.9014         7.54483         15.2313 
        1.12915         12.8462           7.356         15.0268 
        1.14142          12.359         7.17326         14.7491 
        1.15365         12.2642         6.99729         14.5081 
        1.16585         12.1125         6.82772         14.3103 
        1.17807         11.7496         6.66358         14.0329 
        1.19037         11.5914         6.50378         13.8531 
        1.20276         11.3427         6.34815         13.6199 
        1.21504         11.1856         6.19887         13.4355 
        1.22728         10.9014         6.05501         13.2125 
        1.23954         10.7504          5.9154         13.0319 
        1.25184         10.5425         5.77994         12.8419 
        1.26414         10.4007         5.64867         12.6314 
        1.27632         10.1503         5.52267         12.4551 
         1.2886         10.0441         5.39964         12.2899 
        1.30093         9.83373         5.27994         12.1593 
        1.31316           9.666         5.16474         11.9535 
        1.32541         9.52024         5.05297         11.8278 
        1.33772         9.33712          4.9439         11.6395 
        1.35005         9.23064         4.83798         11.5003 
        1.36225         9.05397         4.73625         11.3281 
        1.37447         8.90365         4.63726         11.1944 
        1.38676         8.76009         4.54066         11.0605 
        1.39907         8.60522         4.44665         10.9117 
        1.41133          8.4857         4.35571         10.7779 
        1.42358         8.32125         4.26741         10.6315 
        1.43591         8.23463         4.18096         10.5262 
        1.44818         8.05871         4.09739         10.3935 
        1.46037         7.96166          4.0166         10.2546 
        1.47263         7.83217         3.93754         10.1529 
        1.48494         7.75981         3.86032         10.0073 
        1.49724         7.60758         3.78523         9.90996 
        1.50952         7.57094          3.7123         9.79892 
        1.52178         7.40849         3.64139         9.67767 
        1.53409          7.2747         3.57206         9.56346 
        1.54637          7.2111         3.50468         9.44461 
        1.55858         7.12991         3.43943         9.34849 
        1.57081         6.96268         3.37574         9.26162 
        1.58313         6.91497         3.31328         9.15537 
        1.59544         6.77232         3.25243         9.06517 
        1.60767         6.70404          3.1935         8.95656 
        1.61994         6.60775         3.13583          8.8758 
        1.63225         6.51552         3.07947         8.78093 
        1.64452         6.41063         3.02465          8.6897 
        1.65676         6.32646         2.97134         8.60002 
          1.669         6.27999         2.91928         8.50908 
        1.68133         6.13832         2.86813         8.42064 
        1.69363         6.08379         2.81836         8.34753 
        1.70585         6.00073         2.77009         8.25952 
        1.71809         5.93245         2.72286         8.18339 
        1.73038         5.87316         2.67658         8.10627 
        1.74268         5.78755         2.63135         8.02899 
        1.75493           5.701         2.58737         7.93803 
        1.76714          5.6763         2.54451         7.87555 
        1.77942         5.58389         2.50241         7.79197 
        1.79173         5.50513         2.46115         7.71938 
        1.80402         5.45766          2.4209         7.65088 
         1.8163         5.39839         2.38158         7.58984 
         1.8286         5.31076         2.34307         7.52078 
         1.8409          5.2423         2.30544         7.45871 
        1.85315          5.1837         2.26877         7.37938 
        1.86537           5.147         2.23297         7.31999 
        1.87765         5.07017          2.1978         7.25163 
        1.88995         4.98935         2.16331         7.19518 
        1.90221         4.95215         2.12969         7.12492 
        1.91445         4.88856         2.09683         7.08042 
        1.92674           4.852         2.06455         7.00517 
        1.93902         4.79076         2.03295         6.95037 
        1.95124         4.73186         2.00218         6.88383 
         1.9635         4.69315         1.97197         6.83881 
        1.97583         4.63853         1.94219         6.77912 
        1.98812         4.57749         1.91315         6.71371 
        2.00039         4.52879         1.88475         6.67179 
        2.01264         4.48643         1.85696         6.61952 
        2.02492         4.44297         1.82968         6.56251 
        2.03717         4.38866           1.803         6.50976 
        2.04942         4.32573         1.77689         6.46468 
        2.06171         4.29259         1.75121         6.41125 
        2.07397         4.25495         1.72609         6.36026 
        2.08629         4.21033         1.70136         6.31489 
        2.09857         4.16014         1.67717         6.26444 
        2.11081          4.1196         1.65355         6.22234 
        2.12309          4.0763         1.63033         6.16603 
        2.13538         4.03616         1.60753          6.1292 
        2.14763         4.00056         1.58523         6.08088 
        2.15986         3.96887         1.56341         6.03703 
        2.17214         3.92039         1.54192         5.98539 
        2.18443         3.89107          1.5208         5.94502 
        2.19671         3.84013         1.50011         5.90285 
        2.20898         3.80769         1.47983          5.8633 
        2.22126         3.77795          1.4599         5.81834 
        2.23354         3.73547         1.44035         5.77365 
         2.2458          3.7104         1.42119          5.7306 
        2.25807         3.67285         1.40235         5.69609 
        2.27035         3.63675         1.38385         5.65927 
        2.28263         3.60547         1.36569         5.61761 
         2.2949         3.57507         1.34786         5.58334 
        2.30718          3.5426         1.33035         5.55187 
        2.31946         3.51735         1.31313         5.51259 
        2.33169         3.47976          1.2963         5.47019 
        2.34393         3.46372         1.27974         5.43423 
        2.35622         3.43543         1.26341         5.39588 
        2.36847          3.3975         1.24741         5.36092 
        2.38076         3.37876         1.23165          5.3242 
        2.39305          3.3377         1.21616         5.28655 
        2.40534          3.3152         1.20093         5.25395 
        2.41762          3.2749         1.18597         5.22614 
        2.42989         3.26422         1.17129         5.18982 
        2.44216         3.24578         1.15685         5.15895 
         2.4544         3.20708          1.1427         5.12404 
        2.46667         3.19049         1.12874         5.09265 
        2.47897         3.15918         1.11499         5.05978 
        2.49124         3.13116          1.1015         5.02782 
        2.50349          3.1187         1.08826         5.00048 
        2.51578         3.08209         1.07519         4.96659 
        2.52805         3.06699         1.06237         4.93613 
        2.54029         3.04695         1.04978         4.90678 
        2.55257         3.02952         1.03736          4.8791 
        2.56487         3.00335         1.02511         4.84481 
        2.57716         2.99558         1.01309         4.81653 
        2.58942         2.95972         1.00128         4.78917 
        2.60167         2.94435        0.989669         4.75867 
        2.61395         2.91553        0.978227         4.73285 
        2.62624          2.9151         0.96695         4.70698 
        2.63849         2.88542        0.955887         4.67545 
        2.65073         2.86634        0.945008         4.64762 
        2.66302         2.85179         0.93426         4.62185 
         2.6753         2.84066        0.923686         4.59529 
        2.68756         2.81147        0.913297         4.57068 
        2.69983         2.79917        0.903061         4.54134 
        2.71213         2.79264         0.89296         4.51545 
        2.72441         2.77501        0.883031         4.49085 
        2.73665         2.75729        0.873278         4.46495 
         2.7489         2.73648        0.863677         4.44306 
        2.76118         2.72333        0.854192         4.42259 
        2.77349         2.72035        0.844826         4.39348 
        2.78576         2.70429        0.835638         4.36864 
        2.79802         2.69709         0.82659         4.34667 
        2.81031         2.67758        0.817656         4.32169 
        2.82259         2.66538        0.808858         4.29774 
        2.83483         2.66209        0.800222         4.27546 
         2.8471         2.64597        0.791696         4.25236 
         2.8594         2.63879        0.783268         4.23142 
         2.8717         2.62662        0.774965         4.20655 
        2.88396         2.62039        0.766814         4.18277 
        2.89619         2.59787        0.758795         4.16255 
        2.90847         2.59715         0.75086         4.13725 
        2.92072         2.59513        0.743052         4.11744 
        2.93299         2.58763        0.735351         4.09612 
        2.94526          2.5874        0.727752         4.07527 
        2.95753          2.5686        0.720263         4.05424 
        2.96982         2.56052        0.712867         4.03298 
        2.98209         2.56381         0.70559         4.01317 
        2.99436          2.5539        0.698408         3.99217 
        3.00666         2.56067        0.691314         3.97256 
        3.01894         2.55091        0.684332         3.94893 
        3.03119         2.55414        0.677457         3.92981 
        3.04345         2.54677        0.670675         3.91245 
        3.05573         2.54738        0.663973         3.89257 
          3.068         2.54722        0.657369         3.87366 
        3.08026         2.55305        0.650863         3.85366 
        3.09254         2.54934        0.644432         3.83337 
        3.10483         2.55256        0.638087         3.81543 
         3.1171         2.55316        0.631835         3.79797 
        3.12933          2.5598        0.625685         3.77794 
        3.14159         2.55574        0.619604         3.75726 
