# k  (h/Mpc)    Pcb(k)  (Mpc/h)^3    Pcb_linear(k) (Mpc/h)^3    Pcb_NL(k) (Mpc/h)^3   ShotnoiseSubtracted = false
      0.0156606         24089.3         24235.3         24034.8 
      0.0273761           20621         20951.8         20702.7 
      0.0384619         15579.6         15783.8         15559.4 
      0.0498308         12018.3         12414.5         12187.7 
      0.0625568         10157.7         10550.5         10350.2 
      0.0751274         9063.01         8963.63         8683.41 
      0.0867833         7011.08         7216.62         7128.85 
      0.0984825         5948.71         5710.97         5785.34 
       0.111151         5101.23         4768.52         4864.22 
       0.123864         4568.34         4297.38         4374.44 
       0.135742         4173.62         3864.39          3941.3 
        0.14762         3641.26         3304.24         3506.47 
       0.160083          3110.1         2754.26         3005.75 
       0.172465         2773.84         2403.94         2724.65 
       0.184281         2506.74         2216.14         2536.06 
       0.196406         2379.66          2046.6         2339.76 
       0.209011         2234.52         1820.95         2123.75 
       0.221538         2009.42         1591.33         1989.23 
       0.233611         1936.37         1423.83         1869.23 
       0.245665         1752.67         1314.14         1728.93 
       0.258103         1746.75         1223.35         1634.28 
       0.270422         1558.44         1124.12         1538.28 
       0.282519         1478.71          1020.2         1461.73 
       0.294636         1446.07         929.512         1387.26 
       0.306978         1328.74         859.954         1331.95 
       0.319417         1308.57         804.007          1256.7 
        0.33169          1228.5         750.454         1192.61 
       0.343948         1183.59         695.339         1157.32 
       0.356249         1126.32         643.651         1116.26 
       0.368458         1077.32         600.358         1070.18 
        0.38068         1065.71         564.153         1031.49 
       0.392856         1014.88         531.103         997.633 
       0.405069         960.168         498.787          964.27 
       0.417459         923.926         467.496         934.187 
       0.429752         925.551         439.407         902.091 
       0.441978         893.265         414.754         880.365 
       0.454294         856.243         392.367          845.88 
        0.46658         832.659         371.362          829.39 
       0.478753         819.025         351.546         805.585 
       0.490964         789.058         332.932          781.75 
       0.503334         756.786         315.751         765.703 
       0.515665         753.348         300.085         748.124 
       0.527909         721.519         285.622         734.059 
       0.540159         706.037         271.939         716.829 
        0.55248         691.416         258.956         698.892 
       0.564743         685.028         246.934          687.15 
        0.57686         665.143         235.885         669.751 
       0.589077         656.999         225.455         655.727 
       0.601441         638.748         215.537         643.677 
        0.61382         620.328         206.186         632.225 
       0.626067         615.014         197.461          621.36 
       0.638306         593.162         189.244         608.683 
       0.650632         587.741         181.458         595.542 
       0.662899         583.234         174.163         587.977 
       0.675076         566.921         167.326         580.785 
       0.687267         550.217         160.847         567.552 
       0.699615         550.712         154.631         558.585 
       0.711937         537.087         148.754         547.936 
       0.724148         520.967         143.232         541.247 
       0.736433         509.487         137.964         532.046 
       0.748747         503.297         132.953         522.984 
       0.761037         494.848         128.202         517.038 
       0.773197         486.075         123.733         508.101 
       0.785376         481.664         119.472         501.034 
       0.797761         467.537         115.346         494.398 
       0.810096         460.251         111.431         487.874 
       0.822371         450.306         107.716         480.192 
       0.834626         445.176         104.178         474.992 
       0.846916         440.084          100.79         467.619 
       0.859215         433.114         97.5523         460.708 
       0.871383         424.359         94.4894          454.82 
        0.88363         418.096         91.5405         450.282 
       0.895928         413.527         88.7068         443.469 
       0.908253         403.816         85.9883         436.079 
       0.920535         393.982         83.3936         431.903 
       0.932774         389.346         80.9153         425.178 
        0.94508         383.638         78.5259         421.176 
       0.957324         378.052          76.245         415.583 
        0.96953          373.45         74.0622         410.547 
       0.981769         365.186         71.9597         405.971 
       0.994071         364.048         69.9293          401.16 
         1.0064         357.639          67.974         395.369 
        1.01868         353.155         66.0995         390.494 
        1.03092         343.381         64.3045         387.119 
         1.0432         340.081         62.5699         382.457 
        1.05553         336.944         60.8929         377.162 
        1.06777         331.762         59.2897         372.766 
           1.08         324.547         57.7462         368.697 
        1.09227         324.447         56.2528         364.336 
         1.1046         317.407         54.8069         361.061 
         1.1169         311.695         53.4146         356.352 
        1.12915         306.706         52.0777         352.514 
        1.14142         300.817         50.7839          348.53 
        1.15365         297.306         49.5382           344.9 
        1.16585         293.023         48.3377         341.109 
        1.17807          290.12         47.1756         337.166 
        1.19037         284.043         46.0443         334.293 
        1.20276         281.658         44.9425         329.998 
        1.21504          276.18         43.8856         326.273 
        1.22728         272.084         42.8672         323.125 
        1.23954         270.313         41.8788          319.46 
        1.25184         264.266         40.9198         316.167 
        1.26414         259.588         39.9905         313.188 
        1.27632         256.474         39.0984         310.233 
         1.2886         253.638         38.2274         306.811 
        1.30093          248.74         37.3799         302.812 
        1.31316         243.814         36.5644         300.199 
        1.32541         242.593         35.7731          296.74 
        1.33772          237.94         35.0009         294.193 
        1.35005         235.124          34.251         290.852 
        1.36225         230.971         33.5308          288.15 
        1.37447         227.159           32.83         284.786 
        1.38676         225.021         32.1461          282.74 
        1.39907         221.763         31.4806         279.245 
        1.41133         217.703         30.8368         276.292 
        1.42358         214.852         30.2117          273.72 
        1.43591         211.868         29.5996         271.335 
        1.44818         207.906         29.0079         268.366 
        1.46037          206.26          28.436         265.519 
        1.47263         202.589         27.8763         262.819 
        1.48494          201.14         27.3296         259.773 
        1.49724         197.108          26.798         258.207 
        1.50952         194.126         26.2816         254.982 
        1.52178         191.213         25.7797         252.766 
        1.53409         188.408         25.2888         250.265 
        1.54637         185.291         24.8118         248.213 
        1.55858         183.267         24.3498         245.651 
        1.57081         180.219          23.899         243.104 
        1.58313         178.191         23.4567         240.666 
        1.59544         174.795         23.0259         238.538 
        1.60767         173.449         22.6088         236.444 
        1.61994         170.332         22.2005         233.964 
        1.63225         167.611         21.8015         231.608 
        1.64452         164.942         21.4134         229.566 
        1.65676         163.021         21.0359         227.648 
          1.669         161.097         20.6673         225.258 
        1.68133         157.902         20.3053         223.198 
        1.69363         155.337         19.9529         221.414 
        1.70585         153.055         19.6112         219.257 
        1.71809         151.012         19.2768          216.96 
        1.73038         148.735         18.9492         215.084 
        1.74268         147.497         18.6289             213 
        1.75493         144.716         18.3176         211.303 
        1.76714          143.59         18.0142         209.412 
        1.77942         140.914         17.7161         207.569 
        1.79173         139.122          17.424         205.488 
        1.80402         136.928         17.1391         203.673 
         1.8163          134.77         16.8607         202.073 
         1.8286         132.728          16.588         200.098 
         1.8409         130.988         16.3217         198.244 
        1.85315         128.713          16.062         196.596 
        1.86537         127.254         15.8085         194.909 
        1.87765         125.693         15.5596         193.234 
        1.88995         123.694         15.3154         191.399 
        1.90221         122.115         15.0774         189.904 
        1.91445           120.2         14.8447         188.137 
        1.92674         118.187         14.6162         186.416 
        1.93902         116.877         14.3925         184.738 
        1.95124         115.185         14.1747         183.204 
         1.9635         113.441         13.9608         181.615 
        1.97583         111.793           13.75         179.963 
        1.98812         110.131         13.5443         178.746 
        2.00039          108.98         13.3433             177 
        2.01264         107.581         13.1465         175.533 
        2.02492         105.718         12.9534         173.925 
        2.03717         104.371         12.7646         172.574 
        2.04942         103.009         12.5797         171.052 
        2.06171         101.376         12.3979         169.501 
        2.07397         99.9155           12.22         168.252 
        2.08629         98.4801         12.0449         166.799 
        2.09857          97.328         11.8737         165.465 
        2.11081         95.8486         11.7065         163.948 
        2.12309          94.588         11.5421         162.658 
        2.13538         93.1271         11.3807          161.28 
        2.14763         91.6939         11.2228         159.941 
        2.15986         90.8357         11.0684          158.51 
        2.17214         89.5062         10.9162         157.362 
        2.18443         88.5658         10.7667         156.159 
        2.19671         87.4149         10.6202          154.79 
        2.20898         86.0535         10.4766         153.403 
        2.22126         84.9656         10.3355         152.279 
        2.23354         83.8237         10.1971         151.112 
         2.2458          82.163         10.0614         149.783 
        2.25807         81.6296         9.92813         148.606 
        2.27035         80.4528         9.79712          147.43 
        2.28263         79.4278         9.66854         146.303 
         2.2949         78.1651         9.54232         145.147 
        2.30718         76.9312         9.41833          143.95 
        2.31946         76.0958         9.29648          142.72 
        2.33169         74.9774         9.17731         141.655 
        2.34393         74.0831         9.06005         140.681 
        2.35622         73.0875         8.94446         139.448 
        2.36847         72.1303         8.83121         138.462 
        2.38076         70.9223         8.71959          137.31 
        2.39305         70.3318         8.60992         136.319 
        2.40534         69.1756         8.50214          135.19 
        2.41762         68.5944         8.39621         134.139 
        2.42989         67.3986         8.29226         133.137 
        2.44216         66.7994         8.19007         132.049 
         2.4544         66.0447         8.08984          131.11 
        2.46667          64.861         7.99105         130.114 
        2.47897         64.4314         7.89368         129.015 
        2.49124         63.5367         7.79821         128.047 
        2.50349         62.4132         7.70445         127.116 
        2.51578          61.976         7.61195         126.221 
        2.52805         60.9539         7.52113         125.208 
        2.54029         60.4046         7.43202         124.272 
        2.55257         59.6575         7.34409         123.388 
        2.56487          59.124         7.25742         122.475 
        2.57716         58.4383         7.17226          121.55 
        2.58942          57.627         7.08866         120.668 
        2.60167           56.88         7.00647         119.808 
        2.61395         56.4011         6.92547         118.889 
        2.62624         55.6552         6.84563         117.961 
        2.63849         54.9795         6.76731         117.159 
        2.65073         54.2098         6.69029         116.264 
        2.66302         53.7427          6.6142         115.461 
         2.6753         53.0046         6.53934         114.632 
        2.68756         52.5879         6.46579         113.774 
        2.69983         52.0366         6.39332         112.954 
        2.71213         51.4695         6.32181         112.148 
        2.72441         50.9317         6.25152         111.324 
        2.73665         50.3301         6.18247         110.556 
         2.7489         49.8636          6.1145         109.784 
        2.76118         49.4015         6.04735         108.971 
        2.77349         48.9205         5.98104         108.219 
        2.78576         48.4155         5.91599          107.44 
        2.79802         47.9886         5.85194         106.736 
        2.81031         47.4751         5.78869         105.976 
        2.82259         46.9953          5.7264          105.18 
        2.83483         46.4975         5.66526          104.49 
         2.8471         46.0091          5.6049         103.743 
         2.8594         45.6054         5.54523         103.021 
         2.8717          45.255         5.48645         102.348 
        2.88396         44.7572         5.42874         101.641 
        2.89619         44.5363         5.37197          100.91 
        2.90847         44.0858         5.31579         100.171 
        2.92072          43.675         5.26052         99.5585 
        2.93299         43.4218           5.206         98.8895 
        2.94526         43.0858          5.1522         98.1817 
        2.95753         42.8155         5.09918         97.5202 
        2.96982         42.3192         5.04682         96.8864 
        2.98209         42.0602          4.9953         96.2178 
        2.99436          41.909         4.94446         95.5465 
        3.00666         41.6444         4.89423         94.9061 
        3.01894         41.3659          4.8448         94.2773 
        3.03119         41.0995         4.79613         93.6783 
        3.04345         40.8513         4.74812         93.0701 
        3.05573         40.8193         4.70067          92.442 
          3.068         40.4664         4.65392         91.8372 
        3.08026         40.2286         4.60785         91.2293 
        3.09254         40.2804         4.56233         90.6357 
        3.10483         40.0299          4.5174         90.0444 
         3.1171         39.9128         4.47315         89.4445 
        3.12933         39.7702         4.42961         88.8534 
        3.14159         39.6584         4.38655         88.2726 
