# k  (h/Mpc)    Pcb(k)  (Mpc/h)^3    Pcb_linear(k) (Mpc/h)^3    Pcb_NL(k) (Mpc/h)^3   ShotnoiseSubtracted = false
      0.0156606         24089.2         24235.3         24034.8 
      0.0273761         20620.4         20951.8         20702.7 
      0.0384619         15578.5         15783.8         15559.4 
      0.0498308         12016.3         12414.5         12187.7 
      0.0625568         10155.1         10550.5         10350.2 
      0.0751274         9059.99         8963.63         8683.41 
      0.0867833         7008.33         7216.62         7128.85 
      0.0984825          5945.4         5710.97         5785.34 
       0.111151         5097.82         4768.52         4864.22 
       0.123864         4564.71         4297.38         4374.44 
       0.135742         4170.06         3864.39          3941.3 
        0.14762         3637.76         3304.24         3506.47 
       0.160083         3106.42         2754.26         3005.75 
       0.172465         2770.39         2403.94         2724.65 
       0.184281         2503.33         2216.14         2536.06 
       0.196406         2376.02          2046.6         2339.76 
       0.209011         2230.61         1820.95         2123.75 
       0.221538         2005.65         1591.33         1989.23 
       0.233611         1932.47         1423.83         1869.23 
       0.245665         1748.98         1314.14         1728.93 
       0.258103         1742.74         1223.35         1634.28 
       0.270422         1554.48         1124.12         1538.28 
       0.282519         1474.77          1020.2         1461.73 
       0.294636         1442.05         929.512         1387.26 
       0.306978         1324.82         859.954         1331.95 
       0.319417         1304.41         804.007          1256.7 
        0.33169         1224.41         750.454         1192.61 
       0.343948         1179.45         695.339         1157.32 
       0.356249         1122.13         643.651         1116.26 
       0.368458         1073.16         600.358         1070.18 
        0.38068          1061.4         564.153         1031.49 
       0.392856         1010.59         531.103         997.633 
       0.405069         955.946         498.787          964.27 
       0.417459         919.643         467.496         934.187 
       0.429752         921.051         439.407         902.091 
       0.441978         888.781         414.754         880.365 
       0.454294         851.713         392.367          845.88 
        0.46658         828.128         371.362          829.39 
       0.478753         814.414         351.546         805.585 
       0.490964          784.35         332.932          781.75 
       0.503334         752.169         315.751         765.703 
       0.515665         748.637         300.085         748.124 
       0.527909          716.87         285.622         734.059 
       0.540159         701.283         271.939         716.829 
        0.55248         686.623         258.956         698.892 
       0.564743         680.132         246.934          687.15 
        0.57686          660.26         235.885         669.751 
       0.589077         652.032         225.455         655.727 
       0.601441         633.789         215.537         643.677 
        0.61382         615.395         206.186         632.225 
       0.626067         609.919         197.461          621.36 
       0.638306         588.154         189.244         608.683 
       0.650632         582.678         181.458         595.542 
       0.662899         578.068         174.163         587.977 
       0.675076         561.753         167.326         580.785 
       0.687267         545.064         160.847         567.552 
       0.699615         545.402         154.631         558.585 
       0.711937         531.789         148.754         547.936 
       0.724148         515.717         143.232         541.247 
       0.736433         504.239         137.964         532.046 
       0.748747         497.978         132.953         522.984 
       0.761037         489.527         128.202         517.038 
       0.773197         480.737         123.733         508.101 
       0.785376         476.225         119.472         501.034 
       0.797761         462.151         115.346         494.398 
       0.810096          454.87         111.431         487.874 
       0.822371          444.91         107.716         480.192 
       0.834626         439.748         104.178         474.992 
       0.846916         434.633          100.79         467.619 
       0.859215         427.653         97.5523         460.708 
       0.871383         418.906         94.4894          454.82 
        0.88363         412.612         91.5405         450.282 
       0.895928          408.04         88.7068         443.469 
       0.908253         398.375         85.9883         436.079 
       0.920535         388.545         83.3936         431.903 
       0.932774         383.885         80.9153         425.178 
        0.94508         378.174         78.5259         421.176 
       0.957324         372.585          76.245         415.583 
        0.96953         367.974         74.0622         410.547 
       0.981769          359.73         71.9597         405.971 
       0.994071         358.531         69.9293          401.16 
         1.0064         352.132          67.974         395.369 
        1.01868         347.647         66.0995         390.494 
        1.03092         337.916         64.3045         387.119 
         1.0432         334.592         62.5699         382.457 
        1.05553         331.429         60.8929         377.162 
        1.06777         326.223         59.2897         372.766 
           1.08          319.08         57.7462         368.697 
        1.09227         318.888         56.2528         364.336 
         1.1046         311.886         54.8069         361.061 
         1.1169         306.187         53.4146         356.352 
        1.12915         301.241         52.0777         352.514 
        1.14142         295.376         50.7839          348.53 
        1.15365         291.834         49.5382           344.9 
        1.16585         287.553         48.3377         341.109 
        1.17807         284.638         47.1756         337.166 
        1.19037         278.612         46.0443         334.293 
        1.20276         276.175         44.9425         329.998 
        1.21504         270.749         43.8856         326.273 
        1.22728         266.657         42.8672         323.125 
        1.23954         264.872         41.8788          319.46 
        1.25184         258.898         40.9198         316.167 
        1.26414         254.229         39.9905         313.188 
        1.27632         251.134         39.0984         310.233 
         1.2886         248.309         38.2274         306.811 
        1.30093         243.449         37.3799         302.812 
        1.31316         238.559         36.5644         300.199 
        1.32541         237.294         35.7731          296.74 
        1.33772         232.715         35.0009         294.193 
        1.35005         229.885          34.251         290.852 
        1.36225          225.76         33.5308          288.15 
        1.37447         222.001           32.83         284.786 
        1.38676         219.859         32.1461          282.74 
        1.39907         216.622         31.4806         279.245 
        1.41133         212.599         30.8368         276.292 
        1.42358         209.779         30.2117          273.72 
        1.43591         206.812         29.5996         271.335 
        1.44818         202.897         29.0079         268.366 
        1.46037         201.243          28.436         265.519 
        1.47263         197.606         27.8763         262.819 
        1.48494         196.142         27.3296         259.773 
        1.49724         192.181          26.798         258.207 
        1.50952         189.234         26.2816         254.982 
        1.52178         186.355         25.7797         252.766 
        1.53409         183.564         25.2888         250.265 
        1.54637         180.491         24.8118         248.213 
        1.55858         178.498         24.3498         245.651 
        1.57081         175.463          23.899         243.104 
        1.58313         173.447         23.4567         240.666 
        1.59544         170.118         23.0259         238.538 
        1.60767          168.74         22.6088         236.444 
        1.61994         165.697         22.2005         233.964 
        1.63225         163.015         21.8015         231.608 
        1.64452         160.391         21.4134         229.566 
        1.65676         158.491         21.0359         227.648 
          1.669         156.584         20.6673         225.258 
        1.68133         153.434         20.3053         223.198 
        1.69363         150.923         19.9529         221.414 
        1.70585         148.665         19.6112         219.257 
        1.71809         146.646         19.2768          216.96 
        1.73038         144.413         18.9492         215.084 
        1.74268         143.179         18.6289             213 
        1.75493         140.459         18.3176         211.303 
        1.76714          139.33         18.0142         209.412 
        1.77942         136.682         17.7161         207.569 
        1.79173         134.929          17.424         205.488 
        1.80402          132.78         17.1391         203.673 
         1.8163         130.652         16.8607         202.073 
         1.8286         128.653          16.588         200.098 
         1.8409         126.943         16.3217         198.244 
        1.85315         124.706          16.062         196.596 
        1.86537         123.274         15.8085         194.909 
        1.87765         121.737         15.5596         193.234 
        1.88995         119.771         15.3154         191.399 
        1.90221         118.218         15.0774         189.904 
        1.91445          116.35         14.8447         188.137 
        1.92674         114.371         14.6162         186.416 
        1.93902         113.098         14.3925         184.738 
        1.95124          111.43         14.1747         183.204 
         1.9635         109.724         13.9608         181.615 
        1.97583         108.108           13.75         179.963 
        1.98812         106.482         13.5443         178.746 
        2.00039         105.349         13.3433             177 
        2.01264         103.989         13.1465         175.533 
        2.02492         102.171         12.9534         173.925 
        2.03717         100.843         12.7646         172.574 
        2.04942         99.5095         12.5797         171.052 
        2.06171          97.913         12.3979         169.501 
        2.07397         96.4971           12.22         168.252 
        2.08629         95.0878         12.0449         166.799 
        2.09857         93.9613         11.8737         165.465 
        2.11081         92.5187         11.7065         163.948 
        2.12309         91.2866         11.5421         162.658 
        2.13538         89.8516         11.3807          161.28 
        2.14763           88.47         11.2228         159.941 
        2.15986          87.619         11.0684          158.51 
        2.17214         86.3239         10.9162         157.362 
        2.18443         85.4019         10.7667         156.159 
        2.19671         84.2904         10.6202          154.79 
        2.20898         82.9619         10.4766         153.403 
        2.22126         81.8969         10.3355         152.279 
        2.23354         80.7839         10.1971         151.112 
         2.2458         79.1803         10.0614         149.783 
        2.25807          78.643         9.92813         148.606 
        2.27035         77.5078         9.79712          147.43 
        2.28263         76.5052         9.66854         146.303 
         2.2949         75.2644         9.54232         145.147 
        2.30718         74.0792         9.41833          143.95 
        2.31946         73.2602         9.29648          142.72 
        2.33169         72.1742         9.17731         141.655 
        2.34393          71.314         9.06005         140.681 
        2.35622         70.3419         8.94446         139.448 
        2.36847          69.406         8.83121         138.462 
        2.38076         68.2369         8.71959          137.31 
        2.39305         67.6588         8.60992         136.319 
        2.40534         66.5428         8.50214          135.19 
        2.41762         65.9685         8.39621         134.139 
        2.42989         64.8112         8.29226         133.137 
        2.44216         64.2427         8.19007         132.049 
         2.4544         63.4921         8.08984          131.11 
        2.46667          62.349         7.99105         130.114 
        2.47897         61.9337         7.89368         129.015 
        2.49124         61.0643         7.79821         128.047 
        2.50349         59.9811         7.70445         127.116 
        2.51578         59.5495         7.61195         126.221 
        2.52805         58.5548         7.52113         125.208 
        2.54029         58.0245         7.43202         124.272 
        2.55257         57.3012         7.34409         123.388 
        2.56487         56.7805         7.25742         122.475 
        2.57716         56.1174         7.17226          121.55 
        2.58942         55.3358         7.08866         120.668 
        2.60167         54.6141         7.00647         119.808 
        2.61395         54.1549         6.92547         118.889 
        2.62624         53.4242         6.84563         117.961 
        2.63849         52.7704         6.76731         117.159 
        2.65073         52.0343         6.69029         116.264 
        2.66302         51.5809          6.6142         115.461 
         2.6753         50.8634         6.53934         114.632 
        2.68756         50.4701         6.46579         113.774 
        2.69983         49.9284         6.39332         112.954 
        2.71213         49.3837         6.32181         112.148 
        2.72441         48.8651         6.25152         111.324 
        2.73665         48.2847         6.18247         110.556 
         2.7489         47.8307          6.1145         109.784 
        2.76118         47.3836         6.04735         108.971 
        2.77349         46.9137         5.98104         108.219 
        2.78576         46.4248         5.91599          107.44 
        2.79802         46.0204         5.85194         106.736 
        2.81031         45.5248         5.78869         105.976 
        2.82259         45.0577          5.7264          105.18 
        2.83483         44.5795         5.66526          104.49 
         2.8471         44.0997          5.6049         103.743 
         2.8594         43.7142         5.54523         103.021 
         2.8717         43.3786         5.48645         102.348 
        2.88396         42.9005         5.42874         101.641 
        2.89619         42.6788         5.37197          100.91 
        2.90847         42.2488         5.31579         100.171 
        2.92072          41.858         5.26052         99.5585 
        2.93299         41.6079           5.206         98.8895 
        2.94526         41.2815          5.1522         98.1817 
        2.95753         41.0222         5.09918         97.5202 
        2.96982         40.5461         5.04682         96.8864 
        2.98209          40.297          4.9953         96.2178 
        2.99436          40.151         4.94446         95.5465 
        3.00666         39.8991         4.89423         94.9061 
        3.01894         39.6256          4.8448         94.2773 
        3.03119         39.3696         4.79613         93.6783 
        3.04345         39.1244         4.74812         93.0701 
        3.05573         39.0958         4.70067          92.442 
          3.068         38.7579         4.65392         91.8372 
        3.08026         38.5319         4.60785         91.2293 
        3.09254         38.5737         4.56233         90.6357 
        3.10483         38.3378          4.5174         90.0444 
         3.1171         38.2248         4.47315         89.4445 
        3.12933         38.0779         4.42961         88.8534 
        3.14159         37.9757         4.38655         88.2726 
