# k  (h/Mpc)    Pcb(k)  (Mpc/h)^3    Pcb_linear(k) (Mpc/h)^3    Pcb_NL(k) (Mpc/h)^3   ShotnoiseSubtracted = false
      0.0156606           13716         13764.9         13673.9 
      0.0273761           11810         11903.1         11814.2 
      0.0384619         8954.67         8968.27         8896.51 
      0.0498308         6948.18         7054.41         6984.69 
      0.0625568         5866.36         5995.51         5931.24 
      0.0751274         5186.96          5093.9         5001.35 
      0.0867833         4042.48         4101.19         4075.27 
      0.0984825         3370.92         3245.58         3277.34 
       0.111151         2861.38         2710.01         2745.49 
       0.123864         2567.69         2442.28          2471.7 
       0.135742         2327.25         2196.22         2226.27 
        0.14762         2008.85         1877.88         1956.06 
       0.160083         1683.01         1565.32         1658.28 
       0.172465         1500.36         1366.23         1483.21 
       0.184281         1375.29          1259.5          1379.6 
       0.196406         1273.05         1163.14         1265.72 
       0.209011         1176.95          1034.9         1143.32 
       0.221538         1061.68         904.408         1053.62 
       0.233611         996.407          809.21         977.022 
       0.245665         915.308          746.87         899.387 
       0.258103          877.26         695.272         846.616 
       0.270422         792.686         638.875         790.453 
       0.282519         735.259         579.815         739.402 
       0.294636         728.552         528.276         695.426 
       0.306978         653.026         488.744         662.117 
       0.319417         631.249         456.947         623.049 
        0.33169         594.705         426.511         587.062 
       0.343948          566.79         395.187         565.072 
       0.356249         532.223         365.811         541.134 
       0.368458         516.351         341.206         512.049 
        0.38068         497.202         320.629         489.776 
       0.392856         467.832         301.846         470.161 
       0.405069         448.621          283.48         455.038 
       0.417459         429.686         265.696         432.912 
       0.429752         417.262         249.732         417.069 
       0.441978         403.671         235.721         404.741 
       0.454294         380.626         222.997         386.738 
        0.46658         375.371         211.059         376.762 
       0.478753         362.082         199.797         363.828 
       0.490964         349.333         189.218          351.49 
       0.503334         329.791         179.454         341.817 
       0.515665         327.862          170.55         334.227 
       0.527909         316.835          162.33         323.921 
       0.540159         308.573         154.554         314.696 
        0.55248         302.557         147.175         305.733 
       0.564743         296.571         140.342         299.583 
        0.57686         285.377         134.063         290.557 
       0.589077         274.753         128.135         284.238 
       0.601441         271.518         122.498         277.551 
        0.61382         267.762         117.184         271.558 
       0.626067         262.234         112.225         265.376 
       0.638306         250.247         107.555         260.236 
       0.650632         244.979          103.13         252.354 
       0.662899         243.785         98.9838         248.685 
       0.675076          234.59          95.098          243.48 
       0.687267         228.688          91.416         238.033 
       0.699615         224.805         87.8828         233.591 
       0.711937         220.439         84.5428          229.24 
       0.724148         215.008         81.4048           225.8 
       0.736433         210.335         78.4104         220.913 
       0.748747         206.227         75.5623         216.566 
       0.761037         202.965         72.8625         212.639 
       0.773197         199.496         70.3225         210.031 
       0.785376         197.157         67.9008         205.737 
       0.797761         192.524         65.5556         202.997 
       0.810096         189.291         63.3305          199.58 
       0.822371         182.367         61.2195         196.255 
       0.834626         181.318         59.2086         193.064 
       0.846916         178.403         57.2833         190.249 
       0.859215         177.349         55.4429         187.356 
       0.871383         172.956         53.7021         184.283 
        0.88363         170.787         52.0261         182.291 
       0.895928         167.058         50.4156         179.594 
       0.908253         162.486         48.8707         176.426 
       0.920535         161.934         47.3959         174.114 
       0.932774           156.6         45.9875         171.486 
        0.94508         155.399         44.6294         169.582 
       0.957324         154.679         43.3331         167.022 
        0.96953         152.955         42.0925         164.437 
       0.981769         148.216         40.8976         162.974 
       0.994071          147.51         39.7436         160.753 
         1.0064         143.912         38.6324         158.314 
        1.01868         142.222         37.5671         156.585 
        1.03092         139.948         36.5469         154.783 
         1.0432         137.328          35.561         152.801 
        1.05553         134.765         34.6079         151.124 
        1.06777         134.544         33.6968          149.53 
           1.08         131.518         32.8195         147.525 
        1.09227         130.071         31.9708         146.032 
         1.1046         127.861          31.149         144.257 
         1.1169         126.289         30.3577         142.313 
        1.12915         124.255         29.5979         140.855 
        1.14142         122.364         28.8626         139.045 
        1.15365          120.52         28.1546         137.563 
        1.16585         118.888         27.4723         135.831 
        1.17807          117.07         26.8118         134.826 
        1.19037         116.661         26.1688         133.387 
        1.20276         114.145         25.5426         131.769 
        1.21504         113.008          24.942         130.307 
        1.22728         110.701         24.3632          128.84 
        1.23954          109.96         23.8014         127.611 
        1.25184         107.615         23.2564         126.253 
        1.26414         106.334         22.7282         124.966 
        1.27632         105.557         22.2212         124.295 
         1.2886         103.611         21.7262         122.448 
        1.30093         101.506         21.2445         121.135 
        1.31316         101.037          20.781             120 
        1.32541          99.649         20.3313         119.013 
        1.33772         98.4378         19.8924         117.756 
        1.35005         97.3124         19.4663         116.493 
        1.36225         96.0319         19.0569          115.43 
        1.37447         94.0576         18.6586         114.184 
        1.38676         93.7868         18.2699         112.944 
        1.39907         91.6892         17.8917         112.054 
        1.41133         90.3871         17.5258         111.157 
        1.42358         89.3327         17.1705         109.952 
        1.43591         88.7352         16.8227         108.802 
        1.44818         87.6406         16.4864         107.872 
        1.46037         86.1691         16.1613         106.871 
        1.47263         84.7899         15.8432         106.041 
        1.48494         84.2411         15.5325         104.948 
        1.49724          82.783         15.2304         103.834 
        1.50952         81.6904         14.9369         102.919 
        1.52178          80.805         14.6516         102.052 
        1.53409         80.0901         14.3727         101.155 
        1.54637         78.2063         14.1016         100.205 
        1.55858         77.4866          13.839         99.2657 
        1.57081         76.5054         13.5827         98.4396 
        1.58313         75.4505         13.3314         97.5759 
        1.59544          74.648         13.0866          96.669 
        1.60767         73.6571         12.8495         95.8054 
        1.61994         72.7042         12.6174         95.1802 
        1.63225         71.5992         12.3907         94.0488 
        1.64452         70.7533         12.1701         93.3509 
        1.65676         69.6987         11.9556         92.5159 
          1.669         69.2208         11.7461         91.7696 
        1.68133          68.432         11.5403         90.9208 
        1.69363         67.4007         11.3401         90.2467 
        1.70585         66.7555         11.1458         89.4017 
        1.71809         65.4453         10.9558         88.7673 
        1.73038         64.7459         10.7696          87.891 
        1.74268         63.8309         10.5876         87.2029 
        1.75493          63.274         10.4106         86.4206 
        1.76714         62.3109         10.2382         85.6904 
        1.77942         61.9633         10.0688         84.9766 
        1.79173         60.8753         9.90275         84.2228 
        1.80402         60.2154         9.74083         83.6161 
         1.8163         59.4929         9.58262         82.7984 
         1.8286         58.6027         9.42766         82.2625 
         1.8409         57.7181         9.27626         81.5016 
        1.85315         56.9907          9.1287         80.9654 
        1.86537         56.4341         8.98464         80.2318 
        1.87765         55.7317         8.84316         79.4626 
        1.88995         55.0429         8.70438         78.8896 
        1.90221         54.5499         8.56908         78.2368 
        1.91445         53.6183         8.43687         77.6561 
        1.92674          53.118           8.307         77.0142 
        1.93902         52.4571         8.17985         76.3419 
        1.95124         52.0496         8.05605         75.8511 
         1.9635         51.0629         7.93449         75.1237 
        1.97583         50.5684         7.81468         74.6321 
        1.98812         49.8768          7.6978         73.9661 
        2.00039         49.3587         7.58354         73.3819 
        2.01264         48.6098         7.47171         72.8169 
        2.02492         48.0773         7.36197         72.2709 
        2.03717         47.4341         7.25462         71.6321 
        2.04942         46.8291         7.14956         71.1464 
        2.06171         46.2663         7.04621         70.5131 
        2.07397          45.635         6.94514         70.0371 
        2.08629         45.1383         6.84563         69.4239 
        2.09857         44.7727         6.74831         68.9468 
        2.11081         43.8662         6.65328         68.3468 
        2.12309         43.5279         6.55986         67.8481 
        2.13538         43.0067          6.4681         67.3366 
        2.14763         42.5945         6.37839         66.8254 
        2.15986         42.1963          6.2906         66.2938 
        2.17214         41.4546         6.20411         65.8626 
        2.18443         41.2583         6.11916         65.3014 
        2.19671         40.4912          6.0359         64.7738 
        2.20898         40.1046          5.9543          64.282 
        2.22126          39.668         5.87411         63.7851 
        2.23354         39.1353         5.79543         63.3643 
         2.2458         38.8013         5.71833         62.8796 
        2.25807         38.2965         5.64256         62.3664 
        2.27035         37.8278          5.5681         61.9113 
        2.28263         37.3452         5.49502         61.4486 
         2.2949         36.8372         5.42329         61.0065 
        2.30718         36.5315         5.35282         60.5621 
        2.31946         36.0225         5.28357         60.1299 
        2.33169         35.6778         5.21584         59.6581 
        2.34393         35.1304          5.1492         59.2038 
        2.35622         34.8191          5.0835         58.7858 
        2.36847         34.3764         5.01914         58.3377 
        2.38076         34.1582          4.9557          57.939 
        2.39305         33.7244         4.89337         57.5183 
        2.40534         33.3538         4.83211         57.0293 
        2.41762         32.9584         4.77191         56.6221 
        2.42989         32.4978         4.71283         56.2565 
        2.44216         32.2599         4.65475         55.8304 
         2.4544         31.9559         4.59779         55.4436 
        2.46667         31.3917         4.54164         55.0036 
        2.47897         31.1739          4.4863         54.6319 
        2.49124         30.7973         4.43204         54.2302 
        2.50349         30.4369         4.37875         53.8699 
        2.51578          30.086         4.32618         53.4929 
        2.52805         29.8877         4.27457         53.0839 
        2.54029         29.6268         4.22392         52.7175 
        2.55257         29.2344         4.17395         52.3534 
        2.56487         28.9473         4.12469         51.9831 
        2.57716         28.6721         4.07629         51.6382 
        2.58942          28.285         4.02877         51.2654 
        2.60167         27.9626         3.98206         50.8678 
        2.61395         27.7254         3.93603         50.5321 
        2.62624         27.4676         3.89065          50.185 
        2.63849         27.2403         3.84614         49.8322 
        2.65073         26.9232         3.80236          49.463 
        2.66302         26.6051         3.75912         49.1477 
         2.6753         26.3574         3.71657         48.8041 
        2.68756         26.0666         3.67477         48.4646 
        2.69983          25.876         3.63358         48.1314 
        2.71213         25.5183         3.59294         47.8137 
        2.72441          25.418         3.55299         47.4609 
        2.73665         25.1434         3.51375         47.1401 
         2.7489         24.9648         3.47512         46.8257 
        2.76118          24.718         3.43695         46.4834 
        2.77349         24.5097         3.39927         46.1941 
        2.78576         24.3306          3.3623         45.8711 
        2.79802         24.0139          3.3259         45.5587 
        2.81031         23.8503         3.28995         45.2678 
        2.82259          23.668         3.25455         44.9461 
        2.83483          23.417          3.2198         44.6385 
         2.8471         23.3192         3.18549         44.3444 
         2.8594          23.061         3.15158         44.0635 
         2.8717         22.8342         3.11817         43.7583 
        2.88396         22.7495         3.08538          43.452 
        2.89619         22.6039         3.05311         43.1686 
        2.90847         22.4241         3.02118         42.8782 
        2.92072         22.2671         2.98977         42.6114 
        2.93299         22.1802         2.95878         42.3185 
        2.94526         22.0236         2.92821          42.046 
        2.95753         21.8345         2.89807         41.7835 
        2.96982         21.8204         2.86832         41.5047 
        2.98209         21.6075         2.83903         41.2346 
        2.99436         21.5102         2.81014         40.9675 
        3.00666         21.3761         2.78159         40.6979 
        3.01894         21.3221          2.7535         40.4191 
        3.03119         21.1416         2.72584         40.1509 
        3.04345         21.0495         2.69855         39.9007 
        3.05573         20.9755         2.67158           39.65 
          3.068         20.9464         2.64501         39.3857 
        3.08026         20.9332         2.61883         39.1296 
        3.09254         20.7985         2.59296         38.8888 
        3.10483         20.7941         2.56743          38.646 
         3.1171         20.7083         2.54227         38.3967 
        3.12933         20.6947         2.51753         38.1513 
        3.14159         20.6815         2.49306         37.9037 
