# k  (h/Mpc)    Pcb(k)  (Mpc/h)^3    Pcb_linear(k) (Mpc/h)^3    Pcb_NL(k) (Mpc/h)^3   ShotnoiseSubtracted = false
      0.0156606         18617.5         18706.4         18567.6 
      0.0273761           15984         16173.9           16018 
      0.0384619         12100.4         12185.3         12050.3 
      0.0498308         9361.18         9584.49         9449.91 
      0.0625568          7907.7          8145.6         8024.63 
      0.0751274         7026.83         6920.55         6749.48 
      0.0867833         5454.22         5571.79         5520.11 
      0.0984825         4588.54         4409.35         4459.53 
       0.111151          3914.8         3681.72         3741.79 
       0.123864         3509.88         3317.97         3366.93 
       0.135742         3193.28         2983.68          3033.1 
        0.14762         2772.61         2551.19         2682.44 
       0.160083         2343.04         2126.56         2286.61 
       0.172465          2090.1         1856.08         2059.29 
       0.184281         1902.38         1711.08         1916.34 
       0.196406         1782.01         1580.18         1762.32 
       0.209011         1660.87         1405.96         1595.52 
       0.221538         1497.66         1228.67         1484.17 
       0.233611         1426.16         1099.34         1386.58 
       0.245665         1297.32         1014.65         1278.86 
       0.258103         1272.23         944.552         1206.32 
       0.270422         1137.94         867.934         1131.14 
       0.282519          1068.6         787.698         1066.68 
       0.294636         1054.53          717.68         1008.36 
       0.306978         956.905         663.975         964.496 
       0.319417         933.313         620.778         908.781 
        0.33169         878.929         579.429         859.045 
       0.343948         840.853         536.875          831.33 
       0.356249         794.328         496.967          799.25 
       0.368458         767.138          463.54         761.138 
        0.38068         749.249         435.585         730.833 
       0.392856         709.406         410.068          703.98 
       0.405069         676.093         385.116         682.081 
       0.417459         649.985         360.956         654.767 
       0.429752         640.795         339.269         631.635 
       0.441978         618.876         320.234         614.804 
       0.454294         589.472         302.949         589.074 
        0.46658         574.432         286.731         576.202 
       0.478753          561.17         271.431         557.923 
       0.490964         539.889         257.059         540.398 
       0.503334         514.054         243.794         527.416 
       0.515665          513.04         231.697         515.902 
       0.527909         493.065         220.531         503.498 
       0.540159         480.677         209.966         489.961 
        0.55248         471.391         199.941         476.992 
       0.564743         467.204         190.659         468.674 
        0.57686         449.737         182.128         455.773 
       0.589077         437.868         174.075          445.57 
       0.601441         431.498         166.418         436.259 
        0.61382         421.282         159.198         428.532 
       0.626067         415.905         152.461          419.85 
       0.638306         399.662         146.116         411.669 
       0.650632         395.018         140.105         400.798 
       0.662899         391.618         134.472         396.106 
       0.675076         377.144         129.193         389.678 
       0.687267         367.594         124.191         380.393 
       0.699615         363.793         119.391         374.287 
       0.711937          358.27         114.854         367.499 
       0.724148         346.371         110.591         362.166 
       0.736433          338.55         106.523         355.303 
       0.748747         334.115         102.654         348.807 
       0.761037         327.894         98.9859         344.038 
       0.773197         324.025         95.5353         338.929 
       0.785376         319.107         92.2452         333.584 
       0.797761         310.694         89.0593         328.308 
       0.810096         308.165         86.0364         324.116 
       0.822371         297.648         83.1685         318.766 
       0.834626         296.324         80.4367         314.541 
       0.846916         290.066          77.821         309.782 
       0.859215         289.702         75.3209         305.358 
       0.871383         282.175          72.956          301.04 
        0.88363         280.569          70.679         297.942 
       0.895928         274.752         68.4912         293.203 
       0.908253         267.776         66.3922         288.508 
       0.920535         265.548         64.3888         284.839 
       0.932774         258.827         62.4753         280.829 
        0.94508          255.89         60.6304         277.905 
       0.957324         254.846         58.8694         274.005 
        0.96953         251.182          57.184         270.445 
       0.981769         244.051         55.5606          267.69 
       0.994071         243.201         53.9929         264.301 
         1.0064         237.997         52.4832         260.403 
        1.01868          235.13         51.0359         257.169 
        1.03092         229.292           49.65         254.733 
         1.0432         225.876         48.3107         251.629 
        1.05553         223.075         47.0159         248.317 
        1.06777         222.284          45.778         245.727 
           1.08         216.889         44.5862         242.804 
        1.09227         214.592         43.4332         239.994 
         1.1046         211.413         42.3168         237.593 
         1.1169         206.958         41.2418         234.343 
        1.12915         204.213         40.2096         232.219 
        1.14142         200.925         39.2107         229.259 
        1.15365         198.222         38.2488         226.844 
        1.16585          195.21         37.3219         224.029 
        1.17807         192.924         36.4246         222.118 
        1.19037         190.904         35.5511         220.035 
        1.20276         188.186         34.7004          217.22 
        1.21504         184.311         33.8844         214.865 
        1.22728         181.133         33.0981         212.134 
        1.23954         180.571         32.3349         210.563 
        1.25184         177.082         31.5945         208.196 
        1.26414         174.017         30.8769         206.088 
        1.27632         173.379         30.1882         204.555 
         1.2886         171.607         29.5157         201.952 
        1.30093         166.667         28.8613         199.653 
        1.31316         164.296         28.2316         197.416 
        1.32541         162.962         27.6207         195.792 
        1.33772         161.343         27.0245         193.753 
        1.35005         158.807         26.4455         191.579 
        1.36225         156.388         25.8894         189.827 
        1.37447         154.273         25.3483         187.534 
        1.38676         152.428         24.8203         185.978 
        1.39907          149.91         24.3064         183.966 
        1.41133         147.641         23.8093         182.277 
        1.42358         145.792         23.3266         180.564 
        1.43591         144.136         22.8541         178.665 
        1.44818         142.195         22.3972         177.027 
        1.46037         140.152         21.9556         175.172 
        1.47263         138.494         21.5235         173.783 
        1.48494         136.405         21.1014         171.673 
        1.49724         134.587         20.6909         170.296 
        1.50952         132.154         20.2922         168.625 
        1.52178         131.634         19.9047         166.803 
        1.53409         128.835         19.5257         165.433 
        1.54637         127.384         19.1574         164.042 
        1.55858         125.151         18.8007         162.277 
        1.57081         123.506         18.4526         160.899 
        1.58313         121.964         18.1111         159.267 
        1.59544         120.234         17.7785         157.881 
        1.60767         119.102         17.4564         156.395 
        1.61994          117.01         17.1412         155.148 
        1.63225         115.605         16.8331         153.387 
        1.64452         113.505         16.5334         152.015 
        1.65676         111.857          16.242         150.754 
          1.669         111.216         15.9574         149.478 
        1.68133         108.842         15.6778         148.099 
        1.69363         107.615         15.4058         146.778 
        1.70585         105.687          15.142         145.475 
        1.71809         104.492         14.8838          143.97 
        1.73038         103.772         14.6308         142.811 
        1.74268         102.541         14.3835         141.465 
        1.75493         100.339         14.1431         140.237 
        1.76714         99.2876         13.9089         139.103 
        1.77942         97.9144         13.6787         137.696 
        1.79173         96.5267         13.4532         136.609 
        1.80402         95.7705         13.2332          135.42 
         1.8163         93.7923         13.0183         134.164 
         1.8286         92.5576         12.8078         132.982 
         1.8409         91.9154         12.6021         131.782 
        1.85315         90.3485         12.4016         130.732 
        1.86537          89.303         12.2059         129.641 
        1.87765         88.4947         12.0137         128.509 
        1.88995         87.0052         11.8252         127.409 
        1.90221         85.8544         11.6413         126.331 
        1.91445         84.7478         11.4617         125.158 
        1.92674         83.3547         11.2853         124.128 
        1.93902         82.3349         11.1126         123.016 
        1.95124         81.5248         10.9444         122.017 
         1.9635         80.2481         10.7792         120.893 
        1.97583         79.0676         10.6165         119.978 
        1.98812         78.0718         10.4577          118.98 
        2.00039         77.1187         10.3025         117.936 
        2.01264         76.3276         10.1505         116.955 
        2.02492          75.356         10.0015          115.95 
        2.03717         74.0954         9.85562          114.96 
        2.04942          73.772         9.71288         114.113 
        2.06171         72.0949         9.57249         113.118 
        2.07397          71.312         9.43518          112.22 
        2.08629         70.5005         9.29999         111.242 
        2.09857          69.436         9.16778         110.356 
        2.11081         68.3836         9.03868         109.338 
        2.12309         67.6085         8.91176         108.591 
        2.13538           66.77          8.7871         107.645 
        2.14763         65.8657         8.66524         106.783 
        2.15986         64.7427         8.54597         105.869 
        2.17214         64.2265         8.42846         104.995 
        2.18443          63.461         8.31306         104.299 
        2.19671         62.2752         8.19995         103.405 
        2.20898         61.9562         8.08909         102.529 
        2.22126         61.0108         7.98015         101.701 
        2.23354         60.3019         7.87326         100.926 
         2.2458         59.4028         7.76852         100.143 
        2.25807         58.6149         7.66558         99.3001 
        2.27035         57.9981         7.56443         98.4942 
        2.28263         57.1829         7.46515         97.7195 
         2.2949         56.5847          7.3677         96.9575 
        2.30718         55.5368         7.27197          96.227 
        2.31946         55.2062         7.17788         95.4351 
        2.33169         54.2511         7.08587         94.7033 
        2.34393         53.6681         6.99533          93.998 
        2.35622         52.9937         6.90609         93.2555 
        2.36847         52.4994         6.81865         92.6192 
        2.38076          51.584         6.73246         91.7847 
        2.39305         51.0232         6.64779         91.1549 
        2.40534         50.4865         6.56457         90.4065 
        2.41762         49.8885         6.48278         89.6675 
        2.42989         49.2991         6.40251         89.0581 
        2.44216         48.7318         6.32361         88.3316 
         2.4544         48.1046         6.24623          87.663 
        2.46667         47.5574         6.16995         86.9732 
        2.47897          47.055         6.09477         86.3112 
        2.49124         46.4337         6.02105          85.697 
        2.50349         46.1105         5.94866         85.0198 
        2.51578         45.3714         5.87724         84.4683 
        2.52805          44.877         5.80712         83.7724 
        2.54029         44.4212         5.73832         83.0987 
        2.55257         43.7823         5.67043         82.5338 
        2.56487         43.4215          5.6035         81.9598 
        2.57716         42.8328         5.53775          81.357 
        2.58942          42.252         5.47321         80.7313 
        2.60167         41.9396         5.40975         80.1458 
        2.61395         41.3254         5.34721         79.5655 
        2.62624         41.0862         5.28556         78.9298 
        2.63849         40.5527         5.22509         78.3776 
        2.65073          40.185         5.16562         77.7972 
        2.66302         39.6385         5.10687         77.2194 
         2.6753         39.1915         5.04907         76.6786 
        2.68756         38.7813         4.99228         76.1009 
        2.69983         38.4212         4.93633         75.5936 
        2.71213         38.0331         4.88112         75.0611 
        2.72441         37.6503         4.82685         74.5061 
        2.73665         37.1105         4.77353          73.971 
         2.7489         36.9907         4.72105         73.4495 
        2.76118         36.4643          4.6692         72.9384 
        2.77349           36.18         4.61801         72.4133 
        2.78576         35.9095         4.56778         71.8715 
        2.79802         35.4911         4.51833         71.4341 
        2.81031         35.0817         4.46949         70.9095 
        2.82259         35.0224          4.4214          70.385 
        2.83483         34.5355         4.37419         69.9313 
         2.8471         34.1798         4.32758         69.4388 
         2.8594         33.9371         4.28151         68.9326 
         2.8717         33.7485         4.23613         68.4718 
        2.88396         33.3713         4.19157         67.9886 
        2.89619         33.2212         4.14774         67.4852 
        2.90847         32.8714         4.10437         67.0209 
        2.92072         32.6606         4.06168         66.5886 
        2.93299         32.4701         4.01959          66.134 
        2.94526         32.1488         3.97806         65.6879 
        2.95753         31.9491         3.93712         65.2359 
        2.96982         31.8128         3.89669         64.7909 
        2.98209         31.5042         3.85691         64.3613 
        2.99436         31.3092         3.81765         63.8963 
        3.00666         31.2403         3.77887         63.4795 
        3.01894          30.969         3.74071         63.0403 
        3.03119         30.8236         3.70313          62.631 
        3.04345         30.6975         3.66606         62.2363 
        3.05573          30.444         3.62942         61.8192 
          3.068         30.4404         3.59333         61.4031 
        3.08026         30.2693         3.55776           60.99 
        3.09254         30.1355         3.52261         60.5898 
        3.10483         30.1276         3.48792          60.198 
         3.1171          29.915         3.45375         59.8012 
        3.12933         29.8995         3.42013         59.3966 
        3.14159         29.7599         3.38689         58.9938 
