# k  (h/Mpc)    P(k)  (Mpc/h)^3    P_linear(k)  (Mpc/h)^3     P_NL(k)  ShotnoiseSubtracted = false
      0.0156606         20592.8         20657.8         20498.3 
      0.0273761         17630.9         17830.8         17644.5 
      0.0384619         13324.1         13421.3         13257.6 
      0.0498308           10289         10550.7         10386.6 
      0.0625568         8688.26         8963.17         8816.66 
      0.0751274         7730.16         7613.18            7407 
      0.0867833          5990.3         6128.41         6065.07 
      0.0984825         5054.26         4849.24         4907.19 
       0.111151         4319.39         4048.62         4119.82 
       0.123864         3869.86         3648.35         3706.08 
       0.135742         3525.81         3280.59         3338.61 
        0.14762          3066.8         2804.95            2959 
       0.160083         2600.76            2338         2527.31 
       0.172465         2319.64         2040.56         2281.42 
       0.184281         2104.87         1881.11          2123.2 
       0.196406         1981.18         1737.17         1954.63 
       0.209011         1851.26         1545.61         1771.13 
       0.221538         1667.57         1350.69            1652 
       0.233611         1595.49          1208.5         1546.87 
       0.245665         1447.41         1115.39            1428 
       0.258103         1429.09         1038.32         1347.99 
       0.270422         1275.28         954.091         1265.75 
       0.282519         1202.53         865.884         1196.99 
       0.294636          1182.7         788.911         1133.26 
       0.306978         1078.25         729.872         1085.49 
       0.319417         1055.25         682.384         1023.28 
        0.33169         992.453          636.93         968.597 
       0.343948         951.553         590.149         938.459 
       0.356249         900.913         546.279         903.326 
       0.368458         866.918         509.533         862.367 
        0.38068         851.069         478.807         829.151 
       0.392856         807.363         450.755         799.809 
       0.405069         766.979         423.325         774.403 
       0.417459         737.604         396.769         745.955 
       0.429752         731.749         372.929         719.867 
       0.441978         706.167         352.005         701.396 
       0.454294         674.301         333.004         672.636 
        0.46658         655.575         315.176         658.636 
       0.478753         642.299         298.357         638.434 
       0.490964          617.33         282.558         618.827 
       0.503334         590.014         267.978         604.766 
       0.515665         588.262         254.681         591.357 
       0.527909         564.268         242.407         578.376 
       0.540159         550.108         230.793         563.444 
        0.55248         539.244         219.774         548.764 
       0.564743         534.892         209.572         539.431 
        0.57686         516.114         200.194          525.04 
       0.589077         505.119         191.342         513.391 
       0.601441         495.124         182.925         503.191 
        0.61382         481.948         174.989         494.445 
       0.626067         476.372         167.583         484.961 
       0.638306         458.618         160.609         475.289 
       0.650632         454.105         154.002         463.547 
       0.662899         450.174          147.81         458.076 
       0.675076         434.617         142.008         451.419 
       0.687267         422.701         136.509         440.672 
       0.699615         420.014         131.233         433.724 
       0.711937         412.414         126.246         425.704 
       0.724148         398.674          121.56         419.817 
       0.736433          389.32         117.088         412.209 
       0.748747         384.366         112.835         404.854 
       0.761037         377.272         108.804          399.76 
       0.773197         372.167         105.011         393.445 
       0.785376         366.813         101.394         387.634 
       0.797761         356.206         97.8924         381.628 
       0.810096         353.128         94.5696         376.861 
       0.822371           342.5         91.4173         370.694 
       0.834626         339.837         88.4145         366.163 
       0.846916         333.566         85.5394         360.485 
       0.859215         331.255         82.7912         355.294 
       0.871383          323.22         80.1917         350.516 
        0.88363          320.52          77.689         346.944 
       0.895928         314.958         75.2841         341.484 
       0.908253         307.062          72.977         335.971 
       0.920535         302.579         70.7748         332.057 
       0.932774         296.808         68.6716         327.182 
        0.94508         292.572         66.6437         323.822 
       0.957324         290.547         64.7079         319.447 
        0.96953         286.509         62.8554         315.518 
       0.981769         279.068          61.071         312.108 
       0.994071         278.038         59.3478         308.253 
         1.0064         272.351         57.6884         303.759 
        1.01868         269.324         56.0976         299.881 
        1.03092         261.366         54.5741         297.203 
         1.0432         258.467          53.102         293.604 
        1.05553         255.431         51.6787          289.62 
        1.06777         253.105         50.3182          286.47 
           1.08         247.117         49.0082         283.233 
        1.09227          245.61         47.7408         279.838 
         1.1046          241.27         46.5136         277.126 
         1.1169         235.736          45.332         273.398 
        1.12915         232.705         44.1974         270.797 
        1.14142         228.349         43.0994          267.48 
        1.15365         225.583         42.0421         264.659 
        1.16585         221.595         41.0233         261.574 
        1.17807         219.306         40.0371         259.023 
        1.19037         216.237         39.0769         256.753 
        1.20276         213.218         38.1418         253.405 
        1.21504         208.639         37.2449         250.605 
        1.22728         205.423         36.3806           247.6 
        1.23954          204.39         35.5417         245.488 
        1.25184         199.966         34.7278         242.827 
        1.26414         196.029         33.9391          240.47 
        1.27632         194.952         33.1821         238.412 
         1.2886         193.444         32.4429         235.578 
        1.30093         188.323         31.7236         232.727 
        1.31316         184.587         31.0315         230.282 
        1.32541         183.475         30.3599         228.111 
        1.33772         180.913         29.7046         225.893 
        1.35005         178.402         29.0682         223.355 
        1.36225         175.088          28.457         221.275 
        1.37447          172.56         27.8622         218.559 
        1.38676         170.715         27.2818         216.941 
        1.39907         168.141         26.7169         214.406 
        1.41133         165.109         26.1706          212.27 
        1.42358         163.175           25.64         210.269 
        1.43591         161.192         25.1206         208.249 
        1.44818         158.236         24.6185         206.178 
        1.46037         156.654          24.133         203.984 
        1.47263         153.912         23.6581         202.226 
        1.48494         152.097         23.1941         199.745 
        1.49724         149.832         22.7429         198.369 
        1.50952         147.049         22.3047         196.255 
        1.52178         146.074         21.8787         194.134 
        1.53409         143.056         21.4621         192.483 
        1.54637         141.194         21.0573         190.894 
        1.55858         139.267         20.6652         188.813 
        1.57081         136.983         20.2826         187.121 
        1.58313         135.148         19.9073         185.212 
        1.59544         132.713         19.5417         183.562 
        1.60767         131.657         19.1876         181.907 
        1.61994         129.262         18.8411          180.24 
        1.63225         127.484         18.5025          178.33 
        1.64452         125.288         18.1731         176.737 
        1.65676         123.563         17.8528         175.216 
          1.669         122.414           17.54         173.615 
        1.68133         119.926         17.2327         172.031 
        1.69363         117.975         16.9336         170.518 
        1.70585         116.045         16.6436             169 
        1.71809         114.597         16.3598         167.175 
        1.73038         113.568         16.0818         165.833 
        1.74268         112.418           15.81         164.226 
        1.75493         109.464         15.5458         162.856 
        1.76714         108.984         15.2882         161.487 
        1.77942         106.883         15.0353         159.885 
        1.79173         105.192         14.7874         158.513 
        1.80402         104.193         14.5456         157.106 
         1.8163          102.02         14.3093         155.775 
         1.8286         100.758         14.0779         154.307 
         1.8409         99.9604         13.8519         152.871 
        1.85315         97.8085         13.6315         151.632 
        1.86537         97.0317         13.4164         150.375 
        1.87765         95.8221         13.2051         149.091 
        1.88995         94.1022         12.9979         147.707 
        1.90221         92.8938         12.7958         146.519 
        1.91445         91.6958         12.5984         145.112 
        1.92674         90.2201         12.4045         143.874 
        1.93902         89.0017         12.2146         142.582 
        1.95124         87.9078         12.0298         141.382 
         1.9635         86.4543         11.8482         140.135 
        1.97583         85.1324         11.6693         138.968 
        1.98812         84.0338         11.4948         137.906 
        2.00039          83.041         11.3242          136.62 
        2.01264         81.9779         11.1572         135.498 
        2.02492         81.0929         10.9933         134.279 
        2.03717         79.6819          10.833         133.199 
        2.04942         78.9878         10.6761          132.12 
        2.06171          77.285         10.5218          130.97 
        2.07397         76.4962         10.3709         129.936 
        2.08629         75.5116         10.2223         128.806 
        2.09857         74.4581          10.077         127.768 
        2.11081         73.1761         9.93507         126.589 
        2.12309         72.1688         9.79556         125.671 
        2.13538         71.2096         9.65853         124.563 
        2.14763         70.3147         9.52458         123.569 
        2.15986         69.3108         9.39349         122.478 
        2.17214           68.52         9.26433         121.499 
        2.18443         67.5963         9.13748         120.671 
        2.19671         66.5674         9.01316         119.632 
        2.20898         65.8983          8.8913         118.572 
        2.22126         64.9041         8.77156          117.67 
        2.23354         64.1707         8.65407         116.734 
         2.2458         62.9596         8.53893         115.795 
        2.25807         62.2674         8.42579         114.844 
        2.27035          61.396         8.31461         113.906 
        2.28263         60.5821         8.20548         113.026 
         2.2949         59.6406         8.09837         112.138 
        2.30718         58.7665         7.99314         111.256 
        2.31946         58.3485         7.88972         110.302 
        2.33169         57.2994         7.78859         109.467 
        2.34393         56.8583         7.68907         108.676 
        2.35622         55.7678         7.59097         107.789 
        2.36847         55.3625         7.49486         107.053 
        2.38076         54.4194         7.40013         106.079 
        2.39305         53.8208         7.30706         105.364 
        2.40534         53.0996         7.21558         104.493 
        2.41762         52.4874         7.12569         103.643 
        2.42989         51.6567         7.03746         102.908 
        2.44216         51.1492         6.95074          102.05 
         2.4544         50.3364         6.86567           101.3 
        2.46667         49.7631         6.78184         100.519 
        2.47897         49.2126          6.6992         99.7124 
        2.49124         48.7015         6.61817         98.9925 
        2.50349          48.176          6.5386          98.234 
        2.51578         47.4444          6.4601         97.5837 
        2.52805         46.8834         6.38302         96.7608 
        2.54029         46.4125          6.3074         96.0026 
        2.55257         45.8039         6.23277         95.3459 
        2.56487         45.5309         6.15921         94.6619 
        2.57716         44.8134         6.08694         93.9463 
        2.58942         44.1928         6.01599         93.2449 
        2.60167         43.6863         5.94624         92.5648 
        2.61395         43.2393          5.8775         91.8812 
        2.62624         42.6292         5.80974         91.1479 
        2.63849         42.1623         5.74327         90.4995 
        2.65073         41.7415         5.67791         89.8412 
        2.66302         41.2558         5.61333         89.1588 
         2.6753          40.838          5.5498         88.5443 
        2.68756         40.4189         5.48738         87.8735 
        2.69983         39.8883         5.42587         87.2685 
        2.71213         39.5063         5.36518         86.6419 
        2.72441         39.0939         5.30553         86.0054 
        2.73665         38.6166         5.24693         85.4102 
         2.7489         38.2173         5.18925         84.8063 
        2.76118          37.871         5.13225         84.1875 
        2.77349         37.4312         5.07598         83.5928 
        2.78576         37.0812         5.02077         82.9675 
        2.79802         36.7631         4.96641         82.4576 
        2.81031         36.2551         4.91274         81.8522 
        2.82259         36.0685         4.85987         81.2443 
        2.83483         35.5968         4.80799         80.7236 
         2.8471         35.3024         4.75676         80.1374 
         2.8594          34.971         4.70612         79.5581 
         2.8717         34.7975         4.65623          79.041 
        2.88396         34.4007         4.60726         78.4831 
        2.89619         34.1881         4.55908         77.8932 
        2.90847         33.8115          4.5114         77.3344 
        2.92072         33.6205         4.46449          76.853 
        2.93299         33.4649         4.41822          76.344 
        2.94526         33.0797         4.37256         75.8111 
        2.95753         32.8665         4.32757         75.2762 
        2.96982         32.5619         4.28313         74.7727 
        2.98209          32.379         4.23941         74.2797 
        2.99436         32.1179         4.19625         73.7401 
        3.00666         32.0686         4.15363         73.2473 
        3.01894         31.7281         4.11168         72.7528 
        3.03119         31.6858         4.07037         72.2843 
        3.04345         31.5301         4.02963         71.8161 
        3.05573         31.2185         3.98936         71.3277 
          3.068          31.151         3.94968         70.8526 
        3.08026         30.9827         3.91059         70.3751 
        3.09254         30.9161         3.87195         69.9177 
        3.10483         30.8867         3.83382         69.4626 
         3.1171         30.7208         3.79627         68.9984 
        3.12933         30.5804         3.75931          68.537 
        3.14159         30.4674         3.72277         68.0715 
