# k  (h/Mpc)    P(k)  (Mpc/h)^3    P_linear(k)  (Mpc/h)^3     P_NL(k)  ShotnoiseSubtracted = false
      0.0156606          4961.4         4968.76         4942.57 
      0.0273761         4293.89         4292.18         4276.29 
      0.0384619         3260.24         3232.31         3223.88 
      0.0498308         2547.46         2541.81          2535.2 
      0.0625568         2148.87         2159.88         2152.37 
      0.0751274         1872.02         1834.87         1822.72 
      0.0867833         1476.67         1477.19         1474.98 
      0.0984825         1206.26         1168.95          1175.6 
       0.111151         1013.41         976.023         982.692 
       0.123864         910.434         879.572         885.059 
       0.135742         819.659          790.94         796.549 
        0.14762         698.301         676.284         689.531 
       0.160083         579.773         563.715         578.755 
       0.172465         513.328         492.011          510.34 
       0.184281          475.55         453.573         473.015 
       0.196406         433.879         418.871         434.194 
       0.209011         393.675         372.686         389.737 
       0.221538         351.873         325.691         349.525 
       0.233611         319.806         291.408         318.005 
       0.245665         300.207         268.957         292.693 
       0.258103         272.766         250.376          274.02 
       0.270422         254.891         230.066         253.279 
       0.282519         231.783         208.797         233.316 
       0.294636         224.832         190.237         216.106 
       0.306978         198.395         176.001         202.842 
       0.319417         189.834          164.55         190.404 
        0.33169         176.939          153.59         178.566 
       0.343948         168.752          142.31         168.161 
       0.356249         155.956         131.731         159.297 
       0.368458         149.751          122.87         148.914 
        0.38068         141.382         115.461         141.215 
       0.392856         131.833         108.697         134.587 
       0.405069         125.336         102.083         127.774 
       0.417459         118.692          95.679         120.935 
       0.429752         113.994         89.9303         115.376 
       0.441978         109.089         84.8845         110.999 
       0.454294         101.475         80.3027         105.189 
        0.46658         101.452         76.0036         101.011 
       0.478753         94.6046         71.9479         96.9822 
       0.490964         91.6936         68.1381           93.13 
       0.503334         87.7445         64.6222         89.3846 
       0.515665         84.3857         61.4159         86.7752 
       0.527909         81.1793         58.4558         82.4245 
       0.540159         78.2788         55.6552         79.7516 
        0.55248         74.1966          52.998         76.7125 
       0.564743         72.6945         50.5378         74.3724 
        0.57686         70.4356         48.2765         71.8077 
       0.589077         66.8356         46.1418         69.7514 
       0.601441         65.0311         44.1121          67.553 
        0.61382         63.2031         42.1983         65.1625 
       0.626067         60.5765         40.4125         63.4026 
       0.638306         58.7713         38.7308         61.4035 
       0.650632          56.816         37.1375         59.3046 
       0.662899         55.6191         35.6444         57.6058 
       0.675076         53.3483         34.2451         56.0291 
       0.687267         52.5827         32.9192         54.4581 
       0.699615         50.7074         31.6468         53.2501 
       0.711937         48.6861         30.4441         51.4585 
       0.724148         48.4342         29.3141         50.5544 
       0.736433         45.8356         28.2358         49.0656 
       0.748747         45.2416         27.2102         47.8227 
       0.761037         43.9869          26.238         46.7015 
       0.773197         42.9586         25.3233         45.7965 
       0.785376         41.4598         24.4512         44.6105 
       0.797761         40.9598         23.6067          43.709 
       0.810096         39.9042         22.8055         42.6386 
       0.822371         38.9843         22.0453         41.5999 
       0.834626         37.9064         21.3212         40.8913 
       0.846916         37.0017         20.6278         39.9562 
       0.859215         35.8738         19.9651          39.081 
       0.871383          35.379         19.3383          38.373 
        0.88363         34.4821         18.7347         37.6851 
       0.895928         33.6962         18.1548         36.8048 
       0.908253         33.0099         17.5984         36.2171 
       0.920535         32.4368         17.0674         35.4711 
       0.932774         31.8755         16.5602         34.7991 
        0.94508         31.2069         16.0711         34.0885 
       0.957324         30.5328         15.6043         33.5256 
        0.96953         29.9199         15.1576          32.869 
       0.981769         29.3265         14.7273         32.3886 
       0.994071         28.6929         14.3117         31.7968 
         1.0064         28.0589         13.9116         31.2627 
        1.01868         27.4895          13.528         30.7758 
        1.03092          27.273         13.1606         30.2251 
         1.0432         26.5546         12.8056         29.6528 
        1.05553         26.0533         12.4624         29.3773 
        1.06777         25.3975         12.1343         28.7636 
           1.08         24.8664         11.8184         28.3208 
        1.09227         24.5463         11.5127         27.9705 
         1.1046         24.1884         11.2168         27.4672 
         1.1169         23.7793         10.9319          27.066 
        1.12915         23.5018         10.6582         26.6876 
        1.14142         22.8051         10.3935         26.2759 
        1.15365         22.6021         10.1385         25.9158 
        1.16585         22.3066         9.89281          25.573 
        1.17807         21.7906         9.65499         25.1159 
        1.19037          21.604         9.42345         24.9028 
        1.20276         21.2794         9.19796           24.51 
        1.21504         20.8537         8.98166         24.2369 
        1.22728         20.4507         8.77323         23.8768 
        1.23954         20.1948         8.57094         23.5317 
        1.25184         19.8132         8.37467         23.2582 
        1.26414         19.5746         8.18447         22.9258 
        1.27632         19.2971         8.00191         22.6332 
         1.2886         19.0877         7.82364         22.3763 
        1.30093         18.6288          7.6502         22.1427 
        1.31316         18.4295         7.48329         21.8289 
        1.32541         18.2078         7.32134         21.6136 
        1.33772         17.8773         7.16331         21.3424 
        1.35005         17.6469         7.00984         21.1145 
        1.36225         17.4071         6.86244         20.8534 
        1.37447         17.0581         6.71901         20.5925 
        1.38676         16.8726         6.57904         20.3886 
        1.39907         16.6159         6.44283         20.1552 
        1.41133         16.3666         6.31107         19.9202 
        1.42358          16.169         6.18313         19.6877 
        1.43591         15.9239         6.05787         19.5172 
        1.44818         15.7073         5.93678           19.31 
        1.46037         15.6168         5.81972           19.06 
        1.47263         15.3273         5.70518         18.9114 
        1.48494          15.207         5.59328         18.6655 
        1.49724           14.99         5.48448         18.5108 
        1.50952         14.7693         5.37881          18.337 
        1.52178         14.5824         5.27608         18.1172 
        1.53409         14.3179         5.17562         17.9421 
        1.54637         14.2888         5.07799         17.7285 
        1.55858         14.0427         4.98344         17.5807 
        1.57081         13.8272         4.89117          17.425 
        1.58313         13.7222         4.80066         17.2516 
        1.59544         13.4856          4.7125         17.1017 
        1.60767         13.3564         4.62712         16.9166 
        1.61994         13.1199         4.54356         16.7776 
        1.63225         13.0585          4.4619         16.6428 
        1.64452         12.8803         4.38247         16.4975 
        1.65676         12.7137         4.30523         16.3216 
          1.669          12.609         4.22979         16.1717 
        1.68133         12.3657         4.15568         16.0228 
        1.69363         12.2291         4.08357          15.851 
        1.70585         12.0883         4.01364          15.762 
        1.71809         11.9656          3.9452         15.6142 
        1.73038          11.834         3.87814          15.495 
        1.74268         11.7231         3.81261         15.3399 
        1.75493         11.5164         3.74888         15.2047 
        1.76714         11.5283         3.68679         15.0877 
        1.77942         11.3784         3.62578         14.9386 
        1.79173         11.1498           3.566         14.8363 
        1.80402         11.0871         3.50769         14.7208 
         1.8163         10.9603         3.45072         14.5979 
         1.8286         10.8006         3.39492         14.4845 
         1.8409         10.6977          3.3404         14.3682 
        1.85315          10.591         3.28726         14.2425 
        1.86537         10.4925         3.23538         14.1391 
        1.87765         10.4017         3.18444         14.0267 
        1.88995         10.2156         3.13446         13.9217 
        1.90221         10.1748         3.08574         13.7921 
        1.91445         10.0459         3.03813         13.7087 
        1.92674         9.93737         2.99136         13.5915 
        1.93902         9.84674         2.94558         13.5095 
        1.95124         9.72127           2.901         13.4038 
         1.9635         9.62634         2.85722         13.2939 
        1.97583         9.54492         2.81408         13.1765 
        1.98812         9.46953         2.77199         13.0791 
        2.00039          9.3852         2.73084         13.0004 
        2.01264         9.28864         2.69057         12.9115 
        2.02492         9.21035         2.65106          12.801 
        2.03717         9.06873          2.6124          12.713 
        2.04942         8.97262         2.57457         12.6223 
        2.06171         8.94626         2.53735         12.5355 
        2.07397         8.83361         2.50096         12.4525 
        2.08629         8.75609         2.46512         12.3721 
        2.09857         8.67694         2.43008         12.2759 
        2.11081         8.60124         2.39586         12.2068 
        2.12309         8.48782         2.36222         12.0977 
        2.13538         8.41371         2.32917         12.0224 
        2.14763         8.33261         2.29687          11.944 
        2.15986         8.29622         2.26526         11.8713 
        2.17214         8.21516         2.23411         11.7704 
        2.18443         8.10775         2.20352         11.7048 
        2.19671         8.08334         2.17354         11.6261 
        2.20898         7.96501         2.14415         11.5525 
        2.22126         7.88036         2.11528         11.4716 
        2.23354         7.84868         2.08695         11.3876 
         2.2458         7.75556         2.05918         11.3268 
        2.25807         7.69207          2.0319         11.2411 
        2.27035         7.63471         2.00508         11.1734 
        2.28263         7.57052         1.97877         11.0972 
         2.2949          7.4834         1.95294         11.0324 
        2.30718         7.42915         1.92756         10.9754 
        2.31946         7.37389         1.90262         10.9009 
        2.33169         7.30951         1.87823         10.8337 
        2.34393         7.25818         1.85423         10.7595 
        2.35622         7.20715         1.83058         10.6965 
        2.36847         7.14049          1.8074         10.6275 
        2.38076         7.08146         1.78456         10.5638 
        2.39305         6.99214         1.76211         10.4883 
        2.40534         6.95617         1.74005         10.4208 
        2.41762         6.90701         1.71837         10.3743 
        2.42989         6.86572          1.6971         10.3119 
        2.44216         6.80614         1.67618         10.2413 
         2.4544         6.74331         1.65567          10.182 
        2.46667         6.73217         1.63545          10.122 
        2.47897         6.67312         1.61553         10.0518 
        2.49124         6.59428         1.59599         9.99408 
        2.50349         6.56138          1.5768         9.94502 
        2.51578         6.50548         1.55787         9.88943 
        2.52805         6.47008         1.53928          9.8318 
        2.54029         6.40762         1.52104         9.77566 
        2.55257         6.39517         1.50305         9.71759 
        2.56487         6.32252         1.48531         9.65177 
        2.57716         6.28402         1.46788         9.60447 
        2.58942         6.26209         1.45077         9.55097 
        2.60167         6.21391         1.43395         9.49348 
        2.61395         6.15645         1.41737         9.44224 
        2.62624         6.13581         1.40103         9.38766 
        2.63849         6.11367           1.385         9.33687 
        2.65073          6.0596         1.36924         9.27826 
        2.66302          6.0217         1.35367         9.22393 
         2.6753         5.98353         1.33835         9.17361 
        2.68756         5.95536         1.32329         9.13136 
        2.69983         5.91523         1.30846          9.0713 
        2.71213         5.87977         1.29383         9.02101 
        2.72441         5.84271         1.27944         8.97402 
        2.73665         5.83055         1.26531          8.9201 
         2.7489         5.80771          1.2514         8.87373 
        2.76118         5.75287         1.23765         8.83401 
        2.77349         5.73057         1.22408         8.78002 
        2.78576         5.71422         1.21077         8.73346 
        2.79802         5.67266         1.19766         8.68636 
        2.81031         5.65611         1.18472         8.64331 
        2.82259         5.61998         1.17197           8.597 
        2.83483         5.60459         1.15946         8.54873 
         2.8471         5.58829          1.1471         8.50762 
         2.8594         5.58102         1.13489         8.46371 
         2.8717         5.53572         1.12286         8.41179 
        2.88396         5.51613         1.11105         8.37032 
        2.89619         5.48243         1.09943         8.33267 
        2.90847         5.48113         1.08793          8.2825 
        2.92072         5.48247         1.07662         8.23839 
        2.93299         5.47042         1.06546         8.20215 
        2.94526         5.44952         1.05445         8.15597 
        2.95753          5.4316          1.0436         8.11171 
        2.96982         5.41045         1.03289         8.07276 
        2.98209         5.40401         1.02234         8.02589 
        2.99436         5.39867         1.01194         7.98638 
        3.00666          5.4072         1.00166         7.95015 
        3.01894         5.37715        0.991542         7.90457 
        3.03119          5.3822         0.98158         7.86553 
        3.04345          5.3781        0.971754         7.82712 
        3.05573         5.36833        0.962043         7.78459 
          3.068          5.3634        0.952475         7.74898 
        3.08026         5.38834        0.943047          7.7121 
        3.09254         5.37984         0.93373         7.67089 
        3.10483         5.36975        0.924536         7.63524 
         3.1171          5.3811        0.915479         7.59985 
        3.12933         5.38619        0.906568         7.55759 
        3.14159         5.37385        0.897756         7.52104 
