# k  (h/Mpc)    Pcb(k)  (Mpc/h)^3    Pcb_linear(k) (Mpc/h)^3    Pcb_NL(k) (Mpc/h)^3   ShotnoiseSubtracted = false
      0.0156606         20698.6         20807.7         20647.1 
      0.0273761         17749.4         17989.9           17802 
      0.0384619         13425.7           13553         13387.7 
      0.0498308         10372.7         10660.2         10494.3 
      0.0625568          8762.4         9059.68         8911.59 
      0.0751274          7798.3          7697.1         7488.65 
      0.0867833         6043.85         6196.97         6132.93 
      0.0984825         5100.12         4904.08         4962.69 
       0.111151         4358.98          4094.8         4166.82 
       0.123864         3905.45         3690.23         3748.63 
       0.135742         3558.43         3318.43         3377.12 
        0.14762         3095.29         2837.42         2993.25 
       0.160083         2624.97         2365.15         2556.66 
       0.172465         2341.25         2064.32         2307.98 
       0.184281         2124.38         1903.05         2147.96 
       0.196406         1999.59         1757.46         1977.47 
       0.209011         1868.43         1563.69         1791.85 
       0.221538         1682.98         1366.52         1671.36 
       0.233611         1610.26         1222.68         1565.01 
       0.245665         1460.75         1128.48         1444.76 
       0.258103         1442.28         1050.52         1363.82 
       0.270422         1286.96         965.306         1280.63 
       0.282519         1213.55          876.07         1211.07 
       0.294636         1193.46         798.196          1146.6 
       0.306978         1088.06         738.465         1098.27 
       0.319417         1064.82         690.422         1035.34 
        0.33169         1001.39         644.435          980.01 
       0.343948         960.113         597.106         949.522 
       0.356249         908.977          552.72         913.977 
       0.368458         874.612         515.543         872.539 
        0.38068         858.613         484.453         838.928 
       0.392856         814.501         456.072         809.244 
       0.405069         773.691         428.322         783.542 
       0.417459         744.013         401.451         754.759 
       0.429752         738.097         377.331         728.364 
       0.441978         712.264         356.161         709.678 
       0.454294         680.081         336.936         680.579 
        0.46658         661.164         318.899         666.416 
       0.478753         647.744         301.882         645.977 
       0.490964         622.511         285.898         626.142 
       0.503334         594.953         271.144         611.912 
       0.515665         593.155         257.691         598.345 
       0.527909         568.916         245.271         585.211 
       0.540159         554.603         233.522         570.105 
        0.55248         543.614         222.372         555.251 
       0.564743         539.183         212.049         545.807 
        0.57686         520.246         202.561         531.247 
       0.589077         509.155         193.604         519.461 
       0.601441         499.013         185.088          509.14 
        0.61382         485.703         177.058         500.292 
       0.626067         480.038         169.565         490.696 
       0.638306         462.132         162.509          480.91 
       0.650632         457.558         155.823         469.029 
       0.662899         453.567         149.559         463.494 
       0.675076         437.872         143.687         456.758 
       0.687267         425.827         138.124         445.885 
       0.699615         423.101         132.786         438.855 
       0.711937         415.399         127.739          430.74 
       0.724148         401.536         122.998         424.784 
       0.736433         392.093         118.473         417.085 
       0.748747         387.077          114.17         409.643 
       0.761037         379.905         110.091         404.489 
       0.773197         374.725         106.253           398.1 
       0.785376         369.313         102.594          392.22 
       0.797761         358.607         99.0506         386.143 
       0.810096         355.474         95.6886          381.32 
       0.822371         344.759          92.499          375.08 
       0.834626         342.043         89.4607         370.496 
       0.846916         335.725         86.5516         364.751 
       0.859215         333.356         83.7709         359.498 
       0.871383         325.254         81.1407         354.663 
        0.88363         322.495         78.6083         351.049 
       0.895928         316.889          76.175         345.525 
       0.908253         308.931         73.8406         339.947 
       0.920535         304.373         71.6124         335.987 
       0.932774         298.559         69.4843         331.054 
        0.94508         294.268         67.4324         327.654 
       0.957324           292.2         65.4737         323.228 
        0.96953         288.122         63.5993         319.252 
       0.981769         280.619         61.7938         315.802 
       0.994071          279.56         60.0502         311.901 
         1.0064         273.822         58.3712         307.354 
        1.01868         270.761         56.7615         303.431 
        1.03092          262.73         55.2201          300.72 
         1.0432         259.795         53.7306         297.079 
        1.05553         256.731         52.2904         293.049 
        1.06777         254.364         50.9138         289.861 
           1.08         248.324         49.5883         286.586 
        1.09227           246.8         48.3059         283.151 
         1.1046         242.413         47.0642         280.406 
         1.1169         236.834         45.8686         276.634 
        1.12915         233.776         44.7206         274.003 
        1.14142         229.384         43.6096         270.646 
        1.15365          226.58         42.5398         267.792 
        1.16585         222.556         41.5089          264.67 
        1.17807         220.242          40.511         262.089 
        1.19037         217.134         39.5395         259.793 
        1.20276         214.088         38.5934         256.404 
        1.21504         209.476         37.6858         253.572 
        1.22728         206.231         36.8113         250.531 
        1.23954         205.177         35.9625         248.394 
        1.25184         200.721          35.139         245.702 
        1.26414         196.752         34.3409         243.317 
        1.27632         195.652         33.5749         241.234 
         1.2886         194.123         32.8269         238.367 
        1.30093         188.974         32.0992         235.482 
        1.31316         185.206         31.3989         233.008 
        1.32541         184.076         30.7194         230.811 
        1.33772         181.494         30.0563         228.567 
        1.35005          178.96         29.4123         225.999 
        1.36225         175.615         28.7939         223.895 
        1.37447         173.067         28.1921         221.146 
        1.38676         171.204         27.6048         219.509 
        1.39907         168.618         27.0332         216.944 
        1.41133         165.555         26.4804         214.783 
        1.42358         163.609         25.9436         212.758 
        1.43591         161.603          25.418         210.715 
        1.44818         158.629         24.9099         208.619 
        1.46037         157.032         24.4188         206.399 
        1.47263          154.27         23.9382          204.62 
        1.48494         152.441         23.4687          202.11 
        1.49724         150.157         23.0122         200.718 
        1.50952         147.363         22.5688         198.578 
        1.52178          146.37         22.1377         196.433 
        1.53409         143.337         21.7162         194.762 
        1.54637         141.458         21.3066         193.154 
        1.55858         139.522         20.9099         191.049 
        1.57081         137.217         20.5227         189.336 
        1.58313         135.372         20.1429         187.405 
        1.59544         132.922          19.773         185.735 
        1.60767         131.857         19.4148         184.061 
        1.61994         129.446         19.0642         182.374 
        1.63225         127.656         18.7215         180.442 
        1.64452         125.448         18.3883         178.829 
        1.65676         123.717         18.0642         177.291 
          1.669         122.555         17.7476         175.671 
        1.68133         120.054         17.4367         174.068 
        1.69363         118.094         17.1341         172.537 
        1.70585         116.154         16.8407         171.001 
        1.71809         114.694         16.5535         169.155 
        1.73038         113.654         16.2722         167.797 
        1.74268         112.495         15.9972          166.17 
        1.75493         109.537         15.7298         164.784 
        1.76714          109.05         15.4693         163.399 
        1.77942         106.935         15.2133         161.778 
        1.79173         105.237         14.9625          160.39 
        1.80402         104.228         14.7178         158.966 
         1.8163         102.053         14.4788          157.62 
         1.8286         100.781         14.2446         156.134 
         1.8409          99.978         14.0159         154.681 
        1.85315         97.8147         13.7929         153.427 
        1.86537         97.0364         13.5752         152.156 
        1.87765         95.8199         13.3615         150.857 
        1.88995         94.0945         13.1518         149.456 
        1.90221         92.8794         12.9473         148.254 
        1.91445         91.6768         12.7476          146.83 
        1.92674         90.1934         12.5514         145.578 
        1.93902         88.9723         12.3593          144.27 
        1.95124         87.8693         12.1722         143.056 
         1.9635         86.4152         11.9885         141.794 
        1.97583         85.0864         11.8075         140.614 
        1.98812         83.9833         11.6309         139.538 
        2.00039         82.9866         11.4583         138.238 
        2.01264         81.9187         11.2893         137.102 
        2.02492         81.0291         11.1235         135.869 
        2.03717         79.6164         10.9613         134.776 
        2.04942         78.9145         10.8025         133.684 
        2.06171         77.2121         10.6464         132.521 
        2.07397         76.4196         10.4937         131.474 
        2.08629         75.4315         10.3433         130.332 
        2.09857         74.3765         10.1963         129.281 
        2.11081          73.091         10.0527         128.087 
        2.12309         72.0812         9.91155         127.159 
        2.13538         71.1162          9.7729         126.038 
        2.14763         70.2217         9.63736         125.032 
        2.15986         69.2173         9.50472         123.928 
        2.17214          68.422         9.37403         122.938 
        2.18443         67.4963         9.24567           122.1 
        2.19671         66.4659         9.11988         121.048 
        2.20898         65.7959         8.99658         119.976 
        2.22126         64.7991         8.87542         119.063 
        2.23354         64.0633         8.75654         118.117 
         2.2458         62.8516         8.64004         117.166 
        2.25807         62.1566         8.52556         116.204 
        2.27035         61.2847         8.41306         115.255 
        2.28263         60.4688         8.30264         114.364 
         2.2949          59.526         8.19426         113.466 
        2.30718         58.6523         8.08779         112.573 
        2.31946         58.2308         7.98315         111.608 
        2.33169         57.1822         7.88082         110.763 
        2.34393         56.7389         7.78012         109.963 
        2.35622          55.649         7.68086         109.065 
        2.36847         55.2417         7.58361         108.321 
        2.38076         54.2991         7.48776         107.335 
        2.39305          53.697         7.39358         106.612 
        2.40534         52.9763         7.30103          105.73 
        2.41762         52.3662         7.21007          104.87 
        2.42989          51.533         7.12079         104.127 
        2.44216          51.028         7.03304         103.258 
         2.4544         50.2125         6.94697           102.5 
        2.46667         49.6375         6.86214          101.71 
        2.47897         49.0878         6.77853         100.893 
        2.49124         48.5779         6.69654         100.165 
        2.50349         48.0471         6.61603         99.3973 
        2.51578           47.32         6.53659         98.7392 
        2.52805         46.7559         6.45861         97.9066 
        2.54029         46.2861         6.38209         97.1394 
        2.55257         45.6786         6.30658         96.4749 
        2.56487         45.4048         6.23215         95.7828 
        2.57716         44.6884         6.15902         95.0587 
        2.58942         44.0683         6.08723          94.349 
        2.60167         43.5618         6.01665         93.6608 
        2.61395         43.1148         5.94709         92.9692 
        2.62624         42.5037         5.87854         92.2272 
        2.63849         42.0382         5.81128         91.5711 
        2.65073         41.6154         5.74514          90.905 
        2.66302         41.1333          5.6798         90.2145 
         2.6753         40.7134         5.61551         89.5928 
        2.68756         40.2958         5.55235         88.9141 
        2.69983         39.7657         5.49012         88.3019 
        2.71213         39.3837         5.42871         87.6679 
        2.72441         38.9718         5.36836         87.0238 
        2.73665         38.4963         5.30906         86.4216 
         2.7489         38.0967         5.25069         85.8105 
        2.76118          37.752         5.19303         85.1844 
        2.77349         37.3112         5.13609         84.5827 
        2.78576         36.9615         5.08023           83.95 
        2.79802         36.6438         5.02522          83.434 
        2.81031         36.1374         4.97091         82.8214 
        2.82259         35.9488         4.91742         82.2063 
        2.83483         35.4784         4.86492         81.6794 
         2.8471         35.1841         4.81308         81.0864 
         2.8594         34.8537         4.76184         80.5002 
         2.8717         34.6794         4.71137          79.977 
        2.88396         34.2848         4.66182         79.4124 
        2.89619         34.0707         4.61306         78.8156 
        2.90847         33.6951         4.56482         78.2501 
        2.92072         33.5054         4.51735         77.7631 
        2.93299         33.3487         4.47054          77.248 
        2.94526          32.965         4.42434         76.7088 
        2.95753         32.7513         4.37881         76.1676 
        2.96982          32.446         4.33385         75.6581 
        2.98209         32.2661         4.28961         75.1593 
        2.99436         32.0053         4.24594         74.6133 
        3.00666         31.9539         4.20281         74.1147 
        3.01894         31.6161         4.16037         73.6143 
        3.03119         31.5718         4.11857         73.1403 
        3.04345         31.4171         4.07734         72.6665 
        3.05573         31.1069          4.0366         72.1723 
          3.068         31.0394         3.99645         71.6916 
        3.08026         30.8709         3.95689         71.2084 
        3.09254         30.8039          3.9178         70.7456 
        3.10483         30.7761         3.87922         70.2851 
         3.1171         30.6105         3.84122         69.8155 
        3.12933         30.4677         3.80383         69.3486 
        3.14159         30.3557         3.76686         68.8776 
