# k  (h/Mpc)    P(k)  (Mpc/h)^3    P_linear(k)  (Mpc/h)^3     P_NL(k)  ShotnoiseSubtracted = false
      0.0156606         16591.6           16782         16662.9 
      0.0273761         14238.1           14487         14359.5 
      0.0384619         10776.2         10905.2         10797.5 
      0.0498308         8341.73         8573.21         8466.64 
      0.0625568         7042.31          7283.5         7186.95 
      0.0751274         6244.88         6186.67         6049.37 
      0.0867833          4853.7          4980.2         4939.68 
      0.0984825         4068.99         3940.76         3983.23 
       0.111151         3464.38         3290.17         3339.64 
       0.123864         3106.98         2964.91         3005.48 
       0.135742         2822.25         2666.07         2707.21 
        0.14762         2445.05         2279.53         2388.34 
       0.160083         2058.67         1900.06         2031.52 
       0.172465          1836.2         1658.35         1824.77 
       0.184281         1675.85         1528.77         1697.84 
       0.196406         1562.19         1411.79         1559.75 
       0.209011         1451.48         1256.11         1410.86 
       0.221538         1309.41         1097.71         1308.09 
       0.233611         1240.15         982.154         1218.82 
       0.245665         1131.83         906.483         1123.15 
       0.258103         1100.94         843.851         1058.62 
       0.270422         987.684         775.395          991.07 
       0.282519         923.221          703.71         931.703 
       0.294636         913.149         641.154         879.181 
       0.306978         824.518         593.172         839.568 
       0.319417         801.213          554.58         790.655 
        0.33169         754.985         517.639         746.375 
       0.343948          720.85          479.62         721.103 
       0.356249         679.239         443.967         692.313 
       0.368458         657.709         414.103         657.606 
        0.38068          638.68         389.132         630.516 
       0.392856          603.35         366.334         606.492 
       0.405069          576.54         344.041         587.748 
       0.417459         553.583         322.459         562.149 
       0.429752         542.184         303.084         542.051 
       0.441978         524.049         286.079         527.006 
       0.454294          497.35         270.637         504.474 
        0.46658         486.435         256.148         492.775 
       0.478753         473.162         242.479          476.62 
       0.490964         455.659         229.639         461.239 
       0.503334         432.027          217.79         449.527 
       0.515665         430.999         206.984         439.777 
       0.527909         414.972         197.008         428.132 
       0.540159         404.568         187.569         416.254 
        0.55248         396.685         178.614         405.014 
       0.564743         391.853         170.322         397.638 
        0.57686         376.714         162.701         386.311 
       0.589077          364.89         155.507         377.713 
       0.601441          360.68         148.666         369.394 
        0.61382         353.385         142.216         362.506 
       0.626067         348.028         136.197         354.783 
       0.638306         333.439          130.53         347.996 
       0.650632         328.503          125.16         338.235 
       0.662899         325.799         120.128          334.12 
       0.675076         313.313         115.412         328.057 
       0.687267         305.567         110.943         320.365 
       0.699615         301.387         106.655         314.996 
       0.711937         296.816         102.602         309.342 
       0.724148         287.478         98.7935         304.715 
       0.736433         281.214         95.1596         298.643 
       0.748747         276.983          91.703         293.038 
       0.761037         271.916         88.4265         288.594 
       0.773197         268.534         85.3439         284.605 
       0.785376         264.579         82.4049         279.676 
       0.797761         258.091         79.5587         275.421 
       0.810096         255.305         76.8583         271.619 
       0.822371         245.827         74.2963         267.118 
       0.834626         245.197         71.8559         263.259 
       0.846916         239.926         69.5193         259.384 
       0.859215         239.953         67.2858         255.652 
       0.871383         233.497         65.1731         251.801 
        0.88363         231.944         63.1391           249.2 
       0.895928         226.653         61.1846         245.261 
       0.908253         220.586         59.3096         241.266 
       0.920535          219.63         57.5199          238.04 
       0.932774         212.853         55.8105         234.756 
        0.94508          210.81         54.1624         232.307 
       0.957324         210.267         52.5892         228.884 
        0.96953         207.302         51.0836         225.677 
       0.981769         200.967         49.6334         223.538 
       0.994071         200.107         48.2329          220.64 
         1.0064         195.658         46.8843         217.317 
        1.01868         193.026         45.5914         214.781 
        1.03092         189.286         44.3533         212.575 
         1.0432         185.752         43.1569         209.952 
        1.05553         183.134         42.0002          207.33 
        1.06777         182.897         40.8944         205.229 
           1.08         178.379         39.8298         202.625 
        1.09227           176.2         38.7997         200.458 
         1.1046         173.589         37.8024         198.316 
         1.1169         170.601         36.8421         195.599 
        1.12915         168.119           35.92         193.799 
        1.14142         165.462         35.0276         191.273 
        1.15365         163.247         34.1684         189.264 
        1.16585             161         33.3403         186.809 
        1.17807         158.866         32.5388         185.404 
        1.19037         157.619         31.7585         183.536 
        1.20276         154.986         30.9985         181.254 
        1.21504         152.308         30.2696         179.309 
        1.22728          149.39         29.5671         177.037 
        1.23954         148.868         28.8854          175.74 
        1.25184         146.046         28.2239         173.724 
        1.26414          143.78         27.5829         171.905 
        1.27632         143.274         26.9677         170.865 
         1.2886         141.013         26.3669         168.518 
        1.30093         137.039         25.7824         166.695 
        1.31316          136.12         25.2198         164.831 
        1.32541         134.384         24.6741         163.592 
        1.33772         133.136         24.1414         161.823 
        1.35005         131.213         23.6242         160.008 
        1.36225         129.562         23.1275         158.576 
        1.37447         127.439         22.6441         156.749 
        1.38676         126.085         22.1724         155.268 
        1.39907         123.638         21.7133          153.75 
        1.41133         121.946         21.2693         152.447 
        1.42358         120.216         20.8381         151.008 
        1.43591           119.1          20.416         149.314 
        1.44818         117.969         20.0079         148.059 
        1.46037         115.738         19.6134         146.526 
        1.47263         114.615         19.2273         145.417 
        1.48494         112.958         18.8502         143.743 
        1.49724         111.409         18.4836         142.391 
        1.50952         109.381         18.1274           141.1 
        1.52178         108.862         17.7812         139.684 
        1.53409         106.932         17.4426         138.516 
        1.54637         105.453         17.1136         137.309 
        1.55858         103.736          16.795         135.909 
        1.57081         102.383          16.484         134.753 
        1.58313         101.214          16.179         133.444 
        1.59544         100.077         15.8818         132.287 
        1.60767         98.7109         15.5941         131.004 
        1.61994          97.122         15.3125         130.103 
        1.63225         95.8741         15.0373         128.545 
        1.64452          94.259         14.7696         127.438 
        1.65676         92.9894         14.5093         126.405 
          1.669         92.3948          14.255         125.378 
        1.68133         90.7466         14.0053         124.193 
        1.69363         89.8608         13.7623         123.141 
        1.70585         88.3204         13.5266         122.016 
        1.71809         87.1449         13.2959         120.896 
        1.73038         86.4365         13.0699         119.849 
        1.74268          85.134         12.8491         118.781 
        1.75493         84.0909         12.6343         117.719 
        1.76714         82.7655          12.425         116.774 
        1.77942         81.9833         12.2194         115.652 
        1.79173         80.6358          12.018         114.746 
        1.80402         80.0101         11.8214           113.8 
         1.8163         78.6228         11.6294         112.665 
         1.8286         77.5364         11.4414         111.766 
         1.8409         76.8394         11.2576         110.799 
        1.85315         75.6266         11.0786         109.927 
        1.86537         74.7857         10.9037         108.985 
        1.87765         74.1045          10.732         107.982 
        1.88995         72.8847         10.5636         107.157 
        1.90221         71.9675         10.3994         106.228 
        1.91445         70.7197          10.239         105.312 
        1.92674         69.8734         10.0813         104.465 
        1.93902         69.0016         9.92704         103.524 
        1.95124         68.4536          9.7768         102.761 
         1.9635         67.3508         9.62928         101.744 
        1.97583         66.4954         9.48387         101.052 
        1.98812         65.6747         9.34202          100.17 
        2.00039         64.6365         9.20336         99.3381 
        2.01264         64.1489         9.06764         98.5006 
        2.02492         63.1811         8.93447         97.7039 
        2.03717         62.1999         8.80419         96.8416 
        2.04942         61.7757         8.67668         96.1643 
        2.06171         60.5813         8.55126         95.3264 
        2.07397         59.9752          8.4286         94.6016 
        2.08629          59.388         8.30784         93.7762 
        2.09857         58.5008         8.18973         93.0413 
        2.11081         57.4702          8.0744         92.2025 
        2.12309         57.1331         7.96102         91.5755 
        2.13538          56.226         7.84966         90.8015 
        2.14763         55.5564          7.7408         90.0798 
        2.15986         54.5266         7.63426         89.3419 
        2.17214         54.1259         7.52929           88.62 
        2.18443         53.5126         7.42619           88.01 
        2.19671         52.5877         7.32515         87.2521 
        2.20898          52.397         7.22611           86.56 
        2.22126         51.5343          7.1288         85.8436 
        2.23354         50.8473         7.03331         85.2121 
         2.2458         50.2636         6.93974         84.5772 
        2.25807          49.676         6.84779         83.8537 
        2.27035         49.1366         6.75743         83.1966 
        2.28263         48.3047         6.66874         82.5353 
         2.2949         47.9347         6.58169         81.9043 
        2.30718         47.1082         6.49617         81.3034 
        2.31946         46.5964         6.41212         80.6864 
        2.33169         45.9977         6.32993         80.0578 
        2.34393         45.2686         6.24904          79.451 
        2.35622         45.0096         6.16932         78.8302 
        2.36847         44.4163         6.09121         78.2827 
        2.38076         43.8242         6.01422         77.6197 
        2.39305         43.2953         5.93858         77.0725 
        2.40534         42.8471         5.86423         76.4385 
        2.41762         42.4363         5.79117         75.8268 
        2.42989         41.8149         5.71947          75.329 
        2.44216         41.4455         5.64899         74.7337 
         2.4544         40.9357         5.57985         74.1637 
        2.46667         40.5077         5.51172         73.5798 
        2.47897         40.0238         5.44456         73.0496 
        2.49124         39.4849          5.3787         72.5183 
        2.50349         38.9781         5.31404         71.9548 
        2.51578         38.5006         5.25024          71.484 
        2.52805         38.2912          5.1876         70.9236 
        2.54029         37.7581         5.12614          70.367 
        2.55257         37.1976         5.06549         69.8791 
        2.56487           36.94          5.0057         69.3965 
        2.57716         36.4543         4.94697         68.9061 
        2.58942         36.0106          4.8893         68.3774 
        2.60167         35.5823         4.83262         67.8723 
        2.61395         35.2197         4.77675         67.3865 
        2.62624         34.9666         4.72168         66.8809 
        2.63849         34.6331         4.66766          66.419 
        2.65073         34.2617         4.61454         65.9127 
        2.66302         33.7885         4.56205         65.4403 
         2.6753         33.4161         4.51042         64.9819 
        2.68756         32.9492         4.45969         64.4853 
        2.69983         32.7716          4.4097         64.0677 
        2.71213         32.4475         4.36038         63.6304 
        2.72441         32.1561          4.3119         63.1582 
        2.73665         31.8002         4.26427         62.7011 
         2.7489         31.6509         4.21739          62.264 
        2.76118         31.1599         4.17107         61.8373 
        2.77349         31.0332         4.12534         61.4021 
        2.78576         30.7956         4.08047         60.9494 
        2.79802         30.3384         4.03629         60.5609 
        2.81031         30.0715         3.99267         60.1331 
        2.82259         29.9136         3.94971         59.6912 
        2.83483          29.568         3.90754         59.2904 
         2.8471         29.2404          3.8659         58.8894 
         2.8594         29.1379         3.82475          58.484 
         2.8717         28.8448         3.78421         58.0806 
        2.88396         28.5972          3.7444         57.6608 
        2.89619         28.3457         3.70524         57.2553 
        2.90847         28.1755          3.6665         56.8829 
        2.92072         27.9414         3.62837         56.4908 
        2.93299         27.8044         3.59077         56.1021 
        2.94526         27.5432         3.55366           55.74 
        2.95753         27.3982         3.51709         55.3676 
        2.96982         27.3171         3.48098         54.9885 
        2.98209         27.0357         3.44544         54.6247 
        2.99436         26.8548         3.41037          54.241 
        3.00666         26.7826         3.37573         53.8876 
        3.01894          26.556         3.34164         53.5085 
        3.03119         26.4698         3.30807         53.1608 
        3.04345         26.2948         3.27495         52.8313 
        3.05573         26.2529         3.24222         52.4819 
          3.068         26.1175         3.20998           52.13 
        3.08026         25.9444         3.17821         51.7794 
        3.09254         25.8692          3.1468         51.4399 
        3.10483         25.8788         3.11582         51.1105 
         3.1171         25.8166         3.08529         50.7778 
        3.12933         25.7246         3.05526         50.4399 
        3.14159         25.5955         3.02557         50.1068 
