# k  (h/Mpc)    P(k)  (Mpc/h)^3    P_linear(k)  (Mpc/h)^3     P_NL(k)  ShotnoiseSubtracted = false
      0.0156606           22363         22452.6         22272.8 
      0.0273761           19128         19379.1         19162.2 
      0.0384619         14445.6         14586.4         14393.2 
      0.0498308           11144         11466.4         11271.8 
      0.0625568         9411.36         9740.86         9568.22 
      0.0751274            8384         8273.64         8031.55 
      0.0867833         6489.77            6660         6584.78 
      0.0984825          5490.2         5269.85         5335.69 
       0.111151          4699.4         4399.76         4482.64 
       0.123864         4208.45         3964.75         4031.69 
       0.135742         3839.34         3565.09         3632.09 
        0.14762         3344.46         3048.19         3225.47 
       0.160083         2845.78         2540.74         2760.02 
       0.172465         2537.87         2217.51         2496.88 
       0.184281          2297.4         2044.23         2323.87 
       0.196406         2171.62          1887.8         2141.68 
       0.209011         2033.86         1679.63         1942.28 
       0.221538         1830.22         1467.81         1815.76 
       0.233611         1757.65         1313.29         1703.45 
       0.245665         1591.97          1212.1         1574.06 
       0.258103         1579.68         1128.35         1486.89 
       0.270422         1408.52         1036.82         1397.94 
       0.282519         1332.47         940.961         1325.36 
       0.294636         1306.49         857.313         1256.42 
       0.306978         1195.81         793.154         1204.96 
       0.319417         1173.85          741.55         1136.42 
        0.33169         1102.74         692.154         1077.11 
       0.343948         1059.65         641.317         1044.51 
       0.356249         1005.52         593.643         1006.47 
       0.368458         964.391         553.711         962.999 
        0.38068         950.574         520.321         927.078 
       0.392856         903.341         489.837         895.487 
       0.405069         856.029         460.028         866.299 
       0.417459         823.291         431.169         837.039 
       0.429752         820.926         405.262         808.027 
       0.441978         791.991         382.524         787.982 
       0.454294         757.645         361.876         756.368 
        0.46658         736.206         342.501         741.206 
       0.478753         722.702         324.224          719.22 
       0.490964         694.819         307.056         697.558 
       0.503334         665.592         291.211         682.524 
       0.515665         662.876         276.762         667.117 
       0.527909          635.09         263.423         653.633 
       0.540159         619.862         250.803         637.521 
        0.55248         607.266         238.829         621.204 
       0.564743         602.033         227.741          610.75 
        0.57686         582.562         217.551         594.904 
       0.589077         572.836         207.931         582.009 
       0.601441         558.784         198.784         570.932 
        0.61382         542.969          190.16         560.963 
       0.626067         537.281         182.112         550.789 
       0.638306         517.761         174.534         539.616 
       0.650632         512.913         167.354         527.164 
       0.662899         508.678         160.625          520.74 
       0.675076         492.539          154.32         513.874 
       0.687267         478.238         148.345         501.831 
       0.699615         476.964         142.611         493.939 
       0.711937         466.638         137.191         484.631 
       0.724148         451.607         132.099          478.32 
       0.736433         441.039          127.24         469.964 
       0.748747         435.401         122.618         461.772 
       0.761037         427.684         118.237         456.302 
       0.773197         420.938         114.115         448.721 
       0.785376         415.682         110.185         442.348 
       0.797761         403.193          106.38         435.928 
       0.810096         398.515         102.769         430.381 
       0.822371          388.13         99.3431         423.449 
       0.834626         384.172         96.0799         418.617 
       0.846916         378.424         92.9555         412.069 
       0.859215         373.693         89.9691         406.044 
       0.871383         365.361         87.1443         400.763 
        0.88363         360.947         84.4245         396.731 
       0.895928         355.914         81.8111         390.599 
       0.908253         347.085          79.304         384.185 
       0.920535         340.028         76.9109         380.139 
       0.932774         335.036         74.6253         374.352 
        0.94508         329.851         72.4216         370.643 
       0.957324         326.295          70.318          365.72 
        0.96953         322.099         68.3048         361.314 
       0.981769         314.333         66.3658         357.298 
       0.994071         313.089         64.4931         352.978 
         1.0064         307.167         62.6899         347.857 
        1.01868          303.57         60.9611         343.453 
        1.03092         294.484         59.3056         340.468 
         1.0432         291.669         57.7059         336.356 
        1.05553         288.567         56.1592         331.722 
        1.06777         284.557         54.6807         327.971 
           1.08         278.026         53.2571         324.366 
        1.09227         277.326         51.8798         320.476 
         1.1046         271.736         50.5463         317.461 
         1.1169         265.905         49.2622         313.263 
        1.12915         262.171         48.0292         310.077 
        1.14142         256.831         46.8361         306.436 
        1.15365          253.91         45.6871         303.226 
        1.16585         249.491         44.5799         299.844 
        1.17807         247.041         43.5082         296.592 
        1.19037         242.638         42.4648         294.088 
        1.20276         239.636         41.4487          290.25 
        1.21504         234.628          40.474         286.996 
        1.22728         231.164         39.5347         283.882 
        1.23954         229.775         38.6231         281.039 
        1.25184          224.46         37.7387         278.079 
        1.26414         219.947         36.8816         275.453 
        1.27632         218.079         36.0589         272.925 
         1.2886         216.063         35.2556         269.832 
        1.30093         211.144          34.474         266.412 
        1.31316         206.644         33.7219         263.869 
        1.32541         205.529         32.9921         261.066 
        1.33772         201.864         32.2799         258.703 
        1.35005         199.446         31.5884          255.78 
        1.36225         195.563         30.9241         253.391 
        1.37447         192.461         30.2778         250.322 
        1.38676         190.592         29.6471         248.561 
        1.39907         187.779         29.0332         245.525 
        1.41133         184.124         28.4395         242.961 
        1.42358         181.879          27.863         240.678 
        1.43591         179.455         27.2985         238.525 
        1.44818          175.98         26.7528         236.011 
        1.46037         174.493         26.2253         233.477 
        1.47263         171.028         25.7092         231.274 
        1.48494         169.566         25.2049         228.502 
        1.49724         166.554         24.7147          227.07 
        1.50952         163.567         24.2385         224.439 
        1.52178          161.77         23.7755         222.201 
        1.53409         158.833         23.3228         220.179 
        1.54637         156.369         22.8829          218.36 
        1.55858         154.647         22.4568         216.036 
        1.57081         151.892          22.041         213.946 
        1.58313         149.916         21.6332         211.772 
        1.59544         147.138         21.2359         209.886 
        1.60767         145.745         20.8511         208.023 
        1.61994         143.252         20.4746         205.937 
        1.63225         140.949         20.1066         203.848 
        1.64452          138.68         19.7487         202.042 
        1.65676         136.908         19.4006          200.31 
          1.669         135.309         19.0606         198.318 
        1.68133         132.631         18.7267         196.508 
        1.69363         130.327         18.4017         194.874 
        1.70585          128.28         18.0866          193.06 
        1.71809         126.594         17.7782         190.993 
        1.73038         124.983          17.476         189.402 
        1.74268         123.819         17.1807         187.548 
        1.75493         120.943         16.8935         186.034 
        1.76714         120.334         16.6137         184.408 
        1.77942         117.783         16.3388         182.687 
        1.79173         116.018         16.0694         180.971 
        1.80402         114.472         15.8066         179.361 
         1.8163         112.393         15.5499         177.932 
         1.8286         110.892         15.2985         176.185 
         1.8409         109.558         15.0528         174.552 
        1.85315         107.351         14.8133         173.121 
        1.86537         106.325         14.5796          171.66 
        1.87765         104.969           14.35         170.191 
        1.88995         103.029         14.1248         168.563 
        1.90221         101.768         13.9052         167.254 
        1.91445         100.221         13.6907         165.644 
        1.92674         98.6048         13.4799         164.183 
        1.93902         97.4124         13.2736         162.703 
        1.95124         96.0418         13.0727         161.336 
         1.9635         94.4474         12.8755         159.933 
        1.97583         92.9945          12.681         158.519 
        1.98812         91.6452         12.4914         157.396 
        2.00039         90.6098          12.306         155.876 
        2.01264         89.4772         12.1245         154.594 
        2.02492         88.2181         11.9464         153.176 
        2.03717         86.8572         11.7722         151.977 
        2.04942         85.7407         11.6017         150.675 
        2.06171         84.2195          11.434         149.336 
        2.07397         83.2302           11.27         148.203 
        2.08629         81.9423         11.1085         146.908 
        2.09857         80.9621         10.9506         145.735 
        2.11081         79.6369         10.7964          144.39 
        2.12309          78.635         10.6448          143.29 
        2.13538         77.3358         10.4959         142.037 
        2.14763         76.2808         10.3503         140.884 
        2.15986         75.4212         10.2079         139.626 
        2.17214         74.3361         10.0675         138.555 
        2.18443         73.4126         9.92968         137.565 
        2.19671         72.4725         9.79458         136.365 
        2.20898          71.517         9.66215         135.139 
        2.22126         70.4595         9.53203         134.151 
        2.23354         69.5886         9.40436         133.081 
         2.2458         68.2341         9.27924         131.955 
        2.25807         67.5545         9.15629         130.902 
        2.27035         66.5761         9.03547         129.839 
        2.28263         65.7561         8.91688         128.852 
         2.2949         64.4781         8.80048         127.834 
        2.30718         63.6109         8.68613         126.783 
        2.31946          63.028         8.57375           125.7 
        2.33169         62.0252         8.46385         124.759 
        2.34393         61.5067          8.3557         123.883 
        2.35622          60.422          8.2491         122.824 
        2.36847         59.8185         8.14465         121.975 
        2.38076         58.7414         8.04171         120.901 
        2.39305         58.1799         7.94057         120.067 
        2.40534         57.3011         7.84116         119.066 
        2.41762         56.6883         7.74347         118.117 
        2.42989         55.7857         7.64759          117.26 
        2.44216         55.2824         7.55335          116.28 
         2.4544         54.3981         7.46091         115.443 
        2.46667         53.6294         7.36981         114.562 
        2.47897         53.1256         7.28001         113.613 
        2.49124         52.5055         7.19195         112.768 
        2.50349         51.6208         7.10548         111.934 
        2.51578         51.2503         7.02017         111.172 
        2.52805          50.445         6.93642         110.244 
        2.54029         49.9425         6.85424         109.405 
        2.55257         49.2895         6.77314         108.648 
        2.56487         48.9681          6.6932         107.838 
        2.57716         48.4023         6.61467         107.033 
        2.58942         47.6104         6.53757         106.246 
        2.60167         47.0883         6.46177         105.476 
        2.61395         46.7439         6.38706         104.676 
        2.62624          45.956         6.31343         103.846 
        2.63849         45.4692          6.2412         103.124 
        2.65073         44.8597         6.17017         102.367 
        2.66302          44.482         6.09999         101.614 
         2.6753            43.9         6.03095         100.902 
        2.68756         43.5833         5.96312         100.134 
        2.69983         43.0366         5.89629         99.4208 
        2.71213         42.5486         5.83033          98.713 
        2.72441         42.1612         5.76551         97.9869 
        2.73665         41.6943         5.70183         97.3169 
         2.7489         41.2422         5.63914         96.6346 
        2.76118         40.8563         5.57721          95.913 
        2.77349         40.4094         5.51606         95.2511 
        2.78576         40.0316         5.45606         94.5522 
        2.79802         39.6839         5.39699         93.9478 
        2.81031         39.1526         5.33866         93.2618 
        2.82259         38.7807         5.28121         92.5692 
        2.83483         38.3619         5.22483         91.9672 
         2.8471         37.9975         5.16916          91.299 
         2.8594         37.6097         5.11413         90.6522 
         2.8717         37.3499         5.05992         90.0681 
        2.88396          37.037          5.0067         89.4389 
        2.89619         36.7321         4.95434         88.7741 
        2.90847         36.3767         4.90253         88.1279 
        2.92072         36.0974         4.85155          87.586 
        2.93299         35.9525         4.80127         87.0047 
        2.94526         35.5864         4.75166         86.3883 
        2.95753         35.3541         4.70276         85.7861 
        2.96982         34.9844         4.65447         85.2181 
        2.98209         34.8617         4.60695         84.6456 
        2.99436         34.5758         4.56006         84.0403 
        3.00666         34.4407         4.51374         83.4786 
        3.01894         34.2178         4.46816         82.9278 
        3.03119         33.9846         4.42326         82.3955 
        3.04345         33.7853         4.37899         81.8532 
        3.05573         33.6892         4.33523         81.2958 
          3.068         33.4789         4.29211         80.7604 
        3.08026         33.2907         4.24963         80.2207 
        3.09254         33.2215         4.20764         79.6983 
        3.10483         33.2199         4.16621         79.1768 
         3.1171         33.0415         4.12539         78.6466 
        3.12933         32.8125         4.08524         78.1243 
        3.14159         32.8191         4.04553         77.6038 
