# k  (h/Mpc)    P(k)  (Mpc/h)^3    P_linear(k)  (Mpc/h)^3     P_NL(k)  ShotnoiseSubtracted = false
      0.0156606          8415.7         8597.39         8547.39 
      0.0273761         7261.63         7424.35         7385.34 
      0.0384619         5509.68         5590.03         5562.94 
      0.0498308         4290.62         4395.34          4370.7 
      0.0625568         3619.99         3734.58          3710.5 
      0.0751274         3176.36         3172.44         3136.35 
      0.0867833         2490.71         2553.92         2545.36 
      0.0984825         2053.78         2020.96         2036.62 
       0.111151         1732.92         1687.38         1703.77 
       0.123864         1556.46          1520.6         1534.39 
       0.135742         1405.15         1367.36         1381.55 
        0.14762         1203.54         1169.14         1204.17 
       0.160083         1001.54         974.523         1014.97 
       0.172465         890.487         850.559         900.693 
       0.184281         822.223         784.106         836.624 
       0.196406         753.216         724.113         766.954 
       0.209011         689.265         644.269         690.726 
       0.221538         619.747         563.026          627.85 
       0.233611         570.859         503.759         576.447 
       0.245665         531.927         464.948         530.234 
       0.258103         493.608         432.825         497.758 
       0.270422         454.963         397.714         462.209 
       0.282519         416.335         360.946         428.661 
       0.294636         410.114         328.861         400.143 
       0.306978         363.391         304.251         378.352 
       0.319417         348.801         284.456         355.566 
        0.33169         326.921         265.509          334.14 
       0.343948         311.917         246.009          318.24 
       0.356249         290.734         227.721         303.109 
       0.368458         281.013         212.404         284.995 
        0.38068         267.382         199.596          271.32 
       0.392856         249.832         187.902         259.592 
       0.405069         239.332         176.468         249.098 
       0.417459         228.162         165.398         235.761 
       0.429752         219.747         155.461         226.377 
       0.441978         211.901         146.738         218.813 
       0.454294         197.604         138.817          208.12 
        0.46658         197.674         131.386         201.418 
       0.478753          186.71         124.375         194.003 
       0.490964         180.903         117.789         186.735 
       0.503334         171.535         111.711         180.713 
       0.515665         167.795         106.168         176.126 
       0.527909         162.706         101.051         168.883 
       0.540159         157.392         96.2098         163.948 
        0.55248         152.947         91.6164         158.478 
       0.564743         148.471         87.3634         154.481 
        0.57686         143.684         83.4543         149.424 
       0.589077         137.443         79.7642         145.922 
       0.601441         134.604         76.2554         142.097 
        0.61382         132.654         72.9471         137.927 
       0.626067         127.769           69.86         134.429 
       0.638306         122.975         66.9529         131.286 
       0.650632         118.751         64.1985         126.742 
       0.662899         118.678         61.6174         124.025 
       0.675076         114.443         59.1985         121.056 
       0.687267         111.739         56.9064         118.243 
       0.699615         108.575          54.707         115.816 
       0.711937         105.463         52.6279         112.785 
       0.724148         104.345         50.6744         111.202 
       0.736433          100.56         48.8104         108.301 
       0.748747         98.5385         47.0375         105.964 
       0.761037         96.5505         45.3568          103.49 
       0.773197         94.4411         43.7757         102.298 
       0.785376         92.4638         42.2681         99.7274 
       0.797761         91.4024         40.8083         98.2684 
       0.810096         88.2444         39.4231         96.0854 
       0.822371         86.4697          38.109         94.3088 
       0.834626         84.6104         36.8573         92.6993 
       0.846916         83.5495         35.6587         91.1154 
       0.859215         81.8483         34.5131         89.3242 
       0.871383         80.7068         33.4295          87.827 
        0.88363          78.527         32.3862         86.6414 
       0.895928         77.0011         31.3836          85.225 
       0.908253         75.0658         30.4219          83.713 
       0.920535         74.7129         29.5038          82.483 
       0.932774         73.0942         28.6271         81.0313 
        0.94508         72.1761         27.7817         79.6825 
       0.957324         70.4561         26.9748          78.654 
        0.96953         70.5211         26.2025         77.2665 
       0.981769         68.1521         25.4586         76.4136 
       0.994071         67.4121         24.7403         75.2849 
         1.0064         65.9341         24.0485          74.161 
        1.01868         65.1125         23.3854         73.1903 
        1.03092         63.9638         22.7503         72.1483 
         1.0432          62.877         22.1366         71.0611 
        1.05553         61.2696         21.5433         70.4673 
        1.06777          60.951         20.9761          69.457 
           1.08         59.6017           20.43         68.4926 
        1.09227         58.7909         19.9017         67.4986 
         1.1046         57.8905         19.3901         66.6596 
         1.1169         57.2369         18.8976         65.6938 
        1.12915         56.3662         18.4246         65.0245 
        1.14142          55.285         17.9669         64.2231 
        1.15365         54.3863         17.5261         63.4884 
        1.16585          53.605         17.1014         62.6174 
        1.17807         52.7663         16.6903         61.8841 
        1.19037         52.6538           16.29         61.2959 
        1.20276         51.6567         15.9002         60.5713 
        1.21504         51.1351         15.5263          59.861 
        1.22728         50.0786          15.166         59.2141 
        1.23954         49.5227         14.8163         58.4242 
        1.25184         48.7159          14.477         57.9155 
        1.26414         47.9636         14.1482         57.1956 
        1.27632          47.581         13.8326          56.647 
         1.2886         47.0817         13.5245         55.9979 
        1.30093         46.3656         13.2247         55.2783 
        1.31316         45.6434         12.9361         54.8883 
        1.32541         45.3704         12.6562         54.2573 
        1.33772         44.5202          12.383         53.6905 
        1.35005         44.0536         12.1177          53.179 
        1.36225         43.3035         11.8629         52.6483 
        1.37447         42.2837         11.6149         52.0884 
        1.38676         42.4617          11.373         51.6011 
        1.39907         41.7868         11.1375         51.1639 
        1.41133         40.9212         10.9098         50.6896 
        1.42358         40.4812         10.6886         50.1168 
        1.43591         40.1006         10.4721         49.7082 
        1.44818          39.635         10.2627          49.117 
        1.46037         39.1114         10.0604         48.7306 
        1.47263         38.8264         9.86235         48.3389 
        1.48494         38.0494         9.66893         47.8232 
        1.49724         37.8559         9.48085         47.3856 
        1.50952         37.4192         9.29818         46.9756 
        1.52178          36.839         9.12058         46.5728 
        1.53409         36.5542         8.94693         46.1581 
        1.54637         35.9848         8.77816          45.707 
        1.55858         35.2149         8.61472          45.289 
        1.57081         35.2728         8.45521         44.9696 
        1.58313         34.8578         8.29875         44.5707 
        1.59544         34.2328         8.14635         44.1639 
        1.60767         33.8133         7.99875         43.7563 
        1.61994          33.409         7.85431         43.4045 
        1.63225          33.203         7.71314         43.0453 
        1.64452         32.7907         7.57583         42.7058 
        1.65676         32.3916          7.4423         42.3205 
          1.669         32.0847          7.3119         42.0301 
        1.68133         31.7625          7.1838          41.628 
        1.69363         31.2393         7.05914          41.275 
        1.70585         31.0321         6.93824         41.0302 
        1.71809         30.4988         6.81994         40.5916 
        1.73038         30.3392         6.70402         40.3517 
        1.74268            29.9         6.59073         39.9428 
        1.75493         29.5859         6.48057         39.6611 
        1.76714         29.3414         6.37323         39.3756 
        1.77942         29.0295         6.26777         39.0554 
        1.79173         28.6135         6.16442         38.7347 
        1.80402         28.3035         6.06363         38.5256 
         1.8163         28.1267         5.96514         38.0797 
         1.8286         27.6383         5.86868         37.8601 
         1.8409         27.4102         5.77444         37.5488 
        1.85315         27.1058         5.68258         37.3105 
        1.86537         26.7542          5.5929         37.0297 
        1.87765         26.6253         5.50483         36.7327 
        1.88995         26.2282         5.41844         36.3957 
        1.90221         25.9684         5.33422         36.1372 
        1.91445         25.6102         5.25192         35.8945 
        1.92674         25.3839         5.17107         35.6088 
        1.93902         25.0981         5.09192         35.3715 
        1.95124         24.6826         5.01486         35.1576 
         1.9635         24.5476         4.93919         34.8587 
        1.97583         24.2895         4.86461         34.6325 
        1.98812         24.0808         4.79185         34.3761 
        2.00039          23.797         4.72072         34.1212 
        2.01264         23.5116         4.65111         33.8998 
        2.02492         23.3446          4.5828         33.6264 
        2.03717         22.9761         4.51597          33.395 
        2.04942         22.7882         4.45057         33.1379 
        2.06171          22.627         4.38624         32.9284 
        2.07397         22.3774         4.32332         32.6639 
        2.08629         22.1497         4.26138         32.4296 
        2.09857         21.9011          4.2008         32.2219 
        2.11081         21.6522         4.14164          31.989 
        2.12309         21.5022         4.08349         31.7619 
        2.13538         21.1844         4.02636          31.567 
        2.14763         21.0484         3.97053         31.3365 
        2.15986         20.8061         3.91588         31.1137 
        2.17214         20.6011         3.86203         30.9202 
        2.18443         20.4066         3.80915         30.6755 
        2.19671          20.155         3.75733          30.469 
        2.20898         19.9777         3.70653         30.2506 
        2.22126         19.8555         3.65661         30.0573 
        2.23354         19.6849         3.60763          29.874 
         2.2458         19.4886         3.55964         29.6791 
        2.25807         19.2078         3.51247         29.4411 
        2.27035         19.0289         3.46612          29.267 
        2.28263         18.8779         3.42063         29.0764 
         2.2949         18.7238         3.37598         28.8866 
        2.30718         18.5433         3.33211         28.6834 
        2.31946         18.4196           3.289           28.49 
        2.33169         18.1961         3.24684         28.3033 
        2.34393         18.0298         3.20535         28.1314 
        2.35622         17.8404         3.16446         27.9505 
        2.36847         17.6527         3.12439         27.7452 
        2.38076         17.4994          3.0849         27.5936 
        2.39305         17.3678          3.0461         27.4162 
        2.40534         17.1776         3.00797         27.1986 
        2.41762         17.0046          2.9705         27.0708 
        2.42989         16.8851         2.93372         26.8541 
        2.44216         16.6808         2.89756         26.7041 
         2.4544         16.6724          2.8621         26.5176 
        2.46667         16.4444         2.82715         26.3577 
        2.47897         16.2427         2.79271         26.1777 
        2.49124         16.1784         2.75893         26.0129 
        2.50349         15.9637         2.72576         25.8393 
        2.51578         15.8705         2.69303         25.7011 
        2.52805         15.7204          2.6609          25.528 
        2.54029         15.5972         2.62937         25.3663 
        2.55257         15.4872         2.59826         25.2006 
        2.56487         15.3057          2.5676         25.0527 
        2.57716         15.1989         2.53747         24.8745 
        2.58942         15.1188          2.5079         24.7439 
        2.60167          14.894         2.47882         24.5846 
        2.61395         14.8546         2.45016         24.4305 
        2.62624         14.7593         2.42191         24.2705 
        2.63849         14.5929          2.3942          24.145 
        2.65073         14.4747         2.36696         23.9805 
        2.66302         14.3884         2.34004         23.8465 
         2.6753         14.3276         2.31355         23.6909 
        2.68756         14.1818         2.28753         23.5565 
        2.69983         14.0607         2.26189         23.3977 
        2.71213         13.9365         2.23659         23.2447 
        2.72441         13.8699         2.21172         23.1109 
        2.73665         13.7564          2.1873          22.973 
         2.7489         13.7231         2.16325         22.8324 
        2.76118         13.5667         2.13949          22.697 
        2.77349         13.4933         2.11603         22.5629 
        2.78576          13.387         2.09302         22.4365 
        2.79802          13.336         2.07036         22.2893 
        2.81031          13.241         2.04798          22.151 
        2.82259         13.1165         2.02594         22.0339 
        2.83483         13.1078         2.00431         21.9019 
         2.8471         13.0368         1.98296         21.7576 
         2.8594          12.941         1.96185         21.6222 
         2.8717         12.8796         1.94105         21.5037 
        2.88396         12.7991         1.92064         21.3738 
        2.89619         12.7717         1.90055         21.2451 
        2.90847           12.69         1.88067          21.135 
        2.92072         12.6459         1.86112         20.9866 
        2.93299         12.5395         1.84183           20.88 
        2.94526         12.5039          1.8228         20.7664 
        2.95753          12.468         1.80404          20.634 
        2.96982         12.4076         1.78552         20.5149 
        2.98209         12.3859         1.76729         20.3987 
        2.99436         12.3327          1.7493         20.2721 
        3.00666         12.3147         1.73153         20.1524 
        3.01894         12.2678         1.71404         20.0507 
        3.03119         12.2455         1.69682         19.9323 
        3.04345         12.1722         1.67984         19.8058 
        3.05573          12.172         1.66305         19.6947 
          3.068         12.1342         1.64651         19.5884 
        3.08026         12.1281         1.63021         19.4627 
        3.09254         12.0916         1.61411         19.3582 
        3.10483         12.0993         1.59821         19.2577 
         3.1171         12.1288         1.58256         19.1443 
        3.12933         12.0877         1.56715         19.0336 
        3.14159         12.0464         1.55192         18.9186 
