# k  (h/Mpc)    P(k)  (Mpc/h)^3    P_linear(k)  (Mpc/h)^3     P_NL(k)  ShotnoiseSubtracted = false
      0.0156606         23145.1         23309.4         23119.6 
      0.0273761         19790.6         20118.3           19886 
      0.0384619         14943.7         15142.6         14934.5 
      0.0498308         11526.8         11903.5         11693.6 
      0.0625568         9737.78         10112.1         9926.36 
      0.0751274         8681.36         8588.91         8328.84 
      0.0867833         6718.05         6913.76          6832.6 
      0.0984825         5692.58         5470.62         5540.42 
       0.111151         4877.64         4567.38         4656.23 
       0.123864         4368.84         4115.79         4187.43 
       0.135742         3988.69          3700.9          3772.5 
        0.14762         3477.75          3164.3          3353.2 
       0.160083         2965.64         2637.52         2871.84 
       0.172465          2645.1         2301.97         2600.65 
       0.184281          2392.9         2122.09         2420.52 
       0.196406         2267.22          1959.7         2231.94 
       0.209011         2126.87          1743.6         2024.99 
       0.221538         1913.71         1523.71         1894.96 
       0.233611         1841.39         1363.31         1779.24 
       0.245665          1667.4         1258.27         1644.88 
       0.258103         1658.67         1171.33         1554.31 
       0.270422         1479.91          1076.3         1462.18 
       0.282519         1402.35         976.798         1387.87 
       0.294636         1373.56         889.964         1316.44 
       0.306978         1259.95         823.362         1263.25 
       0.319417         1239.28         769.791         1191.64 
        0.33169         1164.16         718.514         1130.16 
       0.343948         1120.33         665.741         1096.36 
       0.356249         1064.96         616.251         1056.95 
       0.368458         1020.33         574.798         1012.34 
        0.38068         1007.85         540.136         975.166 
       0.392856         959.028         508.491         942.551 
       0.405069         908.354         477.548         911.425 
       0.417459         874.186         447.589         881.855 
       0.429752         874.062         420.696         851.422 
       0.441978         843.599         397.091          830.62 
       0.454294         808.223         375.657         797.682 
        0.46658         785.761         355.545         781.927 
       0.478753         772.373         336.572         759.112 
       0.490964         743.659          318.75         736.452 
       0.503334          713.09         302.302         720.972 
       0.515665         710.165         287.302         704.554 
       0.527909         680.494         273.455         690.837 
       0.540159         665.275         260.354         674.214 
        0.55248         651.885         247.924         657.141 
       0.564743         646.383         236.415           646.1 
        0.57686         626.686         225.836         629.546 
       0.589077         617.856          215.85         616.117 
       0.601441         601.883         206.355         604.604 
        0.61382         584.818         197.402          593.96 
       0.626067         579.588         189.048         583.479 
       0.638306         558.933         181.181         571.591 
       0.650632         553.952         173.727         558.836 
       0.662899         549.848         166.742         551.887 
       0.675076         533.594         160.197           544.9 
       0.687267         518.172         153.994          532.29 
       0.699615         518.001         148.042         523.903 
       0.711937         506.226         142.416         513.962 
       0.724148         490.588         137.129          507.48 
       0.736433         479.548         132.085         498.745 
       0.748747         473.765         127.287         490.152 
       0.761037         465.787         122.739         484.476 
       0.773197         458.222         118.461         476.254 
       0.785376         453.433         114.381         469.571 
       0.797761          440.08         110.431         463.046 
       0.810096         434.328         106.682         457.053 
       0.822371         424.164         103.126         449.768 
       0.834626         419.723         99.7388         444.778 
       0.846916         414.348         96.4955         437.835 
       0.859215         408.543         93.3953         431.391 
       0.871383         400.049         90.4629          425.84 
        0.88363         394.859         87.6396         421.577 
       0.895928         390.078         84.9267         415.128 
       0.908253         380.742          82.324         408.256 
       0.920535         372.411         79.8398         404.162 
       0.932774         367.723         77.4672         397.929 
        0.94508         362.291         75.1795         394.081 
       0.957324         357.843         72.9959         388.855 
        0.96953         353.532          70.906         384.169 
       0.981769         345.559         68.8931         379.882 
       0.994071         344.412         66.9492         375.334 
         1.0064         338.338         65.0772         369.901 
        1.01868         334.377         63.2827         365.273 
        1.03092         324.878         61.5641         362.114 
         1.0432         321.977         59.9035         357.745 
        1.05553         318.966         58.2979         352.799 
        1.06777         314.353          56.763         348.745 
           1.08         307.415         55.2852         344.932 
        1.09227         307.215         53.8555          340.82 
         1.1046         300.922         52.4712          337.68 
         1.1169         295.112         51.1382         333.246 
        1.12915         290.791         49.8583          329.75 
        1.14142         285.071         48.6197         325.954 
        1.15365         282.038          47.427         322.552 
        1.16585          277.62         46.2776         318.993 
        1.17807         275.028         45.1651         315.403 
        1.19037         269.796          44.082         312.743 
        1.20276         267.125         43.0271         308.687 
        1.21504         261.816         42.0153         305.212 
        1.22728         258.094         41.0403         302.085 
        1.23954         256.581          40.094         298.848 
        1.25184         250.782         39.1759         295.735 
        1.26414         246.125         38.2861         292.955 
        1.27632         243.704         37.4321         290.219 
         1.2886          241.28         36.5982         286.978 
        1.30093         236.387         35.7869         283.286 
        1.31316         231.598         35.0061         280.715 
        1.32541         230.518         34.2485         277.594 
        1.33772         226.217         33.5092         275.154 
        1.35005         223.754         32.7913         272.038 
        1.36225         219.663         32.1018         269.502 
        1.37447         216.183         31.4309         266.289 
        1.38676         214.239         30.7761         264.409 
        1.39907         211.206         30.1389          261.15 
        1.41133         207.229         29.5226         258.395 
        1.42358         204.716         28.9241         255.977 
        1.43591         202.015         28.3381         253.731 
        1.44818         198.227         27.7716         250.999 
        1.46037         196.749         27.2241         248.313 
        1.47263         193.062         26.6882         245.873 
        1.48494         191.723         26.1648         242.975 
        1.49724         188.104         25.6559         241.493 
        1.50952         185.041         25.1615         238.579 
        1.52178         182.675         24.6809          236.35 
        1.53409         179.766          24.211         234.107 
        1.54637         176.934         23.7543         232.178 
        1.55858         175.099          23.312         229.745 
        1.57081         172.188         22.8804         227.437 
        1.58313         170.126          22.457         225.139 
        1.59544          166.99         22.0446         223.144 
        1.60767         165.605         21.6452         221.171 
        1.61994         162.789         21.2543         218.893 
        1.63225         160.197         20.8723          216.69 
        1.64452         157.725         20.5007         214.776 
        1.65676         155.865         20.1394         212.956 
          1.669         154.049         19.7865         210.768 
        1.68133         151.083         19.4399         208.842 
        1.69363         148.559         19.1025         207.147 
        1.70585         146.369         18.7754          205.17 
        1.71809         144.505         18.4552         202.997 
        1.73038         142.546         18.1415         201.273 
        1.74268         141.367          17.835         199.309 
        1.75493         138.442         17.5369         197.714 
        1.76714         137.654         17.2464         195.962 
        1.77942         134.907          16.961         194.189 
        1.79173         133.117         16.6814         192.298 
        1.80402         131.182         16.4086         190.593 
         1.8163         129.011         16.1421         189.091 
         1.8286         127.209         15.8811         187.231 
         1.8409         125.593          15.626         185.498 
        1.85315         123.391         15.3774         183.969 
        1.86537         122.058         15.1348         182.401 
        1.87765         120.606         14.8964         180.836 
        1.88995         118.564         14.6627         179.107 
        1.90221         117.091         14.4348         177.718 
        1.91445          115.31          14.212         176.032 
        1.92674         113.451         13.9933         174.449 
        1.93902         112.179         13.7791         172.878 
        1.95124         110.656         13.5705         171.434 
         1.9635         108.876         13.3658         169.945 
        1.97583         107.264          13.164         168.415 
        1.98812         105.765         12.9671         167.256 
        2.00039         104.611         12.7746         165.627 
        2.01264         103.352         12.5862         164.261 
        2.02492         101.725         12.4014         162.751 
        2.03717         100.342         12.2205         161.484 
        2.04942         99.0606         12.0435         160.078 
        2.06171         97.4284         11.8695         158.639 
        2.07397         96.1771         11.6992         157.455 
        2.08629         94.7669         11.5316         156.081 
        2.09857          93.709         11.3676          154.84 
        2.11081          92.243         11.2076         153.413 
        2.12309         91.0933         11.0502         152.225 
        2.13538         89.6482         10.8956          150.91 
        2.14763         88.3586         10.7445         149.672 
        2.15986         87.5063         10.5966         148.334 
        2.17214         86.2738         10.4509         147.226 
        2.18443         85.3023         10.3078         146.138 
        2.19671         84.2219         10.1676         144.858 
        2.20898          83.022         10.0301         143.557 
        2.22126         81.9006         9.89503         142.511 
        2.23354         80.8595         9.76249         141.394 
         2.2458         79.2968         9.63261         140.168 
        2.25807         78.6796         9.50498         139.064 
        2.27035         77.5434         9.37955         137.944 
        2.28263         76.6054         9.25645         136.895 
         2.2949         75.2124         9.13562         135.813 
        2.30718         74.1374         9.01691         134.688 
        2.31946         73.4252         8.90025         133.539 
        2.33169         72.2987         8.78617         132.542 
        2.34393         71.6153          8.6739         131.623 
        2.35622         70.5163         8.56324         130.481 
        2.36847         69.7029         8.45482         129.567 
        2.38076         68.4978         8.34795         128.458 
        2.39305         67.9079         8.24296         127.552 
        2.40534         66.8393         8.13977         126.488 
        2.41762         66.2544         8.03836         125.494 
        2.42989         65.1568         7.93883         124.569 
        2.44216          64.585           7.841         123.536 
         2.4544          63.684         7.74504         122.656 
        2.46667         62.6956         7.65047          121.72 
        2.47897         62.1998         7.55724         120.701 
        2.49124         61.3896         7.46584         119.797 
        2.50349         60.3078         7.37608         118.919 
        2.51578          59.931         7.28752         118.096 
        2.52805         58.9366         7.20057         117.127 
        2.54029         58.3831         7.11526         116.246 
        2.55257         57.6729         7.03108          115.43 
        2.56487         57.2245         6.94809         114.569 
        2.57716         56.5968         6.86657         113.712 
        2.58942         55.7049         6.78653         112.881 
        2.60167         55.0904         6.70785          112.07 
        2.61395         54.6821         6.63029         111.213 
        2.62624         53.8473         6.55386         110.335 
        2.63849          53.247         6.47887         109.579 
        2.65073         52.5122         6.40514         108.757 
        2.66302         52.0966         6.33229         107.984 
         2.6753         51.3553         6.26062         107.215 
        2.68756         51.0219         6.19021         106.407 
        2.69983         50.4224         6.12083         105.641 
        2.71213         49.8527         6.05236         104.889 
        2.72441         49.3887         5.98507         104.118 
        2.73665         48.8302         5.91896         103.404 
         2.7489         48.3432         5.85389          102.68 
        2.76118         47.8952          5.7896         101.914 
        2.77349         47.4131         5.72612         101.213 
        2.78576         46.9377         5.66384          100.48 
        2.79802         46.5372         5.60252         99.8271 
        2.81031         45.9988         5.54197         99.1073 
        2.82259         45.5077         5.48233         98.3677 
        2.83483         45.0582          5.4238         97.7245 
         2.8471         44.5711         5.36601          97.018 
         2.8594         44.1798         5.30888         96.3369 
         2.8717         43.8849         5.25261         95.7132 
        2.88396         43.4296         5.19736         95.0487 
        2.89619         43.1211         5.14301         94.3525 
        2.90847         42.7036         5.08923         93.6624 
        2.92072         42.3533         5.03631         93.0899 
        2.93299         42.1359         4.98411         92.4673 
        2.94526         41.7703         4.93261         91.8075 
        2.95753         41.4869         4.88185         91.1787 
        2.96982         41.0513         4.83172           90.58 
        2.98209         40.8321         4.78239         89.9618 
        2.99436          40.617         4.73371         89.3265 
        3.00666         40.3876         4.68563          88.727 
        3.01894         40.1591         4.63831         88.1411 
        3.03119         39.8714         4.59171         87.5791 
        3.04345         39.6045         4.54575          87.005 
        3.05573         39.5923         4.50032         86.4137 
          3.068         39.2789         4.45556         85.8475 
        3.08026         39.0603         4.41146         85.2753 
        3.09254         39.0414         4.36787         84.7207 
        3.10483         38.9282         4.32487         84.1682 
         3.1171         38.7673          4.2825          83.605 
        3.12933         38.5252         4.24081         83.0498 
        3.14159         38.5003         4.19959         82.5014 
