# k  (h/Mpc)    Pcb(k)  (Mpc/h)^3    Pcb_linear(k) (Mpc/h)^3    Pcb_NL(k) (Mpc/h)^3   ShotnoiseSubtracted = false
      0.0156606         15909.2         15974.6         15863.8 
      0.0273761         13679.7           13813         13697.5 
      0.0384619         10364.7         10406.9         10310.5 
      0.0498308         8030.21         8185.85         8090.94 
      0.0625568         6780.79         6957.03         6870.58 
      0.0751274         6009.48         5910.78         5787.38 
      0.0867833            4674         4758.84         4722.96 
      0.0984825         3912.87         3766.02         3805.42 
       0.111151         3328.77         3144.56         3189.81 
       0.123864         2985.57         2833.89         2871.13 
       0.135742         2710.36         2548.37         2586.24 
        0.14762         2345.84         2178.98         2278.72 
       0.160083         1972.11         1816.31          1936.2 
       0.172465         1758.78         1585.29         1736.81 
       0.184281         1606.77         1461.45         1615.89 
       0.196406         1494.79         1349.64         1483.76 
       0.209011         1386.85         1200.84         1341.54 
       0.221538         1251.05         1049.42         1241.53 
       0.233611         1182.04         938.958         1155.08 
       0.245665         1080.37         866.622         1064.02 
       0.258103         1046.99         806.751         1002.47 
       0.270422         940.512          741.31         937.712 
       0.282519         877.338         672.781         880.114 
       0.294636         868.221         612.978         829.666 
       0.306978          782.35         567.107         791.563 
       0.319417         758.964         530.213         745.252 
        0.33169         715.133         494.897         703.062 
       0.343948         682.277          458.55         678.545 
       0.356249         642.134         424.464         650.946 
       0.368458         622.178         395.914         617.519 
        0.38068         602.669         372.038         591.625 
       0.392856         568.719         350.243         568.693 
       0.405069         543.866         328.932         551.026 
       0.417459         521.773         308.297         526.056 
       0.429752         509.665         289.773         507.119 
       0.441978         492.725         273.516          492.75 
       0.454294         466.751         258.752         471.433 
        0.46658         457.313           244.9          460.13 
       0.478753         443.846         231.832         444.805 
       0.490964           427.5         219.557         430.235 
       0.503334         404.673         208.227         419.006 
       0.515665          403.43         197.895         409.894 
       0.527909         388.647         188.358         398.487 
       0.540159         378.808         179.334         387.308 
        0.55248         371.342         170.772         376.704 
       0.564743         366.056         162.844          369.64 
        0.57686         351.832         155.558         358.919 
       0.589077         340.088          148.68         350.988 
       0.601441         336.231         142.139         343.067 
        0.61382         329.943         135.973         336.408 
       0.626067         324.445         130.218         329.076 
       0.638306         310.398           124.8         322.799 
       0.650632         305.269         119.665         313.497 
       0.662899         302.838         114.854         309.513 
       0.675076         291.152         110.346         303.595 
       0.687267         283.862         106.073         296.575 
       0.699615         279.632         101.974         291.445 
       0.711937         275.123         98.0981         286.199 
       0.724148         266.779         94.4568         281.889 
       0.736433          260.96         90.9824          276.12 
       0.748747         256.696         87.6776         270.864 
       0.761037         252.061         84.5449         266.512 
       0.773197         248.633         81.5977         262.968 
       0.785376         245.089         78.7877         258.161 
       0.797761         239.121         76.0665         254.387 
       0.810096         236.136         73.4846         250.663 
       0.822371         227.201         71.0352         246.504 
       0.834626         226.546         68.7019         242.787 
       0.846916         221.808         66.4678         239.248 
       0.859215         221.613         64.3324         235.767 
       0.871383         215.593         62.3125         232.099 
        0.88363         213.855         60.3678         229.687 
       0.895928         208.891         58.4991          226.11 
       0.908253         203.147         56.7063          222.35 
       0.920535         202.384         54.9952         219.358 
       0.932774          195.79         53.3609         216.298 
        0.94508         193.942         51.7851         214.027 
       0.957324         193.458          50.281          210.81 
        0.96953          190.74         48.8415         207.746 
       0.981769         184.789         47.4549         205.837 
       0.994071           183.9         46.1159         203.133 
         1.0064         179.667         44.8265         200.046 
        1.01868         177.221         43.5904         197.789 
        1.03092         173.993         42.4066         195.674 
         1.0432         170.595         41.2627         193.235 
        1.05553         167.981         40.1568         190.907 
        1.06777         167.766         39.0995         188.975 
           1.08         163.565         38.0816          186.51 
        1.09227         161.632         37.0968         184.598 
         1.1046         159.076         36.1433         182.536 
         1.1169         156.557         35.2251         180.046 
        1.12915         154.156         34.3434         178.334 
        1.14142         151.677         33.4903         176.006 
        1.15365         149.657         32.6687          174.16 
        1.16585          147.53          31.877         171.889 
        1.17807          145.46         31.1107         170.649 
        1.19037         144.444         30.3646         168.877 
        1.20276         141.791          29.638         166.803 
        1.21504         139.569         28.9411          165.01 
        1.22728         136.807         28.2694         162.971 
        1.23954         136.181         27.6176         161.698 
        1.25184         133.486         26.9852          159.86 
        1.26414          131.48         26.3723         158.183 
        1.27632         130.953         25.7841         157.314 
         1.2886         128.601         25.2097         155.075 
        1.30093         125.122         24.6508          153.42 
        1.31316         124.549          24.113         151.762 
        1.32541         122.738         23.5911         150.626 
        1.33772         121.538         23.0819         148.995 
        1.35005         119.823         22.5874         147.335 
        1.36225         118.337         22.1124         146.023 
        1.37447         116.197         21.6503         144.389 
        1.38676         115.146         21.1993         142.938 
        1.39907         112.719         20.7604         141.628 
        1.41133         111.182         20.3358         140.458 
        1.42358         109.584         19.9236         139.102 
        1.43591         108.685         19.5199         137.537 
        1.44818         107.619         19.1297         136.408 
        1.46037           105.5         18.7526         135.018 
        1.47263         104.328         18.3835         134.002 
        1.48494         103.013         18.0229         132.514 
        1.49724          101.48         17.6723         131.189 
        1.50952          99.676         17.3318         130.038 
        1.52178         99.0371         17.0008         128.801 
        1.53409         97.4962         16.6771         127.698 
        1.54637         95.9041         16.3625         126.561 
        1.55858         94.5145         16.0579         125.317 
        1.57081         93.1745         15.7605         124.237 
        1.58313          92.105         15.4689         123.072 
        1.59544          91.073         15.1848          121.99 
        1.60767         89.7138         14.9097         120.816 
        1.61994         88.3289         14.6405         120.028 
        1.63225         87.1033         14.3773         118.571 
        1.64452         85.7301         14.1214         117.595 
        1.65676         84.5869         13.8725         116.624 
          1.669         83.9833         13.6294         115.683 
        1.68133         82.6309         13.3906         114.584 
        1.69363         81.7136         13.1583         113.654 
        1.70585         80.4259         12.9329         112.598 
        1.71809         79.2279         12.7124         111.658 
        1.73038         78.4957         12.4963         110.631 
        1.74268         77.2166         12.2851         109.689 
        1.75493         76.4496         12.0798         108.701 
        1.76714         75.1719         11.8797         107.818 
        1.77942         74.5356         11.6831         106.826 
        1.79173         73.2457         11.4905         105.961 
        1.80402         72.5665         11.3026         105.125 
         1.8163         71.4505         11.1191         104.057 
         1.8286         70.4246         10.9393         103.285 
         1.8409         69.6565         10.7636         102.388 
        1.85315         68.5413         10.5923         101.608 
        1.86537         67.8111         10.4252         100.719 
        1.87765         67.1218          10.261         99.7674 
        1.88995          66.046            10.1         99.0441 
        1.90221         65.2109           9.943         98.1888 
        1.91445         64.0119          9.7896         97.3815 
        1.92674         63.3489          9.6389          96.598 
        1.93902         62.5313         9.49137         95.7289 
        1.95124         62.0513         9.34772         95.0577 
         1.9635         60.9577         9.20667          94.107 
        1.97583         60.2793         9.06765         93.4881 
        1.98812          59.531         8.93202         92.6593 
        2.00039         58.5434         8.79944         91.9084 
        2.01264         58.0419         8.66968         91.1389 
        2.02492         57.1679         8.54235         90.4272 
        2.03717         56.3274         8.41779         89.6243 
        2.04942          55.789         8.29588         89.0041 
        2.06171          54.832         8.17597         88.2289 
        2.07397         54.2592         8.05869         87.5803 
        2.08629         53.7376         7.94323         86.8149 
        2.09857         52.9663         7.83031         86.1519 
        2.11081         51.8934         7.72004         85.3877 
        2.12309         51.6248         7.61164         84.7955 
        2.13538         50.8406         7.50516         84.0947 
        2.14763         50.2658         7.40108         83.4374 
        2.15986         49.3438         7.29921         82.7652 
        2.17214         48.8752         7.19885         82.1321 
        2.18443         48.3995         7.10028         81.5261 
        2.19671         47.5232         7.00367         80.8314 
        2.20898          47.307         6.90898         80.2065 
        2.22126         46.5409         6.81594          79.547 
        2.23354         45.9005         6.72464         78.9771 
         2.2458         45.3952         6.63518          78.393 
        2.25807         44.9398         6.54726         77.7244 
        2.27035         44.3478         6.46086         77.1279 
        2.28263         43.6322         6.37607         76.5178 
         2.2949         43.2284         6.29284          75.947 
        2.30718          42.592         6.21107         75.3946 
        2.31946          42.029         6.13071         74.8393 
        2.33169         41.5236         6.05212         74.2521 
        2.34393         40.8361         5.97479         73.6873 
        2.35622         40.6051         5.89857         73.1187 
        2.36847         40.0729         5.82388         72.6018 
        2.38076         39.5927         5.75027         72.0195 
        2.39305         39.0676         5.67795         71.5028 
        2.40534         38.6838         5.60687         70.9135 
        2.41762         38.2853         5.53702         70.3609 
        2.42989           37.66         5.46846         69.8988 
        2.44216         37.3873         5.40107         69.3572 
         2.4544         36.9355         5.33497         68.8385 
        2.46667         36.5142         5.26983          68.294 
        2.47897         36.0758         5.20561         67.8107 
        2.49124         35.5836         5.14265         67.3175 
        2.50349         35.0961         5.08082          66.811 
        2.51578         34.6984         5.01982         66.3628 
        2.52805         34.5799         4.95993         65.8518 
        2.54029         34.0512         4.90116         65.3531 
        2.55257          33.553         4.84318         64.8968 
        2.56487         33.2905         4.78602         64.4455 
        2.57716         32.8718         4.72986         64.0039 
        2.58942           32.48         4.67473         63.5129 
        2.60167         32.0228         4.62053          63.038 
        2.61395         31.7708         4.56711         62.5975 
        2.62624         31.5161         4.51446         62.1414 
        2.63849         31.2116         4.46281         61.7102 
        2.65073         30.8657         4.41202         61.2371 
        2.66302         30.5094         4.36184         60.8123 
         2.6753          30.137         4.31247         60.3891 
        2.68756         29.7072         4.26397         59.9334 
        2.69983         29.5203         4.21618         59.5412 
        2.71213         29.2325         4.16902         59.1396 
        2.72441         29.0083         4.12266            58.7 
        2.73665         28.7214         4.07713         58.2812 
         2.7489         28.5127          4.0323         57.8803 
        2.76118         28.0996         3.98802         57.4786 
        2.77349         27.9702         3.94429         57.0862 
        2.78576         27.7647         3.90139         56.6694 
        2.79802         27.3767         3.85915         56.2969 
        2.81031         27.1401         3.81744         55.9132 
        2.82259         26.9343         3.77636         55.5048 
        2.83483         26.6559         3.73605         55.1247 
         2.8471          26.347         3.69624         54.7572 
         2.8594         26.2325         3.65689         54.3961 
         2.8717         25.9387         3.61813         54.0174 
        2.88396         25.7591         3.58007          53.626 
        2.89619         25.5214         3.54263         53.2622 
        2.90847         25.3559         3.50559         52.9154 
        2.92072         25.2008         3.46913         52.5472 
        2.93299         25.0614         3.43318         52.1845 
        2.94526         24.8021          3.3977         51.8528 
        2.95753         24.6688         3.36274         51.5147 
        2.96982         24.6062         3.32821         51.1647 
        2.98209         24.3666         3.29423         50.8271 
        2.99436         24.1629          3.2607         50.4766 
        3.00666         24.1474         3.22758          50.145 
        3.01894         23.9421         3.19498         49.7914 
        3.03119         23.8421         3.16288         49.4685 
        3.04345         23.7312         3.13122         49.1627 
        3.05573         23.6779         3.09993         48.8399 
          3.068         23.5532          3.0691         48.5154 
        3.08026         23.4031         3.03872         48.1922 
        3.09254         23.3437          3.0087         47.8807 
        3.10483         23.3372         2.97907         47.5748 
         3.1171         23.2911         2.94989         47.2653 
        3.12933         23.2206         2.92118         46.9561 
        3.14159         23.0994         2.89278         46.6492 
