# k  (h/Mpc)    Pcb(k)  (Mpc/h)^3    Pcb_linear(k) (Mpc/h)^3    Pcb_NL(k) (Mpc/h)^3   ShotnoiseSubtracted = false
      0.0156606          2130.3         2131.53         2121.21 
      0.0273761         1852.35         1844.62         1839.89 
      0.0384619         1407.52         1390.28         1389.01 
      0.0498308         1104.28         1093.79         1093.38 
      0.0625568         931.752         929.721         928.456 
      0.0751274         804.445         789.965         787.443 
      0.0867833         639.365         636.042         635.756 
      0.0984825         516.856         503.363          505.07 
       0.111151         432.599         420.311         421.948 
       0.123864         388.551         378.792         379.957 
       0.135742         348.927         340.633         341.757 
        0.14762         296.415         291.262         294.008 
       0.160083          246.23         242.785          245.95 
       0.172465         216.622         211.907         215.683 
       0.184281         200.779         195.354          199.35 
       0.196406         183.206          180.41         183.452 
       0.209011         164.777         160.519             164 
       0.221538         146.024         140.279         145.165 
       0.233611         131.341         125.514         130.935 
       0.245665         123.204         115.845         120.657 
       0.258103         111.056         107.842         112.629 
       0.270422         104.209         99.0941         103.725 
       0.282519         94.5256         89.9336          94.904 
       0.294636         89.5164         81.9396         87.1799 
       0.306978         79.4213          75.808         81.2151 
       0.319417         75.6607         70.8762         76.1117 
        0.33169         70.3106         66.1554         71.2123 
       0.343948         66.5524         61.2968          66.408 
       0.356249         60.9681         56.7404         62.3967 
       0.368458         58.0138          52.924         58.0898 
        0.38068         54.2678         49.7324         54.8606 
       0.392856         50.8093          46.819         51.9946 
       0.405069         48.0275         43.9702         48.9592 
       0.417459         44.7481         41.2118         46.2872 
       0.429752         42.7824         38.7357         43.7968 
       0.441978         40.6898         36.5624          41.835 
       0.454294           37.89         34.5889         39.5844 
        0.46658         37.3575         32.7372         37.6887 
       0.478753         34.7718         30.9903         35.9498 
       0.490964         33.5205         29.3495         34.4318 
       0.503334          32.074         27.8349         32.7347 
       0.515665          30.352         26.4538         31.5533 
       0.527909         29.0423         25.1789          29.903 
       0.540159         27.7366         23.9727         28.6847 
        0.55248         25.9246         22.8282         27.4295 
       0.564743         25.5532         21.7684         26.4932 
        0.57686         24.6293         20.7944         25.4315 
       0.589077         23.1551         19.8749          24.569 
       0.601441         22.2822         19.0007         23.6309 
        0.61382         21.4648         18.1763         22.6653 
       0.626067         20.5928         17.4071         21.9087 
       0.638306         19.8708         16.6827         21.0802 
       0.650632         19.3344         15.9964         20.3979 
       0.662899         18.4264         15.3533         19.6537 
       0.675076         17.5613         14.7506         18.9954 
       0.687267         17.2268         14.1795         18.3349 
       0.699615         16.6588         13.6315         17.7766 
       0.711937         15.7878         13.1134         17.2076 
       0.724148         15.6696         12.6267         16.7139 
       0.736433          14.768         12.1622         16.1543 
       0.748747         14.4345         11.7204          15.704 
       0.761037         14.0832         11.3017         15.2539 
       0.773197         13.5148         10.9077          14.841 
       0.785376         13.0282         10.5321          14.413 
       0.797761         12.6887         10.1683         13.9898 
       0.810096         12.3638         9.82317         13.6544 
       0.822371         12.0307         9.49574         13.2305 
       0.834626         11.6349         9.18383         12.9104 
       0.846916         11.2476         8.88519         12.5687 
       0.859215         10.8292         8.59973         12.2589 
       0.871383         10.5916         8.32972         11.9731 
        0.88363         10.3158         8.06976         11.6622 
       0.895928         10.1064         7.81996         11.3547 
       0.908253         9.81693         7.58031         11.0966 
       0.920535         9.49719         7.35157         10.8174 
       0.932774         9.32908          7.1331          10.523 
        0.94508         9.01058         6.92246         10.3204 
       0.957324         8.81821         6.72139         10.1092 
        0.96953         8.50624         6.52896         9.86868 
       0.981769         8.39279         6.34362         9.63548 
       0.994071         8.19223         6.16462         9.43245 
         1.0064         7.90904         5.99226         9.23463 
        1.01868         7.73781         5.82702         9.03746 
        1.03092         7.59062         5.66877          8.8345 
         1.0432         7.30972         5.51586         8.65251 
        1.05553         7.18842         5.36802         8.49855 
        1.06777         6.97105          5.2267         8.31984 
           1.08         6.85159         5.09062         8.15244 
        1.09227         6.69004         4.95898         7.98795 
         1.1046         6.54047         4.83151          7.8223 
         1.1169         6.32858         4.70877         7.67605 
        1.12915         6.30621         4.59092         7.55885 
        1.14142          6.0675         4.47687         7.39216 
        1.15365         5.96679         4.36705         7.25851 
        1.16585         5.88303         4.26122         7.14333 
        1.17807          5.7265         4.15878         6.99254 
        1.19037         5.58625         4.05904         6.87138 
        1.20276          5.4596         3.96191         6.74133 
        1.21504         5.35745         3.86874         6.63987 
        1.22728         5.22539         3.77897         6.50976 
        1.23954         5.13897         3.69183         6.42104 
        1.25184         5.02486         3.60729         6.30044 
        1.26414         4.95816         3.52537         6.18389 
        1.27632         4.80424         3.44673         6.09678 
         1.2886          4.7461         3.36994         5.99397 
        1.30093         4.64008         3.29524         5.91293 
        1.31316         4.51786         3.22334         5.80727 
        1.32541         4.45508         3.15359         5.72855 
        1.33772          4.3732         3.08551         5.62633 
        1.35005          4.2993         3.01941         5.54628 
        1.36225         4.21328         2.95592         5.45132 
        1.37447         4.13092         2.89414         5.38274 
        1.38676         4.04491         2.83385         5.29779 
        1.39907         3.96351         2.77518         5.22577 
        1.41133         3.90247         2.71842         5.14636 
        1.42358         3.83479         2.66332         5.06673 
        1.43591         3.77918         2.60936         5.00846 
        1.44818         3.68116          2.5572         4.93392 
        1.46037         3.61087         2.50678         4.86137 
        1.47263           3.557         2.45744         4.79831 
        1.48494         3.50669         2.40924         4.73072 
        1.49724         3.43705         2.36238         4.66457 
        1.50952         3.41879         2.31686         4.60414 
        1.52178          3.3294         2.27261         4.54641 
        1.53409         3.26108         2.22934         4.47573 
        1.54637         3.21648         2.18729         4.42067 
        1.55858         3.16535         2.14656         4.35459 
        1.57081         3.10693         2.10682         4.31362 
        1.58313         3.05201         2.06783         4.25376 
        1.59544         3.00536         2.02986         4.20551 
        1.60767         2.96699         1.99308         4.14825 
        1.61994         2.90587         1.95709         4.10251 
        1.63225         2.85921         1.92191         4.05058 
        1.64452         2.81335          1.8877         3.99802 
        1.65676         2.76225         1.85443         3.95258 
          1.669         2.73177         1.82194         3.90562 
        1.68133         2.66172         1.79002         3.86227 
        1.69363         2.65562         1.75895         3.81799 
        1.70585         2.61056         1.72883          3.7702 
        1.71809         2.57741         1.69935         3.72984 
        1.73038         2.53052         1.67047         3.68422 
        1.74268         2.48445         1.64224          3.6447 
        1.75493          2.4555         1.61479         3.60446 
        1.76714         2.42632         1.58804         3.55911 
        1.77942         2.38625         1.56176          3.5239 
        1.79173         2.35367         1.53601          3.4812 
        1.80402         2.31789          1.5109          3.4457 
         1.8163         2.29688         1.48636         3.41091 
         1.8286         2.25164         1.46232         3.37913 
         1.8409         2.21904         1.43884         3.34265 
        1.85315         2.19361         1.41595         3.29873 
        1.86537          2.1647         1.39361         3.27215 
        1.87765         2.13411         1.37166         3.23731 
        1.88995         2.09957         1.35014         3.20499 
        1.90221          2.0726         1.32915         3.17069 
        1.91445         2.04941         1.30864         3.14531 
        1.92674          2.0279          1.2885         3.10664 
        1.93902         1.98966         1.26878         3.07236 
        1.95124         1.96177         1.24957         3.04801 
         1.9635         1.94576         1.23072         3.01618 
        1.97583         1.90893         1.21213         2.98765 
        1.98812         1.88732           1.194         2.95985 
        2.00039         1.86309         1.17628         2.92914 
        2.01264         1.83354         1.15894         2.90811 
        2.02492         1.81694         1.14191         2.87978 
        2.03717         1.79817         1.12526         2.85004 
        2.04942         1.77041         1.10897         2.82235 
        2.06171         1.74555         1.09294         2.79531 
        2.07397         1.72656         1.07726         2.77176 
        2.08629         1.70959         1.06183         2.74998 
        2.09857          1.6869         1.04673         2.72314 
        2.11081         1.66529         1.03199          2.6978 
        2.12309         1.64979          1.0175         2.67688 
        2.13538         1.62396         1.00327         2.65207 
        2.14763          1.6155        0.989352         2.62818 
        2.15986         1.59387        0.975735         2.60832 
        2.17214         1.56491        0.962319         2.58014 
        2.18443         1.55574        0.949142         2.56092 
        2.19671         1.53772        0.936228         2.53989 
        2.20898         1.51831         0.92357          2.5193 
        2.22126         1.50246        0.911133         2.49853 
        2.23354         1.48468        0.898929         2.47703 
         2.2458         1.47415        0.886969         2.45405 
        2.25807         1.45093        0.875217         2.43489 
        2.27035         1.43631        0.863668         2.41706 
        2.28263         1.41543        0.852332         2.39763 
         2.2949         1.40759        0.841206         2.37841 
        2.30718         1.39168        0.830276         2.36033 
        2.31946         1.37167        0.819534         2.34107 
        2.33169         1.36117        0.809028         2.32283 
        2.34393         1.35382        0.798691          2.3054 
        2.35622         1.33254        0.788502         2.28738 
        2.36847         1.32207        0.778518         2.26848 
        2.38076          1.3023        0.768678         2.25082 
        2.39305         1.29205         0.75901         2.23193 
        2.40534         1.28076        0.749508         2.21772 
        2.41762         1.26453        0.740171         2.20086 
        2.42989         1.25369        0.731006         2.18553 
        2.44216          1.2444        0.721998          2.1684 
         2.4544         1.23356        0.713162         2.15398 
        2.46667         1.21713        0.704454         2.13778 
        2.47897         1.20783         0.69587          2.1203 
        2.49124         1.19341        0.687453         2.10624 
        2.50349         1.18377        0.679188         2.08985 
        2.51578         1.17331        0.671033         2.07312 
        2.52805         1.15855        0.663028         2.05991 
        2.54029         1.15241        0.655172         2.04507 
        2.55257          1.1383         0.64742         2.03049 
        2.56487         1.12813        0.639779         2.01739 
        2.57716         1.12307        0.632272         2.00223 
        2.58942         1.11457        0.624903         1.98889 
        2.60167         1.10421        0.617658         1.97469 
        2.61395         1.09107        0.610517         1.96258 
        2.62624         1.08414        0.603479         1.94859 
        2.63849         1.07535        0.596574         1.93485 
        2.65073         1.06613        0.589784         1.92176 
        2.66302         1.05759        0.583077         1.90891 
         2.6753           1.055        0.576477         1.89667 
        2.68756         1.04284        0.569993         1.88487 
        2.69983         1.03491        0.563605         1.87188 
        2.71213         1.02511        0.557301         1.86001 
        2.72441         1.01856        0.551105         1.84766 
        2.73665         1.01231        0.545017         1.83724 
         2.7489         1.00471        0.539026         1.82637 
        2.76118        0.996563        0.533105          1.8126 
        2.77349        0.992859         0.52726         1.80143 
        2.78576        0.987416        0.521526         1.79025 
        2.79802        0.980814        0.515879         1.77809 
        2.81031        0.972954        0.510304         1.76761 
        2.82259        0.966086        0.504812         1.75582 
        2.83483        0.962913        0.499423         1.74556 
         2.8471        0.957416        0.494101         1.73448 
         2.8594         0.95178        0.488841         1.72409 
         2.8717          0.9481         0.48366         1.71455 
        2.88396        0.940478        0.478573          1.7039 
        2.89619         0.93665        0.473568         1.69314 
        2.90847        0.931707        0.468615         1.68301 
        2.92072        0.929727        0.463742         1.67337 
        2.93299        0.924537        0.458936         1.66281 
        2.94526        0.923481        0.454194          1.6533 
        2.95753        0.918882         0.44952         1.64394 
        2.96982        0.915448        0.444904         1.63388 
        2.98209        0.912907        0.440362         1.62457 
        2.99436        0.910785         0.43588         1.61518 
        3.00666        0.909722        0.431452         1.60567 
        3.01894        0.906605        0.427095         1.59687 
        3.03119        0.904232        0.422804         1.58753 
        3.04345        0.901528        0.418572         1.57861 
        3.05573         0.90056        0.414389         1.57047 
          3.068        0.898604        0.410268         1.56158 
        3.08026        0.898495        0.406207         1.55241 
        3.09254        0.899032        0.402193         1.54363 
        3.10483        0.899081        0.398233         1.53549 
         3.1171         0.89976        0.394332         1.52718 
        3.12933        0.899279        0.390493          1.5184 
        3.14159        0.898673        0.386698         1.51015 
