# k  (h/Mpc)    Pcb(k)  (Mpc/h)^3    Pcb_linear(k) (Mpc/h)^3    Pcb_NL(k) (Mpc/h)^3   ShotnoiseSubtracted = false
      0.0156606         5733.47         5742.01         5711.03 
      0.0273761         4965.92         4967.27         4947.13 
      0.0384619         3772.86         3743.21         3731.52 
      0.0498308         2946.84         2944.69         2935.01 
      0.0625568         2486.52         2502.84         2492.46 
      0.0751274         2170.43         2126.55         2110.16 
      0.0867833         1709.71         1712.16         1708.93 
      0.0984825         1399.85         1354.99         1363.44 
       0.111151         1177.27         1131.41         1139.97 
       0.123864         1057.66         1019.64         1026.77 
       0.135742         952.831          916.92         924.234 
        0.14762         812.667         784.018         801.442 
       0.160083          674.93         653.527         673.364 
       0.172465         598.286         570.407         594.693 
       0.184281         553.962         525.849         551.549 
       0.196406         505.722         485.622         506.043 
       0.209011         459.781          432.08         454.654 
       0.221538         411.625         377.598         409.158 
       0.233611         375.192         337.853         373.121 
       0.245665         351.798         311.826         343.338 
       0.258103          320.95         290.284         321.667 
       0.270422         299.136         266.737         297.652 
       0.282519         272.312         242.079         274.654 
       0.294636         265.298         220.561          254.92 
       0.306978         234.192         204.056         239.741 
       0.319417          224.23         190.781         225.111 
        0.33169         209.245         178.074         211.227 
       0.343948         199.671         164.996         199.489 
       0.356249         184.931         152.731         189.264 
       0.368458         177.867         142.458         177.183 
        0.38068          168.25         133.867         168.186 
       0.392856         156.888         126.025         160.477 
       0.405069         149.437         118.357         152.765 
       0.417459         141.829         110.932         144.565 
       0.429752         136.307         104.267         138.186 
       0.441978         130.681         98.4167         133.123 
       0.454294         121.589         93.1045         126.251 
        0.46658         121.696         88.1202         121.496 
       0.478753          113.73         83.4181         116.778 
       0.490964         110.266         79.0013         112.192 
       0.503334          105.34         74.9245         107.946 
       0.515665         101.709          71.207         104.913 
       0.527909         98.0753         67.7751         99.8465 
       0.540159         94.6478         64.5284         96.7429 
        0.55248         90.2707         61.4476         93.1753 
       0.564743         88.1794         58.5949         90.4459 
        0.57686         85.4452         55.9731          87.387 
       0.589077         81.2654         53.4982         85.0075 
       0.601441         79.2217         51.1448         82.4669 
        0.61382         77.2301          48.926         79.6718 
       0.626067          74.026         46.8554         77.5646 
       0.638306         71.7827         44.9056         75.2944 
       0.650632         69.2868         43.0583         72.6623 
       0.662899         68.2782         41.3272         70.7359 
       0.675076         65.6146         39.7048         68.8882 
       0.687267         64.5221         38.1675         67.0459 
       0.699615         62.2768         36.6924         65.6302 
       0.711937         60.0109         35.2979          63.491 
       0.724148         59.6503         33.9877         62.4908 
       0.736433         56.6274         32.7375         60.6874 
       0.748747         55.8507         31.5484         59.2215 
       0.761037         54.3428         30.4212         57.8247 
       0.773197         53.1391         29.3607         56.8686 
       0.785376           51.44         28.3496         55.3883 
       0.797761         50.9236         27.3704         54.3632 
       0.810096         49.4445         26.4414         53.0582 
       0.822371          48.407           25.56         51.8525 
       0.834626         47.1412         24.7205         50.9918 
       0.846916         46.1172         23.9166         49.9095 
       0.859215          44.844         23.1482         48.8301 
       0.871383         44.2396         22.4214         47.9757 
        0.88363         43.0933         21.7217          47.194 
       0.895928         42.0976         21.0493          46.169 
       0.908253         41.2266         20.4042         45.4321 
       0.920535          40.703         19.7885          44.557 
       0.932774         39.9622         19.2004         43.7723 
        0.94508         39.2388         18.6335         42.8863 
       0.957324         38.3133         18.0922         42.2389 
        0.96953         37.8019         17.5743          41.435 
       0.981769         36.8348         17.0754         40.8698 
       0.994071         36.1954         16.5936         40.1881 
         1.0064         35.4112         16.1296         39.5223 
        1.01868         34.7145         15.6848         38.9416 
        1.03092         34.3908         15.2589         38.2861 
         1.0432         33.6364         14.8473         37.5838 
        1.05553         32.9356         14.4493         37.2757 
        1.06777         32.2385         14.0689         36.5577 
           1.08         31.5116         13.7026         35.9953 
        1.09227         31.1664         13.3483         35.5616 
         1.1046         30.7131         13.0052         34.9652 
         1.1169         30.2701         12.6748         34.4758 
        1.12915          29.822         12.3575         34.0181 
        1.14142         29.0737         12.0506         33.5343 
        1.15365         28.7626         11.7549         33.1063 
        1.16585         28.3568         11.4701         32.6511 
        1.17807         27.8052         11.1943         32.1183 
        1.19037         27.6143         10.9259         31.8629 
        1.20276         27.2043         10.6644         31.3938 
        1.21504         26.6467         10.4136         31.0621 
        1.22728         26.1894          10.172         30.6247 
        1.23954         25.8814         9.93745         30.1769 
        1.25184         25.3889         9.70988         29.8582 
        1.26414         25.0921         9.48937         29.4525 
        1.27632         24.7992         9.27769         29.1015 
         1.2886         24.5355         9.07101         28.7852 
        1.30093         23.9657         8.86992         28.4596 
        1.31316         23.6888         8.67639         28.1174 
        1.32541         23.4452         8.48863         27.8261 
        1.33772         23.0266         8.30539         27.5092 
        1.35005         22.7202         8.12746         27.2259 
        1.36225         22.4206         7.95656         26.9281 
        1.37447         21.9479         7.79027         26.5889 
        1.38676         21.8073         7.62797         26.3509 
        1.39907         21.4711         7.47005         26.0709 
        1.41133          21.118         7.31729         25.7603 
        1.42358         20.9002         7.16895         25.4874 
        1.43591          20.571         7.02372         25.2632 
        1.44818         20.3501         6.88331         24.9983 
        1.46037         20.1978         6.74759         24.7008 
        1.47263         19.8837         6.61479         24.5117 
        1.48494         19.6823         6.48505         24.2254 
        1.49724         19.5136         6.35891         24.0115 
        1.50952         19.1389         6.23639         23.8109 
        1.52178          18.927         6.11728         23.5348 
        1.53409         18.6371         6.00081         23.3213 
        1.54637         18.5478         5.88761         23.0625 
        1.55858         18.1752         5.77799         22.8732 
        1.57081         18.0386           5.671         22.6744 
        1.58313         17.8619         5.56606         22.4478 
        1.59544         17.5463         5.46385         22.2678 
        1.60767         17.3854         5.36485         22.0304 
        1.61994          17.097         5.26797           21.86 
        1.63225         17.0385         5.17329         21.7021 
        1.64452         16.7754          5.0812         21.5129 
        1.65676         16.5971         4.99164         21.2922 
          1.669         16.4531         4.90417         21.1175 
        1.68133         16.1455         4.81825         20.9281 
        1.69363          15.989         4.73464         20.6913 
        1.70585         15.8028         4.65356         20.5938 
        1.71809         15.6256         4.57421         20.4007 
        1.73038         15.4616         4.49646         20.2518 
        1.74268         15.3413         4.42047         20.0458 
        1.75493         15.0705         4.34659         19.8959 
        1.76714         15.0677         4.27459         19.7345 
        1.77942         14.8866         4.20386         19.5533 
        1.79173         14.5766         4.13455         19.4192 
        1.80402         14.4661         4.06694         19.2879 
         1.8163         14.3476         4.00089         19.1063 
         1.8286         14.1498         3.93619         18.9743 
         1.8409         14.0018         3.87298         18.8257 
        1.85315         13.8886         3.81137         18.6721 
        1.86537         13.7234         3.75122         18.5364 
        1.87765         13.6188         3.69215         18.3898 
        1.88995         13.4025         3.63421         18.2494 
        1.90221         13.3195         3.57772         18.0986 
        1.91445         13.1707         3.52252         17.9708 
        1.92674         13.0316          3.4683          17.834 
        1.93902         12.8883         3.41521         17.7291 
        1.95124         12.7184         3.36352         17.6191 
         1.9635         12.6041         3.31277         17.4539 
        1.97583         12.4865         3.26275         17.3056 
        1.98812         12.3817         3.21395         17.2022 
        2.00039         12.3044         3.16624         17.0802 
        2.01264         12.1706         3.11955         16.9718 
        2.02492         12.0464         3.07373         16.8253 
        2.03717          11.894         3.02891         16.7134 
        2.04942         11.7704         2.98505         16.5899 
        2.06171         11.7155          2.9419         16.4759 
        2.07397         11.5837          2.8997         16.3702 
        2.08629         11.4856         2.85816         16.2655 
        2.09857         11.3898         2.81752         16.1457 
        2.11081         11.2686         2.77785         16.0497 
        2.12309         11.1236         2.73884         15.9199 
        2.13538         11.0095         2.70053         15.8097 
        2.14763         10.9303         2.66308         15.7127 
        2.15986          10.895         2.62642         15.6248 
        2.17214         10.7674         2.59031         15.4972 
        2.18443         10.6234         2.55484          15.405 
        2.19671         10.5894         2.52008         15.2958 
        2.20898         10.4552         2.48601         15.2065 
        2.22126         10.3345         2.45253         15.1034 
        2.23354         10.2969         2.41968         14.9927 
         2.2458         10.1674         2.38749         14.9225 
        2.25807         10.0847         2.35585          14.798 
        2.27035         10.0106         2.32477         14.7112 
        2.28263         9.92759         2.29426         14.6121 
         2.2949         9.81934         2.26431         14.5296 
        2.30718         9.75166         2.23488         14.4519 
        2.31946         9.65572         2.20597         14.3519 
        2.33169         9.57472         2.17769         14.2646 
        2.34393         9.49723         2.14987         14.1723 
        2.35622         9.42317         2.12244          14.088 
        2.36847         9.34556         2.09557         13.9978 
        2.38076         9.27188         2.06908         13.9118 
        2.39305         9.15058         2.04306         13.8174 
        2.40534         9.10849         2.01748         13.7251 
        2.41762         9.04197         1.99235          13.664 
        2.42989         8.97976         1.96768          13.576 
        2.44216         8.89781         1.94343         13.4828 
         2.4544         8.82212         1.91964         13.4061 
        2.46667         8.78689          1.8962         13.3313 
        2.47897           8.714          1.8731         13.2381 
        2.49124         8.60888         1.85044         13.1631 
        2.50349         8.56253          1.8282         13.0892 
        2.51578         8.49424         1.80625         13.0203 
        2.52805         8.44209          1.7847         12.9439 
        2.54029         8.36394         1.76355         12.8703 
        2.55257         8.33786         1.74269         12.7896 
        2.56487         8.21874         1.72212         12.7073 
        2.57716         8.18354         1.70191          12.638 
        2.58942          8.1532         1.68207         12.5739 
        2.60167         8.09769         1.66257          12.501 
        2.61395         8.02712         1.64335         12.4273 
        2.62624         7.96898         1.62441         12.3565 
        2.63849         7.93342         1.60582         12.2927 
        2.65073          7.8799         1.58754         12.2139 
        2.66302          7.8162         1.56949         12.1432 
         2.6753         7.78437         1.55173         12.0734 
        2.68756         7.74431         1.53427         12.0182 
        2.69983          7.6782         1.51708         11.9375 
        2.71213         7.64117         1.50011         11.8685 
        2.72441         7.58063         1.48343         11.8067 
        2.73665         7.58311         1.46704         11.7343 
         2.7489         7.52823         1.45092         11.6684 
        2.76118         7.45565         1.43498         11.6147 
        2.77349         7.43157         1.41925         11.5481 
        2.78576         7.41054         1.40381         11.4856 
        2.79802         7.35846         1.38861         11.4197 
        2.81031         7.33635          1.3736          11.361 
        2.82259         7.28184         1.35882         11.2981 
        2.83483          7.2472         1.34431          11.235 
         2.8471         7.23368         1.32999         11.1796 
         2.8594         7.22207         1.31583         11.1201 
         2.8717         7.17274         1.30188         11.0525 
        2.88396         7.13617         1.28819         10.9958 
        2.89619         7.08734         1.27472         10.9434 
        2.90847         7.08202         1.26139         10.8785 
        2.92072         7.08846         1.24827         10.8175 
        2.93299          7.0437         1.23534         10.7679 
        2.94526         7.02918         1.22257         10.7096 
        2.95753         7.00269         1.20999         10.6502 
        2.96982         6.97515         1.19757         10.5948 
        2.98209          6.9668         1.18534         10.5337 
        2.99436         6.96711         1.17327         10.4797 
        3.00666         6.95767         1.16136         10.4293 
        3.01894         6.92115         1.14963         10.3756 
        3.03119         6.92243         1.13808         10.3189 
        3.04345          6.9133         1.12669         10.2632 
        3.05573         6.91458         1.11543         10.2109 
          3.068          6.9052         1.10433         10.1605 
        3.08026         6.92817          1.0934         10.1066 
        3.09254         6.91782          1.0826         10.0541 
        3.10483         6.89238         1.07194          10.007 
         3.1171         6.90834         1.06144         9.95697 
        3.12933         6.92604         1.05111         9.90226 
        3.14159         6.89766         1.04089         9.85413 
