# k  (h/Mpc)    Pcb(k)  (Mpc/h)^3    Pcb_linear(k) (Mpc/h)^3    Pcb_NL(k) (Mpc/h)^3   ShotnoiseSubtracted = false
      0.0156606         5933.16         5942.32         5910.26 
      0.0273761         5137.91         5140.45         5119.59 
      0.0384619         3903.36         3873.66         3861.56 
      0.0498308         3048.11         3047.29         3037.27 
      0.0625568         2571.97         2590.04         2579.29 
      0.0751274            2246         2200.63         2183.67 
      0.0867833         1768.57          1771.8         1768.46 
      0.0984825         1448.84         1402.18         1410.93 
       0.111151         1218.76         1170.82         1179.68 
       0.123864         1094.91         1055.16         1062.53 
       0.135742         986.547         948.855         956.424 
        0.14762         841.669         811.324         829.355 
       0.160083         699.072         676.288         696.816 
       0.172465         619.855         590.273         615.405 
       0.184281         573.834         544.163         570.758 
       0.196406         523.956         502.534         523.667 
       0.209011         476.596         447.128         470.489 
       0.221538         426.842         390.749         423.407 
       0.233611         389.349         349.619         386.116 
       0.245665         364.941         322.686         355.295 
       0.258103         333.325         300.393         332.869 
       0.270422         310.432         276.027         308.018 
       0.282519         282.679          250.51         284.219 
       0.294636         275.683         228.242         263.798 
       0.306978         243.403         211.163          248.09 
       0.319417         233.079         197.425         232.951 
        0.33169         217.575         184.275         218.584 
       0.343948         207.635         170.742         206.437 
       0.356249         192.408          158.05         195.855 
       0.368458         185.132         147.419         183.354 
        0.38068         175.205         138.529         174.043 
       0.392856         163.387         130.414         166.066 
       0.405069         155.693         122.478         158.085 
       0.417459         147.841         114.795         149.599 
       0.429752         142.106         107.898         142.999 
       0.441978         136.306         101.844         137.759 
       0.454294          126.83         96.3469         130.648 
        0.46658         126.965         91.1891         125.727 
       0.478753         118.731         86.3231         120.845 
       0.490964         115.117         81.7526         116.099 
       0.503334         109.918         77.5338         111.705 
       0.515665         106.239         73.6868         108.567 
       0.527909         102.502         70.1355         103.324 
       0.540159         98.9335         66.7756         100.112 
        0.55248         94.5134         63.5875         96.4202 
       0.564743         92.2512         60.6355         93.5957 
        0.57686         89.3904         57.9224         90.4303 
       0.589077         85.0665         55.3613          87.968 
       0.601441         82.9594          52.926         85.3389 
        0.61382         80.9412         50.6298         82.4464 
       0.626067         77.5902         48.4872         80.2659 
       0.638306         75.2205         46.4695         77.9166 
       0.650632          72.583         44.5578         75.1928 
       0.662899         71.6342         42.7664         73.1993 
       0.675076         68.8703         41.0875         71.2872 
       0.687267         67.6811         39.4967         69.3808 
       0.699615         65.3456         37.9702         67.9158 
       0.711937         63.0194         36.5271         65.7021 
       0.724148         62.6243         35.1713         64.6671 
       0.736433          59.507         33.8776         62.8009 
       0.748747          58.669         32.6471         61.2839 
       0.761037         57.1048         31.4806         59.8385 
       0.773197         55.8478         30.3832         58.8491 
       0.785376         54.1073         29.3369         57.3172 
       0.797761          53.582         28.3236         56.2564 
       0.810096         51.9817         27.3623          54.906 
       0.822371         50.9163         26.4502         53.6583 
       0.834626         49.6023         25.5814         52.7677 
       0.846916         48.5555         24.7495         51.6476 
       0.859215         47.2456         23.9544         50.5306 
       0.871383         46.6143         23.2023         49.6465 
        0.88363         45.3956         22.4781         48.8375 
       0.895928         44.3512         21.7823         47.7768 
       0.908253         43.4191         21.1148         47.0143 
       0.920535         42.9164         20.4776         46.1087 
       0.932774         42.1247         19.8691         45.2967 
        0.94508         41.3878         19.2824         44.3798 
       0.957324         40.3909         18.7223         43.7099 
        0.96953         39.9196         18.1863          42.878 
       0.981769         38.8478           17.67         42.2931 
       0.994071         38.2092         17.1714         41.5877 
         1.0064         37.3834         16.6913         40.8987 
        1.01868         36.6561          16.231         40.2978 
        1.03092         36.2942         15.7902         39.6194 
         1.0432         35.5323         15.3643         38.8927 
        1.05553         34.7731         14.9525         38.5739 
        1.06777         34.0798         14.5589         37.8309 
           1.08         33.2996         14.1798         37.2488 
        1.09227         32.9438         13.8131         36.8001 
         1.1046         32.4649         13.4581         36.1829 
         1.1169          32.011         13.1162         35.6764 
        1.12915         31.5133         12.7879         35.2027 
        1.14142         30.7577         12.4702         34.7022 
        1.15365         30.4131         12.1643         34.2593 
        1.16585         29.9751         11.8695         33.7882 
        1.17807         29.4135         11.5842         33.2369 
        1.19037          29.226         11.3064         32.9725 
        1.20276         28.7872         11.0358         32.4871 
        1.21504         28.2043         10.7763         32.1438 
        1.22728          27.727         10.5262         31.6912 
        1.23954         27.4047         10.2835         31.2278 
        1.25184         26.8857          10.048          30.898 
        1.26414         26.5676         9.81984         30.4782 
        1.27632         26.2738         9.60079          30.115 
         1.2886         25.9936         9.38691         29.7876 
        1.30093         25.4022         9.17881         29.4507 
        1.31316         25.0985         8.97855         29.0966 
        1.32541         24.8505         8.78424         28.7951 
        1.33772         24.4037         8.59463         28.4672 
        1.35005         24.0804          8.4105          28.174 
        1.36225         23.7589         8.23365         27.8658 
        1.37447         23.2512         8.06156         27.5149 
        1.38676         23.1345         7.89362         27.2686 
        1.39907         22.7713         7.73019         26.9788 
        1.41133         22.3865         7.57211         26.6574 
        1.42358         22.1612         7.41861          26.375 
        1.43591         21.8144         7.26832          26.143 
        1.44818         21.5904         7.12303         25.8688 
        1.46037         21.4129         6.98258          25.561 
        1.47263         21.1035         6.84515         25.3654 
        1.48494         20.8696          6.7109          25.069 
        1.49724         20.7191         6.58036         24.8477 
        1.50952         20.3087         6.45357         24.6401 
        1.52178         20.0839         6.33031         24.3544 
        1.53409         19.7948         6.20979         24.1335 
        1.54637         19.6767         6.09265         23.8657 
        1.55858          19.271         5.97921         23.6697 
        1.57081         19.1638          5.8685          23.464 
        1.58313         18.9655         5.75991         23.2296 
        1.59544         18.6267         5.65413         23.0433 
        1.60767         18.4538         5.55169         22.7976 
        1.61994         18.1562         5.45143         22.6213 
        1.63225         18.0964         5.35345         22.4579 
        1.64452         17.8073         5.25815         22.2621 
        1.65676          17.627         5.16547         22.0337 
          1.669         17.4729         5.07496          21.853 
        1.68133         17.1506         4.98605          21.657 
        1.69363         16.9861         4.89953         21.4118 
        1.70585         16.7908         4.81562          21.311 
        1.71809         16.5925         4.73351         21.1111 
        1.73038         16.4262         4.65305         20.9571 
        1.74268         16.2977         4.57442         20.7439 
        1.75493         16.0133         4.49797         20.5887 
        1.76714         16.0029         4.42346         20.4218 
        1.77942         15.8133         4.35026         20.2343 
        1.79173         15.4813         4.27854         20.0954 
        1.80402         15.3569         4.20858         19.9596 
         1.8163         15.2471         4.14022         19.7717 
         1.8286         15.0333         4.07327         19.6351 
         1.8409         14.8734         4.00786         19.4813 
        1.85315         14.7565          3.9441         19.3224 
        1.86537         14.5712         3.88186         19.1819 
        1.87765         14.4637         3.82073         19.0303 
        1.88995         14.2408         3.76077         18.8849 
        1.90221         14.1458         3.70231         18.7289 
        1.91445         13.9909         3.64519         18.5967 
        1.92674         13.8433         3.58908         18.4551 
        1.93902         13.6879         3.53415         18.3466 
        1.95124         13.5041         3.48066         18.2327 
         1.9635         13.3857         3.42814         18.0617 
        1.97583          13.259         3.37637         17.9083 
        1.98812         13.1421         3.32587         17.8013 
        2.00039         13.0616         3.27651          17.675 
        2.01264         12.9193         3.22819         17.5629 
        2.02492         12.7828         3.18078         17.4113 
        2.03717         12.6292          3.1344         17.2954 
        2.04942         12.4988           3.089         17.1676 
        2.06171         12.4314         3.04435         17.0497 
        2.07397          12.298         3.00069         16.9403 
        2.08629         12.1926         2.95769          16.832 
        2.09857         12.0906         2.91564          16.708 
        2.11081          11.956         2.87459         16.6086 
        2.12309         11.8054         2.83422         16.4743 
        2.13538         11.6824         2.79457         16.3603 
        2.14763         11.5973         2.75582         16.2599 
        2.15986         11.5641         2.71789          16.169 
        2.17214         11.4228         2.68052         16.0369 
        2.18443         11.2715         2.64381         15.9415 
        2.19671         11.2281         2.60784         15.8285 
        2.20898         11.0924         2.57258         15.7361 
        2.22126         10.9677         2.53794         15.6294 
        2.23354         10.9278         2.50395         15.5148 
         2.2458         10.7878         2.47063         15.4421 
        2.25807         10.6972          2.4379         15.3134 
        2.27035         10.6188         2.40573         15.2235 
        2.28263         10.5289         2.37415          15.121 
         2.2949         10.4221         2.34316         15.0356 
        2.30718         10.3483         2.31271         14.9552 
        2.31946         10.2395         2.28279         14.8517 
        2.33169          10.154         2.25353         14.7614 
        2.34393         10.0707         2.22474         14.6658 
        2.35622         9.98456         2.19635         14.5787 
        2.36847         9.90786         2.16855         14.4853 
        2.38076         9.82487         2.14114         14.3963 
        2.39305          9.6996         2.11421         14.2986 
        2.40534         9.65459         2.08774         14.2031 
        2.41762         9.58135         2.06173         14.1399 
        2.42989         9.51476          2.0362         14.0488 
        2.44216         9.42836         2.01111         13.9523 
         2.4544         9.35027          1.9865          13.873 
        2.46667         9.30247         1.96224         13.7956 
        2.47897         9.22377         1.93833         13.6992 
        2.49124         9.11797         1.91489         13.6215 
        2.50349         9.06576         1.89186         13.5451 
        2.51578         8.99409         1.86915         13.4738 
        2.52805         8.93666         1.84685         13.3947 
        2.54029         8.85828         1.82497         13.3185 
        2.55257         8.82638         1.80338          13.235 
        2.56487         8.69401         1.78209         13.1499 
        2.57716         8.65906         1.76118         13.0781 
        2.58942         8.62314         1.74065         13.0118 
        2.60167         8.56688         1.72047         12.9364 
        2.61395         8.49604         1.70058         12.8601 
        2.62624         8.42687         1.68098         12.7868 
        2.63849         8.38327         1.66174         12.7208 
        2.65073         8.33081         1.64283         12.6393 
        2.66302         8.26513         1.62415          12.566 
         2.6753         8.23142         1.60576         12.4939 
        2.68756         8.18715          1.5877         12.4367 
        2.69983         8.11372         1.56991         12.3532 
        2.71213         8.07615         1.55235         12.2818 
        2.72441         8.01133         1.53509         12.2179 
        2.73665         8.01536         1.51813         12.1429 
         2.7489         7.95026         1.50144         12.0747 
        2.76118         7.87296         1.48495         12.0192 
        2.77349         7.84963         1.46867         11.9503 
        2.78576         7.82418          1.4527         11.8856 
        2.79802          7.7721         1.43697         11.8174 
        2.81031         7.74513         1.42144         11.7566 
        2.82259         7.69077         1.40614         11.6915 
        2.83483         7.64896         1.39113         11.6262 
         2.8471         7.63227         1.37631          11.569 
         2.8594         7.61781         1.36166         11.5074 
         2.8717         7.56896         1.34722         11.4374 
        2.88396         7.53054         1.33305         11.3787 
        2.89619           7.478         1.31911         11.3245 
        2.90847         7.46892         1.30532         11.2574 
        2.92072         7.47458         1.29174         11.1942 
        2.93299         7.42477         1.27836         11.1429 
        2.94526         7.41164         1.26515         11.0826 
        2.95753         7.38337         1.25213         11.0211 
        2.96982          7.3529         1.23927         10.9638 
        2.98209         7.34298         1.22662         10.9005 
        2.99436         7.34199         1.21413         10.8446 
        3.00666         7.32631          1.2018         10.7925 
        3.01894         7.29407         1.18966         10.7369 
        3.03119         7.29479         1.17771         10.6783 
        3.04345         7.27812         1.16592         10.6206 
        3.05573           7.285         1.15427         10.5665 
          3.068         7.27047         1.14279         10.5144 
        3.08026         7.29405         1.13148         10.4586 
        3.09254         7.28193          1.1203         10.4042 
        3.10483         7.25961         1.10927         10.3555 
         3.1171          7.2735          1.0984         10.3037 
        3.12933         7.29369         1.08771         10.2471 
        3.14159         7.26018         1.07714         10.1973 
