# k  (h/Mpc)    Pcb(k)  (Mpc/h)^3    Pcb_linear(k) (Mpc/h)^3    Pcb_NL(k) (Mpc/h)^3   ShotnoiseSubtracted = false
      0.0156606         4126.57         4130.95         4109.66 
      0.0273761         3579.66         3574.05         3561.98 
      0.0384619         2720.13         2693.47         2687.73 
      0.0498308         2128.32         2118.95         2114.79 
      0.0625568         1795.74         1801.04          1795.9 
      0.0751274         1561.03         1530.28         1521.67 
      0.0867833         1233.79         1232.09         1230.67 
      0.0984825         1005.14         975.068         980.061 
       0.111151          843.54         814.182         819.138 
       0.123864         757.842         733.753          737.76 
       0.135742          681.79         659.834         663.905 
        0.14762         580.178         564.196         573.762 
       0.160083         481.642         470.293         481.144 
       0.172465         425.784         410.478         423.639 
       0.184281         394.633         378.414         392.396 
       0.196406         359.908         349.465         360.398 
       0.209011         325.766         310.936         323.182 
       0.221538         290.557         271.729         288.847 
       0.233611         263.221         243.128         262.201 
       0.245665         247.285         224.398           241.4 
       0.258103         223.782         208.895         225.835 
       0.270422         209.641         191.951         208.521 
       0.282519         190.436         174.206         191.763 
       0.294636         183.641         158.722         177.246 
       0.306978         162.081         146.844         166.042 
       0.319417         154.957         137.291         155.806 
        0.33169         144.253         128.146         146.038 
       0.343948         137.417         118.735          137.15 
       0.356249         126.653         109.909           129.7 
       0.368458         121.358         102.517         121.082 
        0.38068         114.286         96.3342         114.707 
       0.392856         106.616         90.6908         109.186 
       0.405069         101.151         85.1725         103.398 
       0.417459         95.4526         79.8294          97.872 
       0.429752         91.5947          75.033         93.1806 
       0.441978          87.469         70.8233         89.5095 
       0.454294         81.3549         67.0005         84.7735 
        0.46658         81.1577         63.4137         81.2263 
       0.478753         75.5378         60.0299         77.8831 
       0.490964         73.1486         56.8515         74.7564 
       0.503334         70.0905         53.9177         71.5646 
       0.515665         67.0885         51.2424          69.383 
       0.527909         64.3693         48.7728          65.811 
       0.540159         61.9743         46.4364         63.5617 
        0.55248         58.3489         44.2193         61.0572 
       0.564743         57.3628         42.1665         59.1307 
        0.57686         55.5602         40.2798         57.0344 
       0.589077         52.5621         38.4987         55.3227 
       0.601441         50.9985         36.8052         53.4845 
        0.61382         49.4074         35.2085         51.5118 
       0.626067         47.3761         33.7184         50.0739 
       0.638306         45.9418         32.3153         48.3894 
       0.650632         44.5153         30.9859          46.782 
       0.662899         43.1976         29.7401         45.3376 
       0.675076          41.341         28.5726          44.028 
       0.687267         40.8206         27.4664         42.7326 
       0.699615         39.3546         26.4048         41.7156 
       0.711937         37.6144         25.4013         40.3008 
       0.724148         37.4407         24.4585         39.4953 
       0.736433         35.3303         23.5588         38.3075 
       0.748747           34.86         22.7031         37.2965 
       0.761037         33.9003         21.8919          36.411 
       0.773197         33.0113         21.1288         35.6026 
       0.785376         31.7677         20.4011         34.6826 
       0.797761         31.2877         19.6965         33.9112 
       0.810096         30.5624          19.028         33.0732 
       0.822371         29.7828         18.3937         32.2127 
       0.834626         28.9066         17.7895         31.6314 
       0.846916         28.1459          17.211         30.8619 
       0.859215         27.2097         16.6581         30.1755 
       0.871383           26.81         16.1351         29.6028 
        0.88363         26.1302         15.6315         29.0126 
       0.895928          25.563         15.1476         28.3019 
       0.908253           25.02         14.6834         27.8277 
       0.920535          24.444         14.2403         27.2228 
       0.932774         24.0449         13.8172         26.6532 
        0.94508         23.4316         13.4091         26.1198 
       0.957324         22.9779         13.0197         25.6534 
        0.96953         22.3456         12.6469         25.1299 
       0.981769         22.0622         12.2879         24.7278 
       0.994071         21.4814         11.9412         24.2371 
         1.0064         20.9661         11.6073         23.8212 
        1.01868         20.5432         11.2872         23.4239 
        1.03092          20.364         10.9807         22.9805 
         1.0432          19.721         10.6845         22.5369 
        1.05553         19.3885         10.3981         22.2872 
        1.06777         18.8448         10.1244         21.7987 
           1.08         18.4892         9.86078         21.4617 
        1.09227         18.1894         9.60578         21.1647 
         1.1046         17.9221         9.35887         20.7652 
         1.1169         17.5311         9.12112         20.4371 
        1.12915         17.3998         8.89283         20.1538 
        1.14142         16.7944         8.67191         19.8145 
        1.15365         16.6747         8.45918          19.519 
        1.16585         16.4687         8.25418         19.2617 
        1.17807         16.0092         8.05575          18.899 
        1.19037         15.8388         7.86256         18.7055 
        1.20276          15.558         7.67442         18.3988 
        1.21504         15.2992         7.49395         18.1727 
        1.22728         14.9467         7.32004         17.8893 
        1.23954          14.749         7.15126         17.6382 
        1.25184         14.4787          6.9875         17.4096 
        1.26414          14.283         6.82881         17.1433 
        1.27632          14.014         6.67648         16.9127 
         1.2886         13.8646         6.52775         16.7079 
        1.30093          13.548         6.38303         16.5384 
        1.31316         13.3742         6.24377         16.2751 
        1.32541         13.1863         6.10865          16.116 
        1.33772         12.9399         5.97679         15.8869 
        1.35005         12.7871         5.84874          15.708 
        1.36225         12.5812         5.72576         15.4922 
        1.37447         12.3517         5.60609          15.305 
        1.38676         12.1795          5.4893         15.1373 
        1.39907         11.9771         5.37565         14.9486 
        1.41133         11.8116         5.26572         14.7762 
        1.42358         11.6251         5.15897         14.5864 
        1.43591         11.4774         5.05446          14.456 
        1.44818         11.2731         4.95342          14.291 
        1.46037         11.1885         4.85575         14.0997 
        1.47263          10.981         4.76018         13.9791 
        1.48494         10.8944         4.66682         13.7824 
        1.49724         10.6881         4.57605         13.6667 
        1.50952         10.6067         4.48788         13.5235 
        1.52178         10.4221         4.40216         13.3591 
        1.53409         10.2286         4.31834         13.2188 
        1.54637         10.1823         4.23689         13.0529 
        1.55858         10.0525           4.158         12.9386 
        1.57081         9.82986         4.08101         12.8203 
        1.58313         9.77002         4.00549         12.6874 
        1.59544         9.58467         3.93193         12.5686 
        1.60767          9.4887          3.8607         12.4279 
        1.61994         9.33638         3.79098         12.3199 
        1.63225         9.25353         3.72284         12.2056 
        1.64452         9.12702         3.65657          12.092 
        1.65676         9.00061         3.59212         11.9649 
          1.669         8.93335         3.52918         11.8437 
        1.68133         8.74867         3.46735         11.7297 
        1.69363         8.65305         3.40718         11.6184 
        1.70585         8.54678         3.34883         11.5271 
        1.71809         8.45291         3.29173         11.4187 
        1.73038         8.37624         3.23578         11.3246 
        1.74268         8.26784         3.18109         11.2162 
        1.75493         8.13403         3.12793         11.0985 
        1.76714         8.12504         3.07612         11.0185 
        1.77942         8.00532         3.02521         10.9033 
        1.79173          7.8695         2.97533         10.8182 
        1.80402         7.82449         2.92668         10.7271 
         1.8163         7.72296         2.87915         10.6414 
         1.8286          7.6012         2.83259          10.551 
         1.8409         7.52939          2.7871         10.4672 
        1.85315         7.44046         2.74277         10.3674 
        1.86537         7.38339         2.69948         10.2871 
        1.87765         7.30275         2.65697         10.2018 
        1.88995         7.16908         2.61528          10.124 
        1.90221         7.14054         2.57462         10.0249 
        1.91445         7.04259          2.5349         9.96687 
        1.92674         6.97036         2.49588         9.87146 
        1.93902         6.91752         2.45768         9.80629 
        1.95124         6.82354         2.42048         9.71431 
         1.9635         6.76238         2.38396         9.64915 
        1.97583         6.70598         2.34796         9.56287 
        1.98812         6.63309         2.31284         9.47771 
        2.00039         6.55524         2.27851         9.42775 
        2.01264         6.49834         2.24491         9.35577 
        2.02492         6.43865         2.21194         9.27588 
        2.03717         6.35687         2.17969         9.20851 
        2.04942         6.27154         2.14812         9.14604 
        2.06171         6.24796         2.11707         9.07876 
        2.07397         6.17324          2.0867         9.01248 
        2.08629         6.10939         2.05681         8.95035 
        2.09857         6.04689         2.02757         8.88061 
        2.11081          6.0047         1.99901         8.82904 
        2.12309         5.92908         1.97094         8.74634 
        2.13538         5.87896         1.94337         8.69631 
        2.14763         5.81268         1.91642         8.63453 
        2.15986         5.77745         1.89005         8.57485 
        2.17214         5.72282         1.86406         8.50418 
        2.18443         5.66292         1.83853          8.4534 
        2.19671         5.61431         1.81352         8.39718 
        2.20898         5.54727           1.789         8.34042 
        2.22126         5.50493         1.76491          8.2791 
        2.23354         5.46265         1.74127         8.21737 
         2.2458         5.40353          1.7181         8.16547 
        2.25807         5.36585         1.69534         8.11157 
        2.27035         5.31638         1.67297         8.06105 
        2.28263         5.27714         1.65101         8.00482 
         2.2949         5.22498         1.62946         7.95781 
        2.30718         5.18028         1.60828         7.91617 
        2.31946         5.14847         1.58748         7.86172 
        2.33169         5.09237         1.56713         7.80703 
        2.34393         5.06883          1.5471         7.75574 
        2.35622         5.02893         1.52737         7.70612 
        2.36847         4.98317         1.50803         7.65718 
        2.38076         4.94609         1.48897         7.60914 
        2.39305         4.88833         1.47024         7.55408 
        2.40534         4.86193         1.45183         7.50677 
        2.41762         4.81013         1.43375         7.47027 
        2.42989         4.79305         1.41599          7.4267 
        2.44216         4.76305         1.39854         7.37769 
         2.4544         4.70806         1.38143         7.32981 
        2.46667         4.69576         1.36456         7.28642 
        2.47897         4.64925         1.34793         7.23795 
        2.49124         4.60441         1.33163         7.19469 
        2.50349         4.58706         1.31562         7.16071 
        2.51578         4.53237         1.29982         7.11729 
        2.52805         4.51361         1.28432         7.07406 
        2.54029         4.48038          1.2691         7.03286 
        2.55257         4.46904         1.25408         6.99436 
        2.56487         4.42282         1.23928         6.94541 
        2.57716         4.39964         1.22474         6.90816 
        2.58942         4.36426         1.21047           6.869 
        2.60167          4.3399         1.19643         6.82725 
        2.61395         4.29235          1.1826         6.79107 
        2.62624         4.29862         1.16897         6.75394 
        2.63849         4.26614         1.15559         6.71275 
        2.65073         4.23232         1.14244          6.6717 
        2.66302         4.21627         1.12945         6.63389 
         2.6753         4.18354         1.11666         6.59791 
        2.68756         4.15791          1.1041         6.56558 
        2.69983         4.13951         1.09173         6.52337 
        2.71213         4.11536         1.07952         6.48725 
        2.72441         4.09216         1.06752         6.45337 
        2.73665           4.077         1.05573         6.41505 
         2.7489         4.04783         1.04412         6.38338 
        2.76118         4.02267         1.03265         6.35584 
        2.77349         4.01712         1.02133         6.31397 
        2.78576         3.99714         1.01022         6.28021 
        2.79802         3.98312        0.999283          6.2487 
        2.81031         3.95538        0.988483         6.21653 
        2.82259         3.94135        0.977846         6.18328 
        2.83483         3.93693        0.967406         6.14971 
         2.8471         3.91746        0.957098         6.11837 
         2.8594         3.90601        0.946909         6.08773 
         2.8717         3.88043        0.936872         6.05152 
        2.88396         3.87728        0.927018         6.02035 
        2.89619         3.84477        0.917323         5.99301 
        2.90847         3.84274        0.907731         5.95701 
        2.92072         3.84482        0.898291         5.92704 
        2.93299         3.83793        0.888982          5.8987 
        2.94526         3.83039        0.879796         5.86678 
        2.95753         3.81229        0.870742         5.83628 
        2.96982         3.79054        0.861801           5.808 
        2.98209         3.79437        0.853003         5.77689 
        2.99436         3.78728         0.84432         5.74775 
        3.00666         3.79525        0.835744         5.72087 
        3.01894         3.78499        0.827304         5.68696 
        3.03119         3.78555        0.818992         5.66037 
        3.04345         3.77474        0.810794          5.6342 
        3.05573         3.77798        0.802691         5.60359 
          3.068          3.7653        0.794708         5.57891 
        3.08026         3.78151        0.786842         5.55238 
        3.09254         3.78278        0.779068         5.52347 
        3.10483         3.78561        0.771397         5.49808 
         3.1171         3.79146         0.76384         5.47279 
        3.12933         3.80241        0.756405         5.44304 
        3.14159          3.7943        0.749052           5.415 
