# k  (h/Mpc)    Pcb(k)  (Mpc/h)^3    Pcb_linear(k) (Mpc/h)^3    Pcb_NL(k) (Mpc/h)^3   ShotnoiseSubtracted = false
      0.0156606         18849.6         18940.7         18800.2 
      0.0273761         16180.5         16376.4         16218.5 
      0.0384619         12247.1         12337.8         12201.1 
      0.0498308         9471.77         9704.42         9568.15 
      0.0625568         7999.99         8247.51         8125.02 
      0.0751274         7109.21         7007.11         6833.91 
      0.0867833         5516.66         5641.48         5589.15 
      0.0984825         4641.46          4464.5          4515.3 
       0.111151         3960.02         3727.77         3788.58 
       0.123864         3549.44         3359.46         3409.04 
       0.135742         3229.49         3020.99         3071.03 
        0.14762         2804.16         2583.09         2715.99 
       0.160083         2369.76         2153.15          2315.2 
       0.172465         2113.73         1879.29         2085.04 
       0.184281         1922.83         1732.48          1940.3 
       0.196406         1801.64         1599.94         1784.36 
       0.209011         1679.06         1423.54         1615.47 
       0.221538         1513.57         1244.04         1502.73 
       0.233611         1441.74         1113.09         1403.92 
       0.245665          1310.9         1027.34         1294.85 
       0.258103         1286.19         956.364         1221.41 
       0.270422         1149.59         878.787         1145.29 
       0.282519         1079.86         797.549         1080.02 
       0.294636         1065.01         726.655         1020.97 
       0.306978          966.67         672.278         976.558 
       0.319417         942.803         628.541         920.145 
        0.33169         887.512         586.675         869.787 
       0.343948         849.068         543.589         841.726 
       0.356249         801.937         503.181         809.245 
       0.368458         774.027         469.336         770.656 
        0.38068         756.145         441.032         739.972 
       0.392856         715.933         415.196         712.783 
       0.405069         681.819         389.932          690.61 
       0.417459         655.272          365.47         662.955 
       0.429752         646.181         343.512         639.533 
       0.441978         623.904         324.239         622.492 
       0.454294         594.156         306.737          596.44 
        0.46658         578.701         290.316         583.407 
       0.478753         565.283         274.825           564.9 
       0.490964         543.518         260.274         547.155 
       0.503334         517.578         246.842         534.012 
       0.515665         516.402         234.595         522.353 
       0.527909         495.975         223.288         509.795 
       0.540159         483.319         212.592         496.088 
        0.55248         473.784         202.442         482.957 
       0.564743         469.434         193.043         474.535 
        0.57686         451.862         184.406         461.472 
       0.589077         440.009         176.252         451.142 
       0.601441         433.148         168.499         441.714 
        0.61382          422.66         161.189         433.891 
       0.626067         417.067         154.367           425.1 
       0.638306         400.779         147.943         416.817 
       0.650632         396.046         141.857          405.81 
       0.662899         392.471         136.154         401.059 
       0.675076         377.893         130.809          394.55 
       0.687267         368.074         125.744          385.15 
       0.699615         364.242         120.884         378.967 
       0.711937         358.474          116.29         372.095 
       0.724148         346.393         111.974         366.695 
       0.736433         338.421         107.855         359.746 
       0.748747         333.885         103.937         353.169 
       0.761037         327.497         100.224          348.34 
       0.773197         323.439         96.7299         343.167 
       0.785376         318.414         93.3988         337.755 
       0.797761         309.835          90.173         332.413 
       0.810096         307.173         87.1123         328.169 
       0.822371         296.663         84.2085         322.753 
       0.834626         295.103         81.4425         318.475 
       0.846916         288.847         78.7942         313.656 
       0.859215         288.214         76.2627         309.176 
       0.871383         280.642         73.8683         304.804 
        0.88363         278.828         71.5629         301.668 
       0.895928         273.039         69.3476         296.869 
       0.908253         266.015         67.2225         292.116 
       0.920535         263.515         65.1939         288.401 
       0.932774         256.893         63.2566         284.341 
        0.94508         253.753         61.3886          281.38 
       0.957324         252.551         59.6055         277.432 
        0.96953         248.821          57.899         273.827 
       0.981769         241.682         56.2554         271.037 
       0.994071          240.72         54.6681         267.606 
         1.0064         235.478         53.1395         263.659 
        1.01868         232.576         51.6741         260.385 
        1.03092         226.539         50.2708         257.918 
         1.0432         223.131         48.9148         254.776 
        1.05553         220.308         47.6038         251.422 
        1.06777         219.336         46.3505           248.8 
           1.08         213.875         45.1438         245.841 
        1.09227         211.632         43.9763         242.996 
         1.1046         208.337          42.846         240.564 
         1.1169         203.778         41.7575         237.273 
        1.12915         201.024         40.7124         235.123 
        1.14142         197.691          39.701         232.125 
        1.15365         194.916         38.7271          229.68 
        1.16585         191.807         37.7886         226.831 
        1.17807         189.484         36.8801         224.896 
        1.19037         187.352         35.9957         222.787 
        1.20276          184.63         35.1343         219.936 
        1.21504          180.69         34.3081         217.551 
        1.22728         177.503          33.512         214.787 
        1.23954         176.858         32.7393         213.197 
        1.25184         173.334         31.9895         210.799 
        1.26414         170.224          31.263         208.665 
        1.27632         169.506         30.5657         207.113 
         1.2886         167.731         29.8848         204.477 
        1.30093         162.879         29.2222         202.149 
        1.31316         160.347         28.5847         199.885 
        1.32541         159.006         27.9661          198.24 
        1.33772         157.348         27.3624         196.176 
        1.35005         154.792         26.7762         193.975 
        1.36225         152.292         26.2132           192.2 
        1.37447         150.168         25.6653         189.879 
        1.38676         148.307         25.1306         188.304 
        1.39907         145.857         24.6103         186.266 
        1.41133         143.492          24.107         184.557 
        1.42358         141.672         23.6183         182.822 
        1.43591         139.962         23.1399         180.899 
        1.44818         137.957         22.6773         179.241 
        1.46037         135.986         22.2302         177.362 
        1.47263         134.247         21.7926         175.956 
        1.48494         132.179         21.3652          173.82 
        1.49724         130.355         20.9497         172.426 
        1.50952          127.96          20.546         170.733 
        1.52178         127.372         20.1536         168.889 
        1.53409         124.573         19.7699         167.501 
        1.54637          123.11         19.3969         166.094 
        1.55858         120.929         19.0358         164.306 
        1.57081         119.241         18.6833         162.911 
        1.58313           117.7         18.3376         161.258 
        1.59544         115.919         18.0008         159.856 
        1.60767          114.84         17.6747         158.351 
        1.61994         112.733         17.3555         157.088 
        1.63225         111.338         17.0436         155.305 
        1.64452         109.255         16.7402         153.916 
        1.65676         107.653         16.4451         152.639 
          1.669         106.957          16.157         151.347 
        1.68133         104.602         15.8739         149.951 
        1.69363         103.347         15.5984         148.614 
        1.70585         101.453         15.3313         147.294 
        1.71809         100.263         15.0699          145.77 
        1.73038         99.5279         14.8137         144.596 
        1.74268         98.3082         14.5634         143.234 
        1.75493         96.0982           14.32         141.991 
        1.76714          95.124         14.0828         140.843 
        1.77942         93.6945         13.8498         139.418 
        1.79173         92.3348         13.6214         138.317 
        1.80402         91.5645         13.3987         137.113 
         1.8163         89.6306         13.1811         135.842 
         1.8286         88.4113         12.9679         134.645 
         1.8409         87.7766         12.7597          133.43 
        1.85315         86.2052         12.5567         132.367 
        1.86537         85.1969         12.3585         131.262 
        1.87765         84.3899         12.1639         130.116 
        1.88995         82.9304          11.973         129.003 
        1.90221          81.778         11.7869          127.91 
        1.91445         80.7229         11.6051         126.723 
        1.92674         79.3328         11.4264          125.68 
        1.93902         78.3371         11.2515         124.555 
        1.95124         77.4981         11.0812         123.543 
         1.9635         76.2629          10.914         122.404 
        1.97583         75.1016         10.7492         121.478 
        1.98812         74.1307         10.5885         120.467 
        2.00039         73.2123         10.4313          119.41 
        2.01264         72.3975         10.2775         118.418 
        2.02492         71.4795         10.1265           117.4 
        2.03717         70.2654         9.97886         116.397 
        2.04942         69.9063         9.83434          115.54 
        2.06171         68.2922         9.69219         114.532 
        2.07397         67.5268         9.55316         113.623 
        2.08629         66.7383         9.41629         112.633 
        2.09857         65.7038         9.28242         111.736 
        2.11081         64.6729         9.15171         110.705 
        2.12309         63.8865          9.0232         109.949 
        2.13538          63.088         8.89698         108.991 
        2.14763         62.2258         8.77359         108.118 
        2.15986         61.1447         8.65283         107.193 
        2.17214         60.6324         8.53386         106.308 
        2.18443         59.8825         8.41701         105.603 
        2.19671         58.7388         8.30249         104.698 
        2.20898         58.4048         8.19024         103.811 
        2.22126         57.5041         8.07994         102.973 
        2.23354         56.8208         7.97172         102.188 
         2.2458         55.9338         7.86566         101.395 
        2.25807         55.1792         7.76144         100.542 
        2.27035         54.5461         7.65902         99.7258 
        2.28263         53.7874          7.5585         98.9415 
         2.2949         53.1851         7.45983         98.1699 
        2.30718          52.205          7.3629         97.4304 
        2.31946         51.8777         7.26764         96.6285 
        2.33169          50.947         7.17448         95.8875 
        2.34393         50.4123         7.08281         95.1734 
        2.35622         49.7113         6.99245         94.4216 
        2.36847         49.2662         6.90391         93.7774 
        2.38076         48.3887         6.81665         92.9325 
        2.39305         47.8422         6.73092         92.2948 
        2.40534         47.3228         6.64665          91.537 
        2.41762         46.7422         6.56385         90.7887 
        2.42989         46.1601         6.48258         90.1718 
        2.44216         45.6343         6.40269         89.4361 
         2.4544         45.0158         6.32433         88.7592 
        2.46667         44.4949         6.24711         88.0607 
        2.47897         44.0137         6.17099         87.3905 
        2.49124         43.4352         6.09635         86.7686 
        2.50349         43.1224         6.02305          86.083 
        2.51578         42.4088         5.95074         85.5246 
        2.52805         41.9259         5.87974           84.82 
        2.54029         41.5055         5.81008         84.1379 
        2.55257         40.8965         5.74134         83.5658 
        2.56487         40.5566         5.67358         82.9847 
        2.57716         39.9848           5.607         82.3744 
        2.58942         39.4336         5.54165         81.7409 
        2.60167         39.1333          5.4774          81.148 
        2.61395         38.5564         5.41407         80.5604 
        2.62624         38.3079         5.35166         79.9168 
        2.63849          37.794         5.29043         79.3577 
        2.65073         37.4493         5.23022         78.7701 
        2.66302         36.9518         5.17073         78.1851 
         2.6753         36.5245         5.11221         77.6374 
        2.68756         36.1363         5.05471         77.0525 
        2.69983         35.7748         4.99806         76.5389 
        2.71213         35.4096         4.94215         75.9997 
        2.72441         35.0441         4.88721         75.4378 
        2.73665         34.5415         4.83322          74.896 
         2.7489         34.4065         4.78009          74.368 
        2.76118         33.9256         4.72759         73.8504 
        2.77349         33.6377         4.67575         73.3188 
        2.78576         33.3772          4.6249         72.7702 
        2.79802         32.9952         4.57483         72.3274 
        2.81031         32.6139         4.52538         71.7962 
        2.82259         32.5443         4.47669         71.2652 
        2.83483         32.0861         4.42889         70.8058 
         2.8471         31.7636          4.3817         70.3071 
         2.8594         31.5208         4.33505         69.7946 
         2.8717         31.3497          4.2891          69.328 
        2.88396         30.9839         4.24399         68.8388 
        2.89619         30.8473         4.19961         68.3291 
        2.90847         30.5132         4.15569          67.859 
        2.92072         30.3286         4.11248         67.4212 
        2.93299         30.1439         4.06986          66.961 
        2.94526         29.8312          4.0278         66.5093 
        2.95753         29.6447         3.98635         66.0517 
        2.96982         29.4999         3.94542         65.6011 
        2.98209         29.2298         3.90514         65.1661 
        2.99436         29.0366         3.86539         64.6954 
        3.00666         28.9755         3.82613         64.2733 
        3.01894         28.7112         3.78749         63.8286 
        3.03119         28.5924         3.74943         63.4142 
        3.04345         28.4761          3.7119         63.0146 
        3.05573         28.2116         3.67481         62.5922 
          3.068          28.218         3.63826         62.1709 
        3.08026         28.0508         3.60225         61.7527 
        3.09254         27.9364         3.56666         61.3474 
        3.10483         27.9293         3.53154         60.9508 
         3.1171         27.7184         3.49694          60.549 
        3.12933         27.7034          3.4629         60.1394 
        3.14159         27.5738         3.42924         59.7315 
