# k  (h/Mpc)    Pcb(k)  (Mpc/h)^3    Pcb_linear(k) (Mpc/h)^3    Pcb_NL(k) (Mpc/h)^3   ShotnoiseSubtracted = false
      0.0156606         1672.53         1673.41         1665.46 
      0.0273761         1455.28         1448.27         1444.86 
      0.0384619         1105.71         1091.58         1090.93 
      0.0498308         868.167           858.8          858.82 
      0.0625568         732.565         729.982         729.255 
      0.0751274         631.173         620.252          618.65 
      0.0867833         502.503         499.398         499.239 
      0.0984825         405.321         395.224         396.347 
       0.111151         339.042         330.014         331.073 
       0.123864         304.482         297.416         298.103 
       0.135742         273.331         267.455         268.088 
        0.14762         232.192          228.69         230.329 
       0.160083         192.971         190.628         192.551 
       0.172465         169.527         166.383         168.663 
       0.184281         157.075         153.386         155.782 
       0.196406         143.418         141.652         143.452 
       0.209011         128.785         126.035         128.113 
       0.221538         113.916         110.143         113.079 
       0.233611         102.308         98.5496         101.804 
       0.245665         95.8411         90.9577         93.8389 
       0.258103         86.4783          84.674         87.5354 
       0.270422         81.0695         77.8057         80.5631 
       0.282519         73.5274         70.6132           73.59 
       0.294636         69.2628         64.3365         67.4749 
       0.306978         61.6308         59.5221         62.7556 
       0.319417          58.626         55.6498         58.7834 
        0.33169          54.483         51.9432         54.9674 
       0.343948         51.4407         48.1284         51.1674 
       0.356249         47.0875         44.5509         47.9517 
       0.368458         44.6971         41.5543          44.629 
        0.38068         41.7529         39.0484         42.1038 
       0.392856         39.1491         36.7608         39.8454 
       0.405069          36.985         34.5241         37.4766 
       0.417459         34.3405         32.3583         35.3937 
       0.429752         32.7857         30.4141          33.429 
       0.441978         31.1611         28.7077         31.8632 
       0.454294         29.0473         27.1582          30.145 
        0.46658         28.4984         25.7043         28.6516 
       0.478753         26.5626         24.3327         27.2794 
       0.490964         25.5688         23.0443         26.0929 
       0.503334         24.4294         21.8551         24.7681 
       0.515665         23.0645         20.7708         23.8142 
       0.527909         22.0783         19.7697         22.5823 
       0.540159         21.0308         18.8227         21.6161 
        0.55248         19.6782          17.924         20.6394 
       0.564743         19.3644         17.0919          19.911 
        0.57686         18.6187         16.3271         19.0795 
       0.589077         17.4945         15.6052          18.406 
       0.601441         16.8074         14.9187         17.6755 
        0.61382         16.1683         14.2715         16.9372 
       0.626067            15.5         13.6675         16.3325 
       0.638306         14.9421         13.0988         15.7022 
       0.650632         14.5377         12.5599         15.1791 
       0.662899         13.8345          12.055         14.6057 
       0.675076         13.1715         11.5817         14.1009 
       0.687267         12.8625         11.1333         13.5834 
       0.699615         12.4577          10.703         13.1408 
       0.711937         11.8068         10.2962         12.7257 
       0.724148         11.6828         9.91407         12.3264 
       0.736433         11.0258          9.5494         11.8965 
       0.748747         10.7424         9.20254         11.5621 
       0.761037          10.473         8.87373         11.2032 
       0.773197         10.0177          8.5644         10.8919 
       0.785376          9.6741         8.26946         10.5572 
       0.797761         9.39562         7.98385         10.2255 
       0.810096         9.14107         7.71286         9.97871 
       0.822371         8.90483         7.45577         9.65463 
       0.834626         8.60278         7.21087         9.39613 
       0.846916         8.30294         6.97638         9.14733 
       0.859215         7.99032         6.75225         8.91178 
       0.871383          7.7891         6.54025          8.6852 
        0.88363         7.59056         6.33613         8.44882 
       0.895928         7.42596         6.13999         8.21743 
       0.908253         7.20239         5.95183         8.01507 
       0.920535         6.95811         5.77223         7.80168 
       0.932774         6.81697          5.6007         7.57923 
        0.94508         6.59399         5.43531         7.42319 
       0.957324         6.43806         5.27743         7.26456 
        0.96953          6.2132         5.12634         7.08448 
       0.981769         6.08838         4.98082         6.89878 
       0.994071         5.96133         4.84028         6.75474 
         1.0064         5.75318         4.70494         6.60064 
        1.01868         5.60871          4.5752         6.44731 
        1.03092         5.50399         4.45095         6.29332 
         1.0432         5.29953         4.33089         6.15944 
        1.05553         5.20184         4.21481         6.03847 
        1.06777         5.04238         4.10385         5.91241 
           1.08         4.95764           3.997         5.77908 
        1.09227         4.82167         3.89364         5.65297 
         1.1046         4.70986         3.79356         5.53497 
         1.1169         4.55819         3.69719         5.42441 
        1.12915         4.52356         3.60465         5.32903 
        1.14142         4.36538          3.5151         5.20558 
        1.15365         4.27838         3.42887         5.11047 
        1.16585         4.20969         3.34578         5.01795 
        1.17807         4.11249         3.26535         4.90918 
        1.19037         3.98321         3.18704         4.81512 
        1.20276         3.90101         3.11078         4.71674 
        1.21504         3.81821         3.03762         4.64378 
        1.22728         3.72965         2.96713         4.54443 
        1.23954         3.66535         2.89872         4.48125 
        1.25184         3.57903         2.83234         4.38634 
        1.26414         3.52375         2.76801         4.30054 
        1.27632         3.41166         2.70627         4.23997 
         1.2886         3.37163         2.64598         4.15893 
        1.30093         3.28259         2.58732          4.0964 
        1.31316         3.19325         2.53087         4.01921 
        1.32541         3.15207          2.4761         3.95944 
        1.33772         3.09642         2.42265         3.88716 
        1.35005         3.03453         2.37075         3.82563 
        1.36225         2.97302          2.3209         3.75647 
        1.37447         2.91048         2.27239         3.70561 
        1.38676         2.84757         2.22505         3.63767 
        1.39907         2.78434         2.17899         3.58831 
        1.41133         2.73742         2.13443         3.53045 
        1.42358         2.69764         2.09116         3.46756 
        1.43591         2.65106         2.04879         3.42962 
        1.44818         2.58339         2.00784         3.37342 
        1.46037         2.52883         1.96825         3.31747 
        1.47263         2.48416         1.92951         3.27171 
        1.48494         2.44797         1.89167         3.22283 
        1.49724         2.39577         1.85487          3.1729 
        1.50952          2.3811         1.81913         3.12709 
        1.52178         2.31681         1.78439         3.08736 
        1.53409         2.27019         1.75041         3.03445 
        1.54637         2.23104         1.71739         2.99231 
        1.55858         2.19552         1.68542         2.94553 
        1.57081         2.15766         1.65421         2.91131 
        1.58313         2.11356          1.6236         2.87187 
        1.59544         2.08212         1.59378         2.83386 
        1.60767         2.05252         1.56491         2.79382 
        1.61994         2.00676         1.53665         2.75838 
        1.63225         1.98027         1.50903         2.72217 
        1.64452         1.94657         1.48217         2.68329 
        1.65676         1.90515         1.45604         2.64989 
          1.669         1.88159         1.43053         2.61361 
        1.68133         1.83677         1.40547         2.58479 
        1.69363         1.82904         1.38108         2.55019 
        1.70585         1.79673         1.35743         2.51753 
        1.71809         1.77025         1.33428         2.48571 
        1.73038         1.73465          1.3116         2.45415 
        1.74268         1.70349         1.28944         2.42434 
        1.75493         1.68477         1.26789         2.39706 
        1.76714         1.65875         1.24688         2.36245 
        1.77942         1.62957         1.22625         2.33698 
        1.79173         1.60624         1.20603         2.30733 
        1.80402         1.58185         1.18631         2.28067 
         1.8163         1.56121         1.16704         2.25363 
         1.8286         1.52945         1.14817         2.23243 
         1.8409         1.51579         1.12973         2.20558 
        1.85315         1.49352         1.11176         2.17516 
        1.86537         1.46781         1.09422         2.15465 
        1.87765         1.45009         1.07699          2.1306 
        1.88995         1.42625         1.06009         2.10581 
        1.90221         1.40665         1.04361         2.08153 
        1.91445         1.38521         1.02751         2.06184 
        1.92674         1.36801         1.01169         2.03569 
        1.93902         1.34327        0.996205         2.01181 
        1.95124         1.32471        0.981127         1.99272 
         1.9635         1.30817        0.966323         1.96961 
        1.97583          1.2854        0.951731          1.9479 
        1.98812          1.2706        0.937496         1.92984 
        2.00039         1.25106        0.923581         1.90772 
        2.01264         1.23111        0.909961         1.89068 
        2.02492          1.2207        0.896597         1.87206 
        2.03717         1.20992        0.883523         1.85147 
        2.04942         1.18513        0.870727         1.83032 
        2.06171         1.16963        0.858142          1.8116 
        2.07397         1.15449        0.845832         1.79542 
        2.08629         1.14257        0.833713         1.77869 
        2.09857         1.12493        0.821861          1.7607 
        2.11081         1.11044        0.810288         1.74209 
        2.12309         1.09856         0.79891         1.72738 
        2.13538         1.08442        0.787734         1.70836 
        2.14763         1.07521         0.77681         1.69235 
        2.15986         1.06042        0.766118         1.67827 
        2.17214         1.03897        0.755584         1.65814 
        2.18443         1.03035        0.745238         1.64562 
        2.19671         1.01985        0.735098         1.63027 
        2.20898         1.00514         0.72516         1.61487 
        2.22126        0.992342        0.715394         1.60004 
        2.23354        0.979776        0.705812         1.58497 
         2.2458        0.970881        0.696422         1.56955 
        2.25807         0.95616        0.687194         1.55486 
        2.27035         0.94815        0.678126         1.54203 
        2.28263        0.931381        0.669226         1.52908 
         2.2949        0.923353         0.66049         1.51486 
        2.30718        0.914651        0.651908         1.50213 
        2.31946        0.900639        0.643473         1.48876 
        2.33169        0.890828        0.635225         1.47602 
        2.34393        0.886904        0.627108         1.46329 
        2.35622        0.870673        0.619108         1.45059 
        2.36847        0.864409        0.611269         1.43807 
        2.38076         0.84945        0.603543         1.42559 
        2.39305        0.845601        0.595952         1.41327 
        2.40534        0.833852        0.588492         1.40186 
        2.41762        0.825149         0.58116         1.38919 
        2.42989        0.815116        0.573964         1.37951 
        2.44216        0.809413        0.566891         1.36764 
         2.4544        0.801527        0.559953         1.35659 
        2.46667        0.791262        0.553116         1.34538 
        2.47897        0.783204        0.546376         1.33404 
        2.49124        0.772335        0.539768         1.32327 
        2.50349        0.766551        0.533278         1.31225 
        2.51578        0.759329        0.526875         1.30112 
        2.52805        0.749378        0.520589         1.29153 
        2.54029        0.743653        0.514421          1.2811 
        2.55257        0.734881        0.508335          1.2715 
        2.56487        0.726949        0.502336         1.26217 
        2.57716         0.72249        0.496441         1.25133 
        2.58942        0.717458        0.490655         1.24264 
        2.60167        0.710429        0.484966         1.23268 
        2.61395        0.702162        0.479359         1.22323 
        2.62624        0.696644        0.473833         1.21462 
        2.63849        0.688805        0.468412         1.20499 
        2.65073        0.682556        0.463081         1.19576 
        2.66302        0.678058        0.457814          1.1864 
         2.6753        0.674062        0.452633         1.17818 
        2.68756        0.666397        0.447542         1.17033 
        2.69983        0.661007        0.442526         1.16152 
        2.71213         0.65272        0.437576         1.15318 
        2.72441        0.650073        0.432711         1.14458 
        2.73665        0.646144        0.427931         1.13733 
         2.7489        0.639694        0.423227         1.12962 
        2.76118        0.634541        0.418578         1.12012 
        2.77349         0.63084        0.413989         1.11272 
        2.78576        0.627594        0.409486         1.10472 
        2.79802        0.621703        0.405053         1.09644 
        2.81031        0.617709        0.400675         1.09002 
        2.82259        0.613434        0.396364         1.08139 
        2.83483        0.610001        0.392132         1.07421 
         2.8471        0.605225        0.387954         1.06656 
         2.8594        0.602697        0.383824         1.05964 
         2.8717        0.597606        0.379755         1.05316 
        2.88396        0.593664        0.375761         1.04576 
        2.89619        0.590964        0.371831         1.03877 
        2.90847        0.587674        0.367943         1.03207 
        2.92072        0.586659        0.364117         1.02511 
        2.93299        0.580178        0.360343         1.01774 
        2.94526         0.57999         0.35662         1.01137 
        2.95753        0.577724         0.35295         1.00511 
        2.96982        0.575244        0.349325        0.998114 
        2.98209        0.573202        0.345759        0.991544 
        2.99436        0.570457         0.34224        0.985317 
        3.00666        0.569809        0.338764        0.979202 
        3.01894        0.568659        0.335342        0.973371 
        3.03119         0.56525        0.331973        0.966677 
        3.04345        0.563414         0.32865        0.960539 
        3.05573        0.563013        0.325366        0.955367 
          3.068        0.561404         0.32213        0.949396 
        3.08026        0.561924        0.318941        0.943035 
        3.09254        0.560169         0.31579        0.936759 
        3.10483        0.558566        0.312681        0.931304 
         3.1171        0.559773        0.309618         0.92608 
        3.12933        0.559351        0.306604        0.920308 
        3.14159        0.559455        0.303624        0.914665 
