# k  (h/Mpc)    P(k)  (Mpc/h)^3    P_linear(k)  (Mpc/h)^3     P_NL(k)  ShotnoiseSubtracted = false
      0.0156606         23156.3         23309.4         23119.6 
      0.0273761         19799.7         20118.3           19886 
      0.0384619           14950         15142.6         14934.5 
      0.0498308         11530.9         11903.5         11693.6 
      0.0625568         9740.66         10112.1         9926.36 
      0.0751274         8683.53         8588.91         8328.84 
      0.0867833         6719.44         6913.76          6832.6 
      0.0984825         5693.25         5470.62         5540.42 
       0.111151         4877.91         4567.38         4656.23 
       0.123864         4368.72         4115.79         4187.43 
       0.135742         3988.45          3700.9          3772.5 
        0.14762         3477.34          3164.3          3353.2 
       0.160083         2964.93         2637.52         2871.84 
       0.172465         2644.37         2301.97         2600.65 
       0.184281         2392.04         2122.09         2420.52 
       0.196406         2266.22          1959.7         2231.94 
       0.209011         2125.65          1743.6         2024.99 
       0.221538         1912.45         1523.71         1894.96 
       0.233611         1840.05         1363.31         1779.24 
       0.245665         1666.09         1258.27         1644.88 
       0.258103         1657.21         1171.33         1554.31 
       0.270422         1478.37          1076.3         1462.18 
       0.282519         1400.82         976.798         1387.87 
       0.294636         1371.93         889.964         1316.44 
       0.306978         1258.35         823.362         1263.25 
       0.319417         1237.54         769.791         1191.64 
        0.33169         1162.41         718.514         1130.16 
       0.343948         1118.55         665.741         1096.36 
       0.356249         1063.14         616.251         1056.95 
       0.368458         1018.47         574.798         1012.34 
        0.38068         1005.92         540.136         975.166 
       0.392856         957.094         508.491         942.551 
       0.405069         906.413         477.548         911.425 
       0.417459         872.189         447.589         881.855 
       0.429752         871.962         420.696         851.422 
       0.441978         841.495         397.091          830.62 
       0.454294         806.075         375.657         797.682 
        0.46658         783.606         355.545         781.927 
       0.478753         770.169         336.572         759.112 
       0.490964          741.39          318.75         736.452 
       0.503334         710.855         302.302         720.972 
       0.515665         707.873         287.302         704.554 
       0.527909         678.215         273.455         690.837 
       0.540159         662.938         260.354         674.214 
        0.55248         649.512         247.924         657.141 
       0.564743         643.933         236.415           646.1 
        0.57686         624.253         225.836         629.546 
       0.589077         615.386          215.85         616.117 
       0.601441         599.389         206.355         604.604 
        0.61382         582.328         197.402          593.96 
       0.626067         577.001         189.048         583.479 
       0.638306         556.387         181.181         571.591 
       0.650632         551.369         173.727         558.836 
       0.662899         547.198         166.742         551.887 
       0.675076          530.95         160.197           544.9 
       0.687267         515.523         153.994          532.29 
       0.699615         515.269         148.042         523.903 
       0.711937         503.474         142.416         513.962 
       0.724148         487.867         137.129          507.48 
       0.736433          476.83         132.085         498.745 
       0.748747         471.005         127.287         490.152 
       0.761037         463.016         122.739         484.476 
       0.773197         455.422         118.461         476.254 
       0.785376         450.587         114.381         469.571 
       0.797761         437.258         110.431         463.046 
       0.810096         431.486         106.682         457.053 
       0.822371         421.323         103.126         449.768 
       0.834626         416.852         99.7388         444.778 
       0.846916          411.47         96.4955         437.835 
       0.859215         405.646         93.3953         431.391 
       0.871383         397.156         90.4629          425.84 
        0.88363          391.93         87.6396         421.577 
       0.895928         387.151         84.9267         415.128 
       0.908253         377.842          82.324         408.256 
       0.920535         369.493         79.8398         404.162 
       0.932774         364.792         77.4672         397.929 
        0.94508          359.35         75.1795         394.081 
       0.957324         354.885         72.9959         388.855 
        0.96953         350.566          70.906         384.169 
       0.981769           342.6         68.8931         379.882 
       0.994071         341.421         66.9492         375.334 
         1.0064         335.345         65.0772         369.901 
        1.01868         331.375         63.2827         365.273 
        1.03092           321.9         61.5641         362.114 
         1.0432         318.975         59.9035         357.745 
        1.05553         315.944         58.2979         352.799 
        1.06777         311.314          56.763         348.745 
           1.08          304.41         55.2852         344.932 
        1.09227         304.157         53.8555          340.82 
         1.1046         297.877         52.4712          337.68 
         1.1169         292.077         51.1382         333.246 
        1.12915          287.77         49.8583          329.75 
        1.14142          282.07         48.6197         325.954 
        1.15365         279.004          47.427         322.552 
        1.16585         274.593         46.2776         318.993 
        1.17807         271.989         45.1651         315.403 
        1.19037         266.772          44.082         312.743 
        1.20276         264.077         43.0271         308.687 
        1.21504         258.797         42.0153         305.212 
        1.22728         255.075         41.0403         302.085 
        1.23954         253.546          40.094         298.848 
        1.25184         247.788         39.1759         295.735 
        1.26414         243.138         38.2861         292.955 
        1.27632         240.718         37.4321         290.219 
         1.2886         238.294         36.5982         286.978 
        1.30093         233.421         35.7869         283.286 
        1.31316          228.65         35.0061         280.715 
        1.32541         227.546         34.2485         277.594 
        1.33772         223.284         33.5092         275.154 
        1.35005         220.803         32.7913         272.038 
        1.36225         216.728         32.1018         269.502 
        1.37447         213.271         31.4309         266.289 
        1.38676         211.321         30.7761         264.409 
        1.39907         208.297         30.1389          261.15 
        1.41133         204.346         29.5226         258.395 
        1.42358         201.843         28.9241         255.977 
        1.43591         199.145         28.3381         253.731 
        1.44818         195.387         27.7716         250.999 
        1.46037         193.897         27.2241         248.313 
        1.47263         190.232         26.6882         245.873 
        1.48494         188.878         26.1648         242.975 
        1.49724         185.298         25.6559         241.493 
        1.50952         182.258         25.1615         238.579 
        1.52178         179.904         24.6809          236.35 
        1.53409         177.007          24.211         234.107 
        1.54637         174.194         23.7543         232.178 
        1.55858         172.369          23.312         229.745 
        1.57081         169.462         22.8804         227.437 
        1.58313         167.413          22.457         225.139 
        1.59544         164.312         22.0446         223.144 
        1.60767         162.912         21.6452         221.171 
        1.61994         160.129         21.2543         218.893 
        1.63225         157.561         20.8723          216.69 
        1.64452         155.108         20.5007         214.776 
        1.65676          153.26         20.1394         212.956 
          1.669         151.457         19.7865         210.768 
        1.68133         148.513         19.4399         208.842 
        1.69363         146.019         19.1025         207.147 
        1.70585         143.842         18.7754          205.17 
        1.71809         141.987         18.4552         202.997 
        1.73038         140.042         18.1415         201.273 
        1.74268         138.864          17.835         199.309 
        1.75493         135.981         17.5369         197.714 
        1.76714         135.178         17.2464         195.962 
        1.77942         132.457          16.961         194.189 
        1.79173         130.686         16.6814         192.298 
        1.80402         128.773         16.4086         190.593 
         1.8163         126.624         16.1421         189.091 
         1.8286         124.844         15.8811         187.231 
         1.8409         123.241          15.626         185.498 
        1.85315         121.054         15.3774         183.969 
        1.86537         119.741         15.1348         182.401 
        1.87765         118.298         14.8964         180.836 
        1.88995         116.279         14.6627         179.107 
        1.90221          114.82         14.4348         177.718 
        1.91445         113.064          14.212         176.032 
        1.92674         111.222         13.9933         174.449 
        1.93902         109.971         13.7791         172.878 
        1.95124         108.455         13.5705         171.434 
         1.9635         106.704         13.3658         169.945 
        1.97583         105.111          13.164         168.415 
        1.98812         103.626         12.9671         167.256 
        2.00039         102.487         12.7746         165.627 
        2.01264         101.244         12.5862         164.261 
        2.02492         99.6398         12.4014         162.751 
        2.03717         98.2698         12.2205         161.484 
        2.04942         97.0029         12.0435         160.078 
        2.06171         95.3952         11.8695         158.639 
        2.07397         94.1647         11.6992         157.455 
        2.08629         92.7679         11.5316         156.081 
        2.09857         91.7222         11.3676          154.84 
        2.11081         90.2791         11.2076         153.413 
        2.12309         89.1455         11.0502         152.225 
        2.13538         87.7135         10.8956          150.91 
        2.14763         86.4523         10.7445         149.672 
        2.15986         85.6051         10.5966         148.334 
        2.17214         84.3874         10.4509         147.226 
        2.18443         83.4284         10.3078         146.138 
        2.19671         82.3688         10.1676         144.858 
        2.20898         81.1868         10.0301         143.557 
        2.22126         80.0813         9.89503         142.511 
        2.23354         79.0555         9.76249         141.394 
         2.2458          77.524         9.63261         140.168 
        2.25807         76.9052         9.50498         139.064 
        2.27035         75.7943         9.37955         137.944 
        2.28263         74.8686         9.25645         136.895 
         2.2949         73.4947         9.13562         135.813 
        2.30718         72.4442         9.01691         134.688 
        2.31946         71.7388         8.90025         133.539 
        2.33169         70.6335         8.78617         132.542 
        2.34393         69.9613          8.6739         131.623 
        2.35622         68.8804         8.56324         130.481 
        2.36847         68.0786         8.45482         129.567 
        2.38076         66.8964         8.34795         128.458 
        2.39305          66.314         8.24296         127.552 
        2.40534         65.2675         8.13977         126.488 
        2.41762         64.6882         8.03836         125.494 
        2.42989         63.6096         7.93883         124.569 
        2.44216         63.0543           7.841         123.536 
         2.4544         62.1616         7.74504         122.656 
        2.46667         61.1916         7.65047          121.72 
        2.47897         60.7066         7.55724         120.701 
        2.49124         59.9109         7.46584         119.797 
        2.50349         58.8522         7.37608         118.919 
        2.51578         58.4808         7.28752         118.096 
        2.52805         57.5021         7.20057         117.127 
        2.54029         56.9605         7.11526         116.246 
        2.55257         56.2639         7.03108          115.43 
        2.56487         55.8208         6.94809         114.569 
        2.57716         55.2062         6.86657         113.712 
        2.58942         54.3357         6.78653         112.881 
        2.60167         53.7321         6.70785          112.07 
        2.61395         53.3295         6.63029         111.213 
        2.62624         52.5108         6.55386         110.335 
        2.63849          51.922         6.47887         109.579 
        2.65073         51.2046         6.40514         108.757 
        2.66302         50.7956         6.33229         107.984 
         2.6753         50.0684         6.26062         107.215 
        2.68756         49.7457         6.19021         106.407 
        2.69983         49.1553         6.12083         105.641 
        2.71213         48.5982         6.05236         104.889 
        2.72441         48.1427         5.98507         104.118 
        2.73665         47.5975         5.91896         103.404 
         2.7489         47.1183         5.85389          102.68 
        2.76118         46.6797          5.7896         101.914 
        2.77349         46.2056         5.72612         101.213 
        2.78576           45.74         5.66384          100.48 
        2.79802         45.3494         5.60252         99.8271 
        2.81031         44.8226         5.54197         99.1073 
        2.82259         44.3414         5.48233         98.3677 
        2.83483         43.9015          5.4238         97.7245 
         2.8471         43.4212         5.36601          97.018 
         2.8594         43.0395         5.30888         96.3369 
         2.8717         42.7497         5.25261         95.7132 
        2.88396         42.3081         5.19736         95.0487 
        2.89619         42.0032         5.14301         94.3525 
        2.90847         41.5956         5.08923         93.6624 
        2.92072         41.2546         5.03631         93.0899 
        2.93299         41.0404         4.98411         92.4673 
        2.94526         40.6804         4.93261         91.8075 
        2.95753         40.4059         4.88185         91.1787 
        2.96982          39.978         4.83172           90.58 
        2.98209         39.7674         4.78239         89.9618 
        2.99436         39.5543         4.73371         89.3265 
        3.00666         39.3317         4.68563          88.727 
        3.01894         39.1066         4.63831         88.1411 
        3.03119         38.8243         4.59171         87.5791 
        3.04345          38.562         4.54575          87.005 
        3.05573         38.5498         4.50032         86.4137 
          3.068         38.2424         4.45556         85.8475 
        3.08026         38.0315         4.41146         85.2753 
        3.09254         38.0085         4.36787         84.7207 
        3.10483         37.9021         4.32487         84.1682 
         3.1171         37.7429          4.2825          83.605 
        3.12933         37.5025         4.24081         83.0498 
        3.14159           37.48         4.19959         82.5014 
