# k  (h/Mpc)    P(k)  (Mpc/h)^3    P_linear(k)  (Mpc/h)^3     P_NL(k)  ShotnoiseSubtracted = false
      0.0156606         15565.5         15766.6         15657.3 
      0.0273761         13365.8         13610.9         13497.1 
      0.0384619         10119.5         10245.9           10151 
      0.0498308         7838.49         8055.04         7961.64 
      0.0625568         6616.92         6843.36         6758.32 
      0.0751274         5861.67         5812.85          5691.5 
      0.0867833         4559.79         4679.31         4644.03 
      0.0984825         3815.64         3702.68         3741.42 
       0.111151          3245.3         3091.41          3135.9 
       0.123864         2911.11         2785.81         2822.42 
       0.135742         2642.26         2505.02         2542.25 
        0.14762         2286.35         2141.84         2239.88 
       0.160083         1921.63         1785.29         1903.14 
       0.172465         1713.77         1558.18         1707.11 
       0.184281         1566.48         1436.43         1588.23 
       0.196406         1456.62         1326.52         1458.34 
       0.209011         1351.16         1180.24         1318.53 
       0.221538         1219.05         1031.41         1220.22 
       0.233611         1151.08         922.834         1135.25 
       0.245665         1052.72         851.733         1045.74 
       0.258103          1019.1         792.885         985.245 
       0.270422          916.27         728.564         921.589 
       0.282519          854.25         661.208         864.975 
       0.294636          845.71         602.431          815.39 
       0.306978         761.674         557.347          777.94 
       0.319417         738.767         521.086         732.423 
        0.33169         696.244         486.376         690.957 
       0.343948         664.229         450.653          666.86 
       0.356249         625.138         417.153         639.734 
       0.368458         605.945         389.093         606.881 
        0.38068         586.649          365.63         581.435 
       0.392856         553.488         344.209         558.896 
       0.405069         529.631         323.263          541.53 
       0.417459         508.151         302.984         516.991 
       0.429752           496.1          284.78          498.38 
       0.441978         479.712         268.801         484.257 
       0.454294         454.318         254.292         463.306 
        0.46658         445.502         240.678         452.198 
       0.478753         432.218         227.835         437.136 
       0.490964         416.502          215.77         422.814 
       0.503334         394.161         204.636         411.781 
       0.515665         392.921         194.483         402.826 
       0.527909         378.778         185.109         391.615 
       0.540159         369.259         176.241         380.627 
        0.55248          362.08         167.826         370.206 
       0.564743         356.816         160.036         363.265 
        0.57686         343.029         152.875         352.729 
       0.589077         331.464         146.115         344.934 
       0.601441         327.893         139.687         337.149 
        0.61382          321.97         133.627         330.605 
       0.626067          316.61         127.972           323.4 
       0.638306         302.835         122.647         317.231 
       0.650632         297.758         117.601         308.088 
       0.662899         295.551         112.873         304.173 
       0.675076         284.213         108.442         298.357 
       0.687267         277.199         104.243         291.458 
       0.699615         273.061         100.214         286.417 
       0.711937         268.669         96.4055         281.261 
       0.724148         260.733          92.827         277.025 
       0.736433         255.141         89.4125         271.356 
       0.748747          250.95         86.1648          266.19 
       0.761037          246.55         83.0861         261.913 
       0.773197         243.203         80.1897          258.43 
       0.785376         239.852         77.4282         253.706 
       0.797761         234.104         74.7539         249.998 
       0.810096         231.154         72.2165         246.338 
       0.822371         222.454         69.8093          242.25 
       0.834626         221.872         67.5163         238.598 
       0.846916         217.366         65.3208         235.119 
       0.859215         217.172         63.2222         231.699 
       0.871383         211.374         61.2371         228.094 
        0.88363          209.67         59.3259         225.723 
       0.895928         204.844         57.4895         222.208 
       0.908253          199.27         55.7277         218.512 
       0.920535         198.617          54.046         215.573 
       0.932774         192.142         52.4399         212.565 
        0.94508         190.437         50.8914         210.333 
       0.957324         190.014         49.4132         207.171 
        0.96953          187.45         47.9985          204.16 
       0.981769          181.65         46.6359         202.285 
       0.994071         180.841           45.32         199.627 
         1.0064         176.691         44.0528         196.593 
        1.01868         174.345          42.838         194.375 
        1.03092         171.333         41.6747         192.296 
         1.0432         168.016         40.5505           189.9 
        1.05553         165.438         39.4637         187.612 
        1.06777         165.284         38.4247         185.713 
           1.08         161.238         37.4243         183.291 
        1.09227         159.376         36.4565         181.412 
         1.1046         156.898         35.5194         179.385 
         1.1169         154.554         34.6171         176.938 
        1.12915         152.201         33.7507         175.256 
        1.14142         149.806         32.9122         172.968 
        1.15365         147.873         32.1049         171.154 
        1.16585         145.822         31.3268         168.922 
        1.17807          143.82         30.5737         167.704 
        1.19037         142.912         29.8405         165.963 
        1.20276         140.254         29.1265         163.924 
        1.21504         138.212         28.4415         162.162 
        1.22728         135.522         27.7815         160.158 
        1.23954         134.907         27.1409         158.907 
        1.25184         132.258         26.5194         157.101 
        1.26414         130.351         25.9171         155.452 
        1.27632         129.843          25.339         154.599 
         1.2886         127.527         24.7745         152.398 
        1.30093         124.168         24.2253         150.772 
        1.31316         123.711         23.6967         149.143 
        1.32541         121.928         23.1839         148.026 
        1.33772         120.745         22.6835         146.423 
        1.35005         119.123         22.1975         144.791 
        1.36225          117.69         21.7307         143.502 
        1.37447         115.557         21.2766         141.896 
        1.38676         114.634         20.8333          140.47 
        1.39907         112.189          20.402         139.183 
        1.41133         110.727         19.9848         138.034 
        1.42358          109.18         19.5796         136.701 
        1.43591         108.372          19.183         135.163 
        1.44818         107.333         18.7995         134.054 
        1.46037         105.236         18.4288         132.688 
        1.47263         104.061         18.0661         131.689 
        1.48494         102.855         17.7118         130.226 
        1.49724         101.328         17.3673         128.924 
        1.50952         99.5781         17.0326         127.793 
        1.52178         98.9386         16.7073         126.577 
        1.53409         97.5358         16.3892         125.494 
        1.54637         95.8883         16.0801         124.376 
        1.55858         94.5909         15.7807         123.153 
        1.57081         93.2704         15.4885         122.093 
        1.58313         92.2252         15.2019         120.947 
        1.59544         91.2305         14.9227         119.885 
        1.60767          89.871         14.6523          118.73 
        1.61994         88.5668         14.3877         117.956 
        1.63225         87.3367         14.1291         116.524 
        1.64452         86.0344         13.8776         115.565 
        1.65676         84.8966          13.633         114.611 
          1.669         84.3128         13.3941         113.686 
        1.68133         83.0517         13.1595         112.606 
        1.69363         82.1184         12.9311         111.692 
        1.70585          80.898         12.7097         110.654 
        1.71809         79.6882         12.4929         109.731 
        1.73038         78.9546         12.2806         108.721 
        1.74268         77.6854         12.0731         107.795 
        1.75493         76.9784         11.8713         106.824 
        1.76714         75.7039         11.6746         105.957 
        1.77942         75.1297         11.4815         104.982 
        1.79173         73.8456         11.2922         104.132 
        1.80402         73.1452         11.1075          103.31 
         1.8163         72.1091         10.9271         102.261 
         1.8286         71.0848         10.7504         101.502 
         1.8409         70.2774         10.5778         100.621 
        1.85315         69.1865         10.4095         99.8544 
        1.86537         68.4837         10.2452           98.98 
        1.87765         67.7744         10.0839         98.0451 
        1.88995         66.7329         9.92565         97.3343 
        1.90221         65.9417         9.77135         96.4938 
        1.91445         64.7267          9.6206         95.7004 
        1.92674         64.1244          9.4725         94.9304 
        1.93902         63.3153         9.32752         94.0763 
        1.95124         62.8538         9.18635         93.4167 
         1.9635         61.7319         9.04773         92.4824 
        1.97583         61.0905         8.91111         91.8742 
        1.98812         60.3627         8.77783         91.0597 
        2.00039         59.3776         8.64754         90.3218 
        2.01264         58.8654         8.52002         89.5655 
        2.02492         58.0019         8.39489         88.8661 
        2.03717         57.1841         8.27248         88.0771 
        2.04942         56.6128         8.15267         87.4676 
        2.06171         55.7028         8.03483         86.7058 
        2.07397         55.1144         7.91957         86.0683 
        2.08629         54.6024          7.8061         85.3162 
        2.09857         53.8687         7.69513         84.6647 
        2.11081         52.7614         7.58677         83.9136 
        2.12309         52.5033         7.48023         83.3317 
        2.13538         51.7333         7.37559          82.643 
        2.14763         51.1697         7.27331         81.9969 
        2.15986         50.2791          7.1732         81.3364 
        2.17214         49.7665         7.07457         80.7143 
        2.18443         49.3356          6.9777         80.1186 
        2.19671         48.4393         6.88276          79.436 
        2.20898         48.2117         6.78971         78.8218 
        2.22126         47.4583         6.69827         78.1738 
        2.23354         46.8237         6.60855         77.6137 
         2.2458         46.3357         6.52063         77.0397 
        2.25807         45.8897         6.43423         76.3826 
        2.27035         45.2777         6.34933         75.7964 
        2.28263         44.5682         6.26599         75.1968 
         2.2949         44.1437          6.1842         74.6358 
        2.30718         43.5401         6.10384          74.093 
        2.31946         42.9563         6.02487         73.5473 
        2.33169         42.4674         5.94764         72.9702 
        2.34393         41.7694         5.87165         72.4151 
        2.35622         41.5381         5.79674         71.8564 
        2.36847         41.0102         5.72334         71.3484 
        2.38076          40.547           5.651         70.7762 
        2.39305         40.0177         5.57993         70.2684 
        2.40534         39.6341         5.51008         69.6892 
        2.41762         39.2244         5.44143         69.1462 
        2.42989         38.5836         5.37405         68.6921 
        2.44216         38.3269         5.30783         68.1599 
         2.4544         37.8808         5.24287         67.6501 
        2.46667         37.4242         5.17885          67.115 
        2.47897         36.9956         5.11575           66.64 
        2.49124         36.5038         5.05387         66.1554 
        2.50349         36.0119         4.99311         65.6576 
        2.51578         35.6252         4.93316         65.2171 
        2.52805         35.5173          4.8743          64.715 
        2.54029          34.978         4.81655         64.2249 
        2.55257         34.4806         4.75957         63.7765 
        2.56487          34.203         4.70339          63.333 
        2.57716         33.7922          4.6482         62.8989 
        2.58942         33.3981         4.59403         62.4165 
        2.60167          32.926         4.54076         61.9497 
        2.61395         32.6865         4.48826         61.5169 
        2.62624         32.4283         4.43652         61.0686 
        2.63849         32.1057         4.38576         60.6449 
        2.65073         31.7598         4.33585           60.18 
        2.66302         31.4182         4.28654         59.7625 
         2.6753         31.0323         4.23802         59.3465 
        2.68756         30.6037         4.19035         58.8987 
        2.69983         30.4021         4.14339         58.5133 
        2.71213         30.1057         4.09704         58.1186 
        2.72441         29.9029         4.05149         57.6867 
        2.73665         29.6035         4.00674          57.275 
         2.7489          29.389         3.96269          56.881 
        2.76118         28.9813         3.91917         56.4864 
        2.77349         28.8346          3.8762         56.1007 
        2.78576         28.6349         3.83404         55.6911 
        2.79802         28.2479         3.79253         55.3251 
        2.81031         28.0047         3.75154          54.948 
        2.82259         27.7847         3.71117         54.5466 
        2.83483         27.5135         3.67155         54.1731 
         2.8471         27.1996         3.63243         53.8119 
         2.8594         27.0715         3.59376         53.4571 
         2.8717         26.7705         3.55567         53.0849 
        2.88396         26.6019         3.51827         52.7002 
        2.89619         26.3674         3.48147         52.3427 
        2.90847          26.187         3.44507         52.0019 
        2.92072         26.0465         3.40924         51.6401 
        2.93299         25.9061         3.37391         51.2837 
        2.94526         25.6317         3.33905         50.9576 
        2.95753          25.495         3.30469         50.6254 
        2.96982         25.4435         3.27075         50.2814 
        2.98209          25.199         3.23736         49.9497 
        2.99436         24.9828         3.20441         49.6052 
        3.00666         24.9775         3.17186         49.2793 
        3.01894         24.7767         3.13983         48.9318 
        3.03119         24.6567         3.10828         48.6145 
        3.04345         24.5526         3.07717          48.314 
        3.05573          24.493         3.04642         47.9968 
          3.068         24.3781         3.01612         47.6779 
        3.08026         24.2345         2.98626         47.3603 
        3.09254         24.1658         2.95676         47.0541 
        3.10483         24.1638         2.92765         46.7535 
         3.1171         24.1054         2.89897         46.4494 
        3.12933          24.053         2.87075         46.1455 
        3.14159         23.9232         2.84284         45.8439 
