# k  (h/Mpc)    P(k)  (Mpc/h)^3    P_linear(k)  (Mpc/h)^3     P_NL(k)  ShotnoiseSubtracted = false
      0.0156606         11594.1         11630.2         11557.1 
      0.0273761         9980.89         10041.6         9975.68 
      0.0384619         7566.08         7559.89         7509.07 
      0.0498308         5876.66         5943.79         5895.36 
      0.0625568         4959.13         5049.98         5004.59 
      0.0751274         4372.45         4289.69         4223.56 
      0.0867833         3414.67         3453.27         3435.68 
      0.0984825          2835.5         2732.58         2757.28 
       0.111151         2401.26          2281.5         2308.34 
       0.123864         2155.55         2055.99         2078.42 
       0.135742         1950.63         1848.78         1871.78 
        0.14762         1678.87         1580.75         1639.54 
       0.160083         1402.28         1317.61          1386.7 
       0.172465         1249.16            1150         1236.48 
       0.184281         1148.54         1060.15         1149.64 
       0.196406         1058.36         979.034          1054.1 
       0.209011          974.79         871.079         951.143 
       0.221538         878.696         761.233          872.18 
       0.233611         818.942         681.101         805.773 
       0.245665         756.366         628.626         741.377 
       0.258103         716.282         585.194         697.176 
       0.270422          651.73         537.722         649.585 
       0.282519         601.159          488.01         605.541 
       0.294636         595.393         444.629         567.996 
       0.306978          531.05         411.356         539.465 
       0.319417         511.759         384.593         507.371 
        0.33169         481.507         358.975         477.532 
       0.343948         458.882          332.61         458.009 
       0.356249         429.826         307.885          437.72 
       0.368458         416.854         287.175         413.169 
        0.38068          399.33         269.858         394.488 
       0.392856         374.625         254.048         378.204 
       0.405069         359.683         238.589         365.144 
       0.417459          343.88         223.622         346.404 
       0.429752         332.518         210.186         333.429 
       0.441978         321.622         198.393         323.124 
       0.454294         301.792         187.684         308.247 
        0.46658          299.63         177.636         299.619 
       0.478753         286.861         168.157          289.03 
       0.490964         277.243         159.253         278.835 
       0.503334          261.64         151.035         270.736 
       0.515665         258.857         143.541         264.462 
       0.527909         250.806         136.623         255.366 
       0.540159         243.708         130.077         248.028 
        0.55248         238.759         123.867         240.553 
       0.564743         232.748         118.117         235.301 
        0.57686         224.436         112.832         227.931 
       0.589077         215.506         107.843         222.974 
       0.601441         212.269         103.099          217.54 
        0.61382         209.953         98.6258          212.21 
       0.626067         204.442         94.4519         207.155 
       0.638306         195.155         90.5215         202.948 
       0.650632          190.03         86.7975         196.474 
       0.662899         189.814         83.3078           193.1 
       0.675076         182.899         80.0374         188.779 
       0.687267         178.204         76.9384         184.638 
       0.699615         174.677         73.9648         180.952 
       0.711937         170.535         71.1538          177.26 
       0.724148         167.377         68.5126         174.659 
       0.736433         163.311         65.9925         170.625 
       0.748747         159.724         63.5954         167.142 
       0.761037         157.307         61.3232         163.732 
       0.773197         154.073         59.1855         161.861 
       0.785376         152.229         57.1472         158.199 
       0.797761         149.062         55.1735         156.179 
       0.810096         145.549         53.3007         153.158 
       0.822371         140.947          51.524          150.58 
       0.834626         139.234         49.8316         148.008 
       0.846916         137.681         48.2112         145.778 
       0.859215         135.923         46.6623         143.362 
       0.871383         133.174         45.1972         140.956 
        0.88363         130.695         43.7866         139.299 
       0.895928         128.129         42.4311         137.311 
       0.908253         124.709         41.1308         134.779 
       0.920535         124.132         39.8897         133.067 
       0.932774         120.516         38.7042         130.819 
        0.94508          119.57         37.5613         129.159 
       0.957324         118.169         36.4703         127.324 
        0.96953         117.553         35.4262         125.251 
       0.981769         113.798         34.4205         124.103 
       0.994071         113.044         33.4493         122.326 
         1.0064         110.324          32.514         120.526 
        1.01868         109.306         31.6174         119.148 
        1.03092         107.357         30.7588         117.672 
         1.0432         105.522         29.9291         116.112 
        1.05553         103.052         29.1269         114.966 
        1.06777         102.888         28.3601         113.632 
           1.08         100.862         27.6217         112.116 
        1.09227         99.4513         26.9074         110.784 
         1.1046         97.7153         26.2158         109.419 
         1.1169         96.5803         25.5498         107.923 
        1.12915         95.2071         24.9103         106.798 
        1.14142         93.6267         24.2915         105.466 
        1.15365         91.8301         23.6956         104.287 
        1.16585         90.7516         23.1214         103.034 
        1.17807         89.3271         22.5655         102.126 
        1.19037         89.1667         22.0244         101.056 
        1.20276         87.2071         21.4973         99.8533 
        1.21504         86.5965         20.9918         98.6718 
        1.22728         84.6968         20.5047         97.6767 
        1.23954          84.056         20.0319         96.5651 
        1.25184         82.3916         19.5731         95.6526 
        1.26414          81.321         19.1286         94.6712 
        1.27632         80.5325         18.7019         94.0081 
         1.2886         79.2192         18.2853          92.663 
        1.30093         78.1044         17.8799         91.6233 
        1.31316          77.304         17.4898         90.9351 
        1.32541          76.558         17.1113         90.0407 
        1.33772         75.3579          16.742         89.1085 
        1.35005         74.6721         16.3833         88.2253 
        1.36225         73.5144         16.0388          87.354 
        1.37447         71.9105         15.7036         86.4235 
        1.38676          71.959         15.3764         85.4897 
        1.39907         70.5588         15.0581         84.8749 
        1.41133         69.3354         14.7501         84.2135 
        1.42358         68.5717         14.4511         83.1705 
        1.43591         68.0837         14.1584         82.4351 
        1.44818         67.1061         13.8753          81.601 
        1.46037         66.2792         13.6018         80.9749 
        1.47263         65.2802          13.334          80.318 
        1.48494         64.5883         13.0725         79.5011 
        1.49724         63.5601         12.8183         78.6946 
        1.50952         63.1006         12.5713          77.949 
        1.52178         62.2726         12.3312         77.3514 
        1.53409         61.7304         12.0964         76.6838 
        1.54637         60.2585         11.8682         75.9339 
        1.55858          59.668         11.6472         75.2073 
        1.57081         59.2068         11.4316         74.6662 
        1.58313         58.2459           11.22         74.0487 
        1.59544         57.5009          11.014         73.3121 
        1.60767         56.9333         10.8144         72.7064 
        1.61994         56.0648         10.6191         72.1779 
        1.63225         55.3761         10.4283          71.388 
        1.64452         54.7812         10.2426          70.887 
        1.65676         53.9663         10.0621         70.2106 
          1.669         53.5996         9.88579         69.6842 
        1.68133         53.0382          9.7126         69.0419 
        1.69363         52.1162         9.54406         68.5562 
        1.70585         51.8198         9.38061         67.9695 
        1.71809         50.7299         9.22066          67.433 
        1.73038         50.3667         9.06393          66.852 
        1.74268         49.6561         8.91076         66.2869 
        1.75493           49.14         8.76183         65.7324 
        1.76714         48.5337         8.61669         65.1782 
        1.77942         48.2446         8.47411         64.6794 
        1.79173         47.4049         8.33439         64.0812 
        1.80402         46.9759         8.19811         63.6632 
         1.8163         46.3599         8.06496         63.0576 
         1.8286         45.7127         7.93454          62.688 
         1.8409         45.1582         7.80712         62.0651 
        1.85315         44.6744         7.68293         61.7111 
        1.86537         44.1499         7.56168         61.1883 
        1.87765         43.7357         7.44261         60.6202 
        1.88995         43.1312         7.32581         60.1311 
        1.90221         42.7787         7.21194         59.6624 
        1.91445         42.1011         7.10067         59.2697 
        1.92674         41.6895         6.99136         58.7544 
        1.93902         41.2367         6.88436         58.2823 
        1.95124         40.8241         6.78016         57.9134 
         1.9635         40.1652         6.67785         57.4061 
        1.97583         39.8125         6.57702         57.0389 
        1.98812         39.1534         6.47865         56.5428 
        2.00039         38.9251         6.38248         56.0982 
        2.01264         38.3067         6.28836         55.7248 
        2.02492         37.9868         6.19601         55.3043 
        2.03717         37.4362         6.10566         54.8381 
        2.04942         36.9991         6.01723         54.4436 
        2.06171         36.6626         5.93026         53.9843 
        2.07397         36.1572         5.84519          53.635 
        2.08629          35.773         5.76145          53.203 
        2.09857         35.4518         5.67954         52.8508 
        2.11081         34.9451         5.59956         52.4171 
        2.12309         34.6364         5.52093          52.019 
        2.13538         34.1437          5.4437         51.6856 
        2.14763         33.8392         5.36821         51.2855 
        2.15986         33.6349         5.29432          50.881 
        2.17214         33.0295         5.22152          50.584 
        2.18443         32.7712         5.15003         50.1299 
        2.19671          32.275         5.07996         49.7713 
        2.20898         31.8543         5.01127         49.3961 
        2.22126         31.7111         4.94379         49.0295 
        2.23354         31.2985         4.87757         48.7345 
         2.2458         30.9675         4.81268         48.3547 
        2.25807         30.4571         4.74891          47.984 
        2.27035         30.1638         4.68624         47.6598 
        2.28263         29.8228         4.62474         47.3285 
         2.2949         29.5723         4.56437         46.9933 
        2.30718         29.2577         4.50506          46.639 
        2.31946         28.9497         4.44677         46.3127 
        2.33169         28.6544         4.38977         45.9706 
        2.34393         28.2662         4.33368         45.6182 
        2.35622         27.9474         4.27839         45.3533 
        2.36847          27.633         4.22422          44.983 
        2.38076         27.3958         4.17083         44.7153 
        2.39305         27.0699         4.11837          44.405 
        2.40534         26.8203         4.06682         44.0291 
        2.41762         26.4486         4.01615         43.7514 
        2.42989         26.2761         3.96642         43.4457 
        2.44216         25.9532         3.91755         43.1511 
         2.4544         25.6949          3.8696         42.8631 
        2.46667           25.35         3.82235         42.5477 
        2.47897         25.1465         3.77578         42.2692 
        2.49124          24.928         3.73011         41.9662 
        2.50349         24.6089         3.68526         41.7056 
        2.51578         24.2744         3.64101         41.4221 
        2.52805         24.1161         3.59757         41.1176 
        2.54029         23.9163         3.55495         40.8399 
        2.55257         23.6687         3.51289         40.5598 
        2.56487         23.4491         3.47143         40.2859 
        2.57716         23.1886          3.4307          39.999 
        2.58942         22.9507         3.39071         39.7601 
        2.60167         22.7286          3.3514          39.467 
        2.61395         22.5165         3.31265          39.201 
        2.62624         22.3311         3.27446         38.9527 
        2.63849         22.1563           3.237         38.6871 
        2.65073           21.88         3.20016         38.4102 
        2.66302         21.6089         3.16376         38.1767 
         2.6753         21.5007         3.12795         37.9255 
        2.68756           21.34         3.09277         37.6924 
        2.69983         21.1443         3.05811         37.4134 
        2.71213         20.9491          3.0239         37.1737 
        2.72441         20.7866         2.99028         36.9103 
        2.73665         20.5726         2.95725         36.6679 
         2.7489         20.3641         2.92474         36.4328 
        2.76118         20.2422         2.89262         36.1694 
        2.77349         20.1342          2.8609         35.9564 
        2.78576         19.8993         2.82979         35.7305 
        2.79802          19.708         2.79915         35.4896 
        2.81031         19.6052          2.7689         35.2764 
        2.82259         19.5066          2.7391         35.0414 
        2.83483         19.2554         2.70986         34.7981 
         2.8471         19.2047         2.68099          34.565 
         2.8594          19.042         2.65244         34.3531 
         2.8717         18.8674         2.62433          34.123 
        2.88396         18.7014         2.59673         33.8943 
        2.89619         18.6706         2.56957         33.6871 
        2.90847         18.5286          2.5427         33.4689 
        2.92072         18.3783         2.51626         33.2674 
        2.93299         18.3204         2.49018         33.0616 
        2.94526         18.2315         2.46445         32.8455 
        2.95753         18.1394         2.43909         32.6338 
        2.96982         18.0714         2.41404         32.4323 
        2.98209         17.9236          2.3894         32.2315 
        2.99436         17.8938         2.36508         32.0274 
        3.00666         17.7711         2.34105         31.8191 
        3.01894         17.7147         2.31741         31.6098 
        3.03119         17.5669         2.29413         31.4114 
        3.04345         17.6073         2.27116         31.2234 
        3.05573         17.5233         2.24847         31.0288 
          3.068         17.4454         2.22611         30.8226 
        3.08026         17.4349         2.20407         30.6338 
        3.09254         17.3593         2.18229         30.4506 
        3.10483         17.3253         2.16081         30.2651 
         3.1171         17.3383         2.13964         30.0801 
        3.12933          17.278         2.11881         29.8932 
        3.14159         17.2098         2.09822         29.7025 
