# k  (h/Mpc)    Pcb(k)  (Mpc/h)^3    Pcb_linear(k) (Mpc/h)^3    Pcb_NL(k) (Mpc/h)^3   ShotnoiseSubtracted = false
      0.0156606         9509.49         9533.15         9476.26 
      0.0273761         8211.48         8245.12         8198.26 
      0.0384619          6233.7          6212.7         6178.77 
      0.0498308         4852.28         4887.11         4855.65 
      0.0625568         4095.47         4153.66         4123.43 
      0.0751274         3600.57         3529.09         3484.28 
      0.0867833         2819.56         2841.36         2830.25 
      0.0984825         2330.86         2248.61         2267.05 
       0.111151         1969.27         1877.56          1897.1 
       0.123864         1768.55         1692.08          1708.5 
       0.135742         1597.95         1521.61          1538.5 
        0.14762         1370.97         1301.05         1343.26 
       0.160083         1142.14         1084.51         1133.52 
       0.172465          1016.3          946.57         1007.54 
       0.184281         937.179         872.627         936.245 
       0.196406         860.053          805.87         858.248 
       0.209011         788.817         717.019         773.487 
       0.221538         710.033         626.608         705.263 
       0.233611         656.642         560.652         648.922 
       0.245665         610.102         517.461         596.915 
       0.258103         570.041         481.712         560.699 
       0.270422         523.077         442.638         521.261 
       0.282519         479.859         401.719         484.255 
       0.294636         473.893         366.011         452.818 
       0.306978         420.739         338.621         428.843 
       0.319417         404.336         316.592         403.124 
        0.33169         379.541         295.504         379.023 
       0.343948         361.969         273.802         361.909 
       0.356249         338.007         253.449         345.107 
       0.368458         327.183         236.402         324.923 
        0.38068         311.977         222.145         309.634 
       0.392856         291.858         209.132         296.466 
       0.405069         279.971         196.407         285.147 
       0.417459         267.176         184.085         270.013 
       0.429752         257.582         173.025         259.529 
       0.441978         248.758         163.317         251.096 
       0.454294          232.37         154.502         239.071 
        0.46658         232.029         146.231         231.742 
       0.478753         220.164         138.428         223.325 
       0.490964         213.168         131.098         215.122 
       0.503334         201.664         124.333         208.456 
       0.515665         198.114         118.164         203.333 
       0.527909         192.193         112.469         195.464 
       0.540159         186.166         107.081         189.798 
        0.55248         181.663         101.969         183.678 
       0.564743         176.405         97.2351         179.276 
        0.57686          170.54         92.8843         173.476 
       0.589077         163.364         88.7773         169.557 
       0.601441         160.268         84.8721         165.242 
        0.61382         158.349           81.19         160.658 
       0.626067         153.057          77.754         156.659 
       0.638306         146.788         74.5185         153.202 
       0.650632         142.076         71.4529         148.028 
       0.662899         142.187         68.5802         145.064 
       0.675076         137.118         65.8879         141.663 
       0.687267         133.701         63.3369         138.478 
       0.699615         130.343          60.889         135.633 
       0.711937         126.809         58.5749         132.397 
       0.724148         125.174         56.4007         130.517 
       0.736433         121.276         54.3261         127.254 
       0.748747         118.648         52.3528         124.564 
       0.761037         116.539         50.4822         121.754 
       0.773197         113.995         48.7225         120.396 
       0.785376         112.032         47.0446         117.455 
       0.797761         110.395         45.4197         115.849 
       0.810096         106.848         43.8781         113.363 
       0.822371         104.362         42.4155         111.364 
       0.834626         102.383         41.0223         109.445 
       0.846916         101.309         39.6883         107.672 
       0.859215         99.4589         38.4132         105.669 
       0.871383         97.9313         37.2071         103.897 
        0.88363         95.4846         36.0459         102.555 
       0.895928         93.6982         34.9301             101 
       0.908253          91.275         33.8597          99.157 
       0.920535         90.8429         32.8379          97.812 
       0.932774         88.6775         31.8621         96.0716 
        0.94508         87.7216         30.9212         94.6124 
       0.957324         85.9317         30.0231          93.375 
        0.96953          85.977         29.1635         91.7729 
       0.981769         83.1182         28.3356         90.8347 
       0.994071         82.2912         27.5361         89.4969 
         1.0064         80.4537         26.7662         88.1933 
        1.01868         79.6692         26.0281         87.0873 
        1.03092         78.1404         25.3212         85.9064 
         1.0432         76.8243         24.6382         84.6887 
        1.05553         74.8247         23.9778         83.9379 
        1.06777         74.6608         23.3466         82.8278 
           1.08          73.125         22.7387         81.7112 
        1.09227         72.0129         22.1507         80.5478 
         1.1046         70.8537         21.5813         79.5833 
         1.1169         70.0441         21.0331         78.4421 
        1.12915         69.1269         20.5067         77.6529 
        1.14142         67.7896         19.9972         76.7016 
        1.15365         66.5543         19.5067         75.8238 
        1.16585         65.7041          19.034         74.8498 
        1.17807         64.6993         18.5764         74.0475 
        1.19037         64.6056         18.1309         73.3126 
        1.20276         63.2746          17.697         72.4615 
        1.21504         62.7953         17.2809         71.5864 
        1.22728         61.4445         16.8798         70.8647 
        1.23954         60.8101         16.4906         69.9603 
        1.25184         59.7953          16.113         69.3566 
        1.26414         58.8341         15.7471         68.5491 
        1.27632         58.3242         15.3958          67.938 
         1.2886         57.6498         15.0528         67.0924 
        1.30093         56.8644         14.7191         66.2638 
        1.31316         56.0265          14.398          65.826 
        1.32541         55.6789         14.0864         65.0846 
        1.33772         54.7032         13.7823         64.4057 
        1.35005         54.1672         13.4871         63.8005 
        1.36225         53.2357         13.2035         63.1469 
        1.37447         52.0063         12.9275         62.4886 
        1.38676         52.1686         12.6582          61.865 
        1.39907         51.3237         12.3961         61.3825 
        1.41133         50.3177         12.1426         60.8713 
        1.42358         49.7364         11.8965         60.1312 
        1.43591         49.3579         11.6555         59.6526 
        1.44818         48.6967         11.4225         58.9526 
        1.46037         48.1184         11.1973         58.5307 
        1.47263         47.6264         10.9769         58.0559 
        1.48494         46.7726         10.7616         57.4376 
        1.49724           46.35         10.5523         56.9069 
        1.50952         45.9847         10.3489         56.3791 
        1.52178         45.2921         10.1513          55.937 
        1.53409         44.8952           9.958         55.4428 
        1.54637         44.0637         9.77016          54.908 
        1.55858         43.2857         9.58825         54.3791 
        1.57081         43.2024         9.41071         54.0173 
        1.58313          42.679         9.23657         53.5659 
        1.59544         41.9824         9.06695         53.0412 
        1.60767         41.4576         8.90267         52.5848 
        1.61994         40.8842         8.74191         52.1618 
        1.63225         40.6096         8.58478         51.6796 
        1.64452         40.1601         8.43196         51.2955 
        1.65676         39.5922         8.28334         50.8211 
          1.669         39.2766          8.1382         50.4772 
        1.68133          38.924         7.99562         49.9861 
        1.69363         38.2567         7.85688          49.606 
        1.70585         38.0242         7.72232         49.2693 
        1.71809         37.3344         7.59064         48.7683 
        1.73038         37.1321         7.46162         48.4629 
        1.74268         36.5233         7.33553         47.9823 
        1.75493         36.1788         7.21293         47.6306 
        1.76714         35.7646         7.09345         47.2705 
        1.77942         35.4788         6.97607         46.9009 
        1.79173         35.0028         6.86105         46.4962 
        1.80402         34.6055         6.74887         46.2261 
         1.8163           34.29         6.63925         45.7318 
         1.8286         33.7881         6.53189          45.467 
         1.8409         33.4474         6.42699         45.0491 
        1.85315         33.0985         6.32475         44.7874 
        1.86537         32.6738         6.22494         44.4451 
        1.87765         32.4785         6.12692         44.0725 
        1.88995         31.9725         6.03077         43.6694 
        1.90221         31.7216         5.93702         43.3535 
        1.91445         31.2121         5.84542         43.0753 
        1.92674         30.9545         5.75544         42.7117 
        1.93902         30.6195         5.66735         42.4112 
        1.95124         30.1258         5.58158         42.1413 
         1.9635         29.8773         5.49736         41.7934 
        1.97583         29.5736         5.41435         41.5296 
        1.98812         29.2468         5.33336         41.1972 
        2.00039         28.8929          5.2542          40.886 
        2.01264          28.548         5.17672         40.6257 
        2.02492         28.3142         5.10069           40.31 
        2.03717         27.9408         5.02631         40.0042 
        2.04942         27.6749         4.95352         39.6989 
        2.06171         27.3989         4.88192         39.4312 
        2.07397         27.1287         4.81189         39.1332 
        2.08629         26.8145         4.74295         38.8501 
        2.09857         26.5208         4.67552         38.5898 
        2.11081         26.2128         4.60968         38.3024 
        2.12309         26.0093         4.54495         38.0199 
        2.13538         25.5595         4.48137         37.7977 
        2.14763         25.4478         4.41923         37.5059 
        2.15986          25.136          4.3584         37.2207 
        2.17214         24.8714         4.29847         36.9966 
        2.18443         24.6005         4.23962         36.6887 
        2.19671         24.2883         4.18193         36.4484 
        2.20898         24.0565         4.12539         36.1762 
        2.22126         23.9462         4.06984         35.9254 
        2.23354         23.6438         4.01532         35.7211 
         2.2458         23.4226          3.9619         35.4602 
        2.25807         23.0785         3.90941         35.1906 
        2.27035         22.8422         3.85782         34.9747 
        2.28263         22.6719         3.80719          34.743 
         2.2949         22.4358         3.75749         34.5034 
        2.30718         22.2367         3.70867         34.2436 
        2.31946         22.0592         3.66068         34.0165 
        2.33169         21.7829         3.61376         33.7887 
        2.34393         21.5499         3.56758         33.5584 
        2.35622          21.356         3.52207         33.3602 
        2.36847         21.1137         3.47748         33.0997 
        2.38076         20.9615         3.43352         32.9156 
        2.39305         20.6895         3.39034         32.7035 
        2.40534         20.5255          3.3479         32.4365 
        2.41762         20.2985         3.30619         32.2704 
        2.42989         20.1999         3.26525           32.01 
        2.44216         19.8851         3.22501         31.8286 
         2.4544         19.8194         3.18554         31.6104 
        2.46667         19.5892         3.14665         31.4068 
        2.47897         19.3491          3.1083         31.1902 
        2.49124          19.258         3.07071         30.9902 
        2.50349          18.992         3.03379         30.7874 
        2.51578         18.8555         2.99736         30.6002 
        2.52805          18.661          2.9616         30.3915 
        2.54029         18.5106         2.92651         30.1923 
        2.55257         18.3907         2.89189          29.989 
        2.56487         18.1456         2.85776         29.8081 
        2.57716         18.0609         2.82423          29.594 
        2.58942         17.9086         2.79131         29.4316 
        2.60167         17.6874         2.75895         29.2359 
        2.61395         17.5572         2.72705         29.0451 
        2.62624         17.4791         2.69561         28.8546 
        2.63849         17.2727         2.66477         28.6902 
        2.65073         17.0895         2.63444         28.4932 
        2.66302         16.9569         2.60448         28.3265 
         2.6753          16.885           2.575         28.1441 
        2.68756         16.7507         2.54604         27.9845 
        2.69983         16.5773          2.5175         27.7772 
        2.71213         16.4142         2.48934         27.6026 
        2.72441         16.2967         2.46167         27.4267 
        2.73665         16.1911         2.43448         27.2547 
         2.7489         16.0819         2.40771         27.0908 
        2.76118         15.9677         2.38127         26.9169 
        2.77349         15.8511         2.35516          26.758 
        2.78576         15.7266         2.32954         26.6049 
        2.79802         15.6269         2.30432         26.4261 
        2.81031         15.5266         2.27942         26.2618 
        2.82259         15.3922         2.25489         26.1152 
        2.83483         15.3521         2.23082         25.9478 
         2.8471         15.2614         2.20705         25.7708 
         2.8594         15.1109         2.18355         25.6097 
         2.8717           15.06         2.16041         25.4592 
        2.88396         14.9576         2.13768         25.2997 
        2.89619         14.9104         2.11533         25.1477 
        2.90847         14.7913         2.09321         25.0071 
        2.92072         14.7231         2.07144         24.8353 
        2.93299         14.6388         2.04997         24.7055 
        2.94526         14.5854         2.02879         24.5623 
        2.95753         14.5562         2.00791         24.4005 
        2.96982         14.4487         1.98729         24.2565 
        2.98209         14.3719           1.967         24.1164 
        2.99436         14.3484         1.94698         23.9654 
        3.00666         14.3082         1.92721         23.8158 
        3.01894         14.2416         1.90774         23.6837 
        3.03119         14.2127         1.88858         23.5425 
        3.04345         14.1438         1.86967          23.397 
        3.05573         14.1498         1.85099         23.2604 
          3.068         14.0641         1.83258         23.1226 
        3.08026         14.0574         1.81444          22.976 
        3.09254           13.97         1.79651         22.8443 
        3.10483         14.0031         1.77882         22.7171 
         3.1171         14.0522          1.7614         22.5852 
        3.12933         13.9963         1.74425         22.4526 
        3.14159         13.9271          1.7273         22.3107 
