# k  (h/Mpc)    Pcb(k)  (Mpc/h)^3    Pcb_linear(k) (Mpc/h)^3    Pcb_NL(k) (Mpc/h)^3   ShotnoiseSubtracted = false
      0.0156606         17864.6         17946.6         17816.3 
      0.0273761         15343.6         15517.3         15374.2 
      0.0384619         11617.7         11690.7         11568.1 
      0.0498308         8990.32         9195.52         9073.71 
      0.0625568         7592.83         7815.05         7705.13 
      0.0751274         6741.71         6639.72         6483.85 
      0.0867833         5235.32          5345.7         5299.11 
      0.0984825         4397.68         4230.43         4277.32 
       0.111151         3748.53         3532.33          3587.7 
       0.123864         3360.68         3183.34         3228.61 
       0.135742         3055.47         2862.61         2908.42 
        0.14762         2650.39         2447.67         2569.13 
       0.160083         2235.85         2040.28         2187.72 
       0.172465         1994.29         1780.77         1967.74 
       0.184281         1816.76         1641.66         1831.03 
       0.196406          1698.2         1516.06         1682.98 
       0.209011          1580.4         1348.91         1523.03 
       0.221538         1425.12         1178.82         1414.53 
       0.233611         1354.03         1054.74         1319.82 
       0.245665         1233.04         973.482         1216.75 
       0.258103         1205.24         906.228          1147.3 
       0.270422         1078.73         832.718         1074.97 
       0.282519         1011.07         755.738         1012.18 
       0.294636         998.511         688.561         956.018 
       0.306978         904.137         637.035         913.717 
       0.319417         880.255         595.591         860.713 
        0.33169         829.006          555.92         813.055 
       0.343948         792.297         515.092         786.229 
       0.356249         747.424         476.803         755.386 
       0.368458          722.51         444.732         718.447 
        0.38068         703.871         417.912         689.353 
       0.392856         665.749          393.43         663.555 
       0.405069         634.932         369.491         643.033 
       0.417459         609.942         346.311         616.162 
       0.429752         599.542         325.504          594.27 
       0.441978         579.118         307.241         578.113 
       0.454294         550.637         290.657         553.666 
        0.46658          537.17         275.097         541.219 
       0.478753         523.741         260.418         523.762 
       0.490964         503.845         246.629         507.097 
       0.503334         478.806         233.902         494.571 
       0.515665         477.753         222.296         483.826 
       0.527909         459.283         211.583         471.625 
       0.540159         447.614         201.447         458.728 
        0.55248         438.787         191.829         446.476 
       0.564743         434.229         182.924         438.539 
        0.57686         417.625         174.739         426.263 
       0.589077         405.637         167.012         416.731 
       0.601441         400.097         159.666          407.79 
        0.61382         391.071         152.739         400.413 
       0.626067         385.523         146.275         392.088 
       0.638306         369.989         140.188         384.529 
       0.650632         365.125         134.421         374.054 
       0.662899          361.87         129.016         369.622 
       0.675076         348.109         123.952         363.276 
       0.687267         339.269         119.152         354.671 
       0.699615         335.142         114.547         348.875 
       0.711937         330.022         110.194         342.592 
       0.724148         319.084         106.104         337.532 
       0.736433         311.886         102.201         330.977 
       0.748747         307.496         98.4886         324.848 
       0.761037         301.633         94.9697         320.181 
       0.773197         297.954         91.6591         315.588 
       0.785376         293.319         88.5025         310.389 
       0.797761         285.751         85.4458         305.538 
       0.810096         283.047         82.5456          301.51 
       0.822371         272.878         79.7941         296.522 
       0.834626         271.809         77.1731          292.42 
       0.846916         265.872         74.6636         288.059 
       0.859215         265.702         72.2648         283.939 
       0.871383         258.547         69.9959           279.8 
        0.88363          256.92         67.8114         276.916 
       0.895928         251.249         65.7122          272.51 
       0.908253         244.642         63.6985         268.127 
       0.920535         242.956         61.7763          264.61 
       0.932774         236.125         59.9405         260.942 
        0.94508         233.515         58.1704         258.222 
       0.957324         232.632         56.4808         254.509 
        0.96953         229.211         54.8638         251.078 
       0.981769         222.358         53.3063         248.611 
       0.994071         221.418         51.8022         245.426 
         1.0064         216.535         50.3538          241.77 
        1.01868         213.689         48.9652         238.852 
        1.03092         208.772         47.6355         236.499 
         1.0432         205.193         46.3506         233.602 
        1.05553         202.474         45.1083         230.598 
        1.06777          201.92         43.9207         228.234 
           1.08         196.852         42.7772          225.43 
        1.09227         194.503          41.671         222.912 
         1.1046         191.582         40.5999         220.618 
         1.1169         187.728         39.5685         217.591 
        1.12915         185.085         38.5781         215.624 
        1.14142         182.106         37.6197         212.836 
        1.15365         179.523         36.6969         210.597 
        1.16585         176.863         35.8076         207.914 
        1.17807         174.578         34.9468         206.254 
        1.19037         172.864         34.1087         204.248 
        1.20276         170.224         33.2925         201.671 
        1.21504         166.789         32.5096           199.5 
        1.22728         163.671         31.7552         196.948 
        1.23954         163.145          31.023         195.531 
        1.25184             160         30.3126         193.299 
        1.26414         157.292         29.6241         191.302 
        1.27632         156.691         28.9633         190.013 
         1.2886         154.625         28.3181         187.501 
        1.30093         150.125         27.6903         185.427 
        1.31316         148.346         27.0862         183.331 
        1.32541          146.81            26.5         181.903 
        1.33772         145.399          25.928         179.964 
        1.35005         143.075         25.3725         177.943 
        1.36225         140.997          24.839         176.333 
        1.37447         138.915         24.3199         174.246 
        1.38676         137.186         23.8132         172.704 
        1.39907         134.769         23.3202         170.922 
        1.41133         132.722         22.8433         169.419 
        1.42358         130.918         22.3802         167.829 
        1.43591         129.423         21.9268         165.993 
        1.44818         127.902         21.4885          164.54 
        1.46037         125.751         21.0648         162.824 
        1.47263         124.406         20.6502          161.57 
        1.48494         122.418         20.2452         159.652 
        1.49724         120.752         19.8514         158.261 
        1.50952         118.529         19.4689         156.768 
        1.52178         118.021         19.0971         155.124 
        1.53409         115.526         18.7335         153.847 
        1.54637         114.125         18.3801         152.533 
        1.55858         112.055         18.0379         150.928 
        1.57081         110.578         17.7039         149.654 
        1.58313         109.224         17.3763          148.16 
        1.59544         107.788         17.0572          146.88 
        1.60767         106.552         16.7481         145.469 
        1.61994         104.679         16.4457         144.395 
        1.63225         103.378         16.1501         142.706 
        1.64452         101.463         15.8626         141.443 
        1.65676         99.9973          15.583         140.292 
          1.669         99.3995           15.31         139.135 
        1.68133         97.2923         15.0417         137.835 
        1.69363         96.3178         14.7807         136.629 
        1.70585          94.529         14.5276           135.4 
        1.71809         93.3716         14.2799         134.065 
        1.73038         92.6512         14.0372         132.957 
        1.74268           91.38         13.7999         131.732 
        1.75493         89.7543         13.5693         130.569 
        1.76714         88.5459         13.3445         129.523 
        1.77942         87.4514         13.1237         128.237 
        1.79173         86.1211         12.9073         127.241 
        1.80402         85.4429         12.6963         126.157 
         1.8163         83.7216         12.4901         124.939 
         1.8286         82.5547         12.2881         123.883 
         1.8409         81.9143         12.0908         122.795 
        1.85315         80.5628         11.8984         121.819 
        1.86537         79.5916         11.7107         120.792 
        1.87765          78.891         11.5262         119.712 
        1.88995         77.5498         11.3454         118.741 
        1.90221          76.497          11.169         117.719 
        1.91445          75.366         10.9967         116.659 
        1.92674         74.1632         10.8274         115.715 
        1.93902         73.2644         10.6617         114.676 
        1.95124         72.5633         10.5003         113.784 
         1.9635         71.4412         10.3419         112.695 
        1.97583         70.3801         10.1857         111.889 
        1.98812         69.4603         10.0334          110.93 
        2.00039         68.5119         9.88445         109.985 
        2.01264         67.8863         9.73869         109.063 
        2.02492         66.9093         9.59566         108.151 
        2.03717         65.7931         9.45574         107.207 
        2.04942          65.483         9.31879         106.445 
        2.06171         64.0265          9.1841         105.515 
        2.07397         63.3305         9.05236         104.692 
        2.08629         62.6001         8.92266         103.778 
        2.09857         61.6277         8.79581         102.958 
        2.11081         60.6814         8.67195         102.015 
        2.12309         60.1045         8.55018         101.326 
        2.13538         59.2511         8.43057         100.454 
        2.14763         58.4342         8.31366         99.6494 
        2.15986         57.3621         8.19923         98.8153 
        2.17214         56.9604         8.08649         97.9987 
        2.18443         56.2561         7.97577         97.3463 
        2.19671         55.2232         7.86725         96.5094 
        2.20898         54.9943         7.76088         95.7179 
        2.22126         54.1125         7.65637         94.9309 
        2.23354         53.4119         7.55382         94.2197 
         2.2458         52.6956         7.45332         93.5037 
        2.25807          51.979         7.35456         92.7084 
        2.27035         51.4411         7.25751         91.9677 
        2.28263         50.6411         7.16226         91.2397 
         2.2949         50.1878         7.06877         90.5323 
        2.30718         49.2228         6.97692         89.8601 
        2.31946         48.8324         6.88665         89.1495 
        2.33169         48.0419         6.79837         88.4613 
        2.34393         47.4248         6.71151         87.7949 
        2.35622         46.9806         6.62588         87.1054 
        2.36847         46.4305         6.54199         86.5083 
        2.38076         45.6732          6.4593         85.7474 
        2.39305         45.1477         6.37806         85.1511 
        2.40534         44.6752         6.29822         84.4515 
        2.41762         44.1684         6.21975         83.7649 
        2.42989         43.6486         6.14274         83.2108 
        2.44216         43.1526         6.06704           82.54 
         2.4544         42.5939         5.99279          81.909 
        2.46667          42.118         5.91962         81.2639 
        2.47897         41.6412         5.84749         80.6651 
        2.49124         41.0741         5.77676         80.0841 
        2.50349         40.6862          5.7073         79.4513 
        2.51578         40.0983         5.63878          78.937 
        2.52805         39.6941         5.57151         78.3022 
        2.54029         39.2467          5.5055         77.6759 
        2.55257         38.6575         5.44036         77.1439 
        2.56487         38.3361         5.37615         76.6096 
        2.57716         37.8369         5.31307         76.0574 
        2.58942         37.3245         5.25114         75.4728 
        2.60167         37.0175         5.19026         74.9211 
        2.61395         36.5017         5.13025         74.3792 
        2.62624         36.2958         5.07111         73.8015 
        2.63849         35.8559         5.01309          73.289 
        2.65073         35.4812         4.95604         72.7389 
        2.66302         34.9759         4.89967         72.2076 
         2.6753         34.5691         4.84421          71.699 
        2.68756         34.1689         4.78973          71.154 
        2.69983          33.926         4.73605         70.6889 
        2.71213         33.5636         4.68307         70.1983 
        2.72441         33.1945           4.631         69.6777 
        2.73665         32.7643         4.57985         69.1727 
         2.7489         32.6909          4.5295         68.6876 
        2.76118         32.1837         4.47976         68.2164 
        2.77349         31.9876         4.43064          67.727 
        2.78576         31.7286         4.38245         67.2251 
        2.79802         31.3093           4.335         66.8076 
        2.81031         30.9777         4.28815         66.3216 
        2.82259         30.8983           4.242         65.8329 
        2.83483         30.4686         4.19671         65.4019 
         2.8471         30.1396           4.152         64.9515 
         2.8594          29.989          4.1078         64.4861 
         2.8717         29.7744         4.06426         64.0488 
        2.88396         29.4583         4.02151         63.5928 
        2.89619         29.2701         3.97945         63.1295 
        2.90847         29.0343         3.93784         62.7086 
        2.92072         28.8022         3.89689         62.2906 
        2.93299         28.6232          3.8565         61.8627 
        2.94526         28.3635         3.81665          61.454 
        2.95753         28.2016         3.77738         61.0376 
        2.96982         28.0996         3.73859         60.6194 
        2.98209         27.8075         3.70042          60.216 
        2.99436         27.6603         3.66276          59.787 
        3.00666         27.5474         3.62555         59.3985 
        3.01894         27.3254         3.58894          58.985 
        3.03119          27.196         3.55288         58.6006 
        3.04345         27.0344         3.51731          58.234 
        3.05573         26.9117         3.48216          57.847 
          3.068         26.8734         3.44753         57.4576 
        3.08026         26.6869         3.41341         57.0707 
        3.09254         26.5755         3.37968         56.6939 
        3.10483         26.5857         3.34641         56.3293 
         3.1171         26.4243         3.31362          55.962 
        3.12933         26.4038         3.28137          55.585 
        3.14159         26.2662         3.24947         55.2126 
