# k  (h/Mpc)    P(k)  (Mpc/h)^3    P_linear(k)  (Mpc/h)^3     P_NL(k)  ShotnoiseSubtracted = false
      0.0156606         5678.63         5811.98         5780.63 
      0.0273761         4911.27         5020.13         4999.76 
      0.0384619         3728.59         3780.31          3768.5 
      0.0498308         2911.18         2972.65         2962.87 
      0.0625568         2455.76         2525.92         2515.43 
      0.0751274         2143.08          2145.8         2129.26 
      0.0867833         1688.09         1727.49         1724.22 
      0.0984825         1381.95         1367.02         1375.54 
       0.111151         1162.11         1141.39         1150.03 
       0.123864         1044.01         1028.59         1035.78 
       0.135742         940.478         924.942          932.32 
        0.14762         802.083         790.859         808.436 
       0.160083         666.121         659.217         679.227 
       0.172465         590.448         575.365         599.862 
       0.184281         546.709         530.414         556.337 
       0.196406         499.086         489.832         510.431 
       0.209011         453.715         435.823         458.592 
       0.221538         406.171         380.866         412.698 
       0.233611         370.183         340.775         376.347 
       0.245665         347.115         314.521         346.305 
       0.258103          316.63         292.791         324.445 
       0.270422         295.138          269.04         300.222 
       0.282519          268.66         244.168         277.024 
       0.294636         261.704         222.464         257.119 
       0.306978         231.015         205.816         241.808 
       0.319417         221.183         192.426         227.052 
        0.33169         206.394         179.609         213.048 
       0.343948         196.947         166.418         201.208 
       0.356249         182.395         154.047         190.894 
       0.368458         175.419         143.685         178.709 
        0.38068         165.924         135.021         169.636 
       0.392856         154.718         127.111          161.86 
       0.405069         147.362         119.376          154.08 
       0.417459         139.849         111.887          145.81 
       0.429752         134.402         105.165         139.377 
       0.441978         128.847         99.2642         134.269 
       0.454294         119.882         93.9062         127.338 
        0.46658         119.984         88.8788         122.542 
       0.478753         112.121         84.1361         117.783 
       0.490964         108.705         79.6809         113.157 
       0.503334         103.855         75.5694         108.875 
       0.515665         100.262         71.8199         105.816 
       0.527909         96.6729         68.3584         100.706 
       0.540159         93.2926         65.0833          97.575 
        0.55248         88.9594          61.976         93.9766 
       0.564743         86.9073          59.099          91.224 
        0.57686         84.2124         56.4546         88.1387 
       0.589077          80.087         53.9584         85.7388 
       0.601441         78.0689         51.5848         83.1763 
        0.61382         76.0981         49.3468         80.3571 
       0.626067         72.9403         47.2584         78.2318 
       0.638306         70.7319         45.2919         75.9421 
       0.650632         68.2754         43.4286         73.2873 
       0.662899         67.2681         41.6826         71.3442 
       0.675076         64.6401         40.0463         69.4806 
       0.687267         63.5688         38.4957         67.6225 
       0.699615         61.3544         37.0079         66.1946 
       0.711937         59.1159         35.6014          64.037 
       0.724148         58.7624         34.2799         63.0282 
       0.736433          55.778          33.019         61.2092 
       0.748747         55.0153         31.8196         59.7307 
       0.761037         53.5278         30.6827         58.3219 
       0.773197          52.341         29.6131         57.3576 
       0.785376          50.662         28.5933         55.8645 
       0.797761          50.151         27.6058         54.8306 
       0.810096         48.6996         26.6687         53.5144 
       0.822371         47.6746         25.7798         52.2983 
       0.834626         46.4258          24.933         51.4302 
       0.846916         45.4137         24.1222         50.3385 
       0.859215         44.1563         23.3472         49.2499 
       0.871383         43.5604         22.6142         48.3882 
        0.88363         42.4329         21.9084         47.5997 
       0.895928         41.4522         21.2302         46.5659 
       0.908253         40.5961         20.5796         45.8227 
       0.920535         40.0744         19.9586           44.94 
       0.932774         39.3464         19.3655         44.1485 
        0.94508         38.6309         18.7936         43.2549 
       0.957324         37.7223         18.2477          42.602 
        0.96953         37.2105         17.7253         41.7911 
       0.981769         36.2649         17.2221         41.2211 
       0.994071         35.6309         16.7362         40.5335 
         1.0064         34.8586         16.2682          39.862 
        1.01868         34.1718         15.8196         39.2763 
        1.03092         33.8554           15.39         38.6152 
         1.0432         33.1086         14.9749         37.9069 
        1.05553         32.4209         14.5735         37.5961 
        1.06777         31.7298         14.1898          36.872 
           1.08         31.0158         13.8204         36.3047 
        1.09227         30.6748          13.463         35.8673 
         1.1046         30.2286         13.1169         35.2657 
         1.1169         29.7907         12.7837         34.7721 
        1.12915         29.3527         12.4638         34.3105 
        1.14142         28.6118         12.1541         33.8226 
        1.15365         28.3075          11.856         33.3909 
        1.16585         27.9091         11.5687         32.9318 
        1.17807         27.3636         11.2906         32.3944 
        1.19037         27.1741         11.0198         32.1368 
        1.20276          26.771         10.7561         31.6637 
        1.21504         26.2217         10.5032         31.3291 
        1.22728         25.7706         10.2594         30.8879 
        1.23954         25.4671         10.0229         30.4363 
        1.25184         24.9822         9.79335         30.1148 
        1.26414         24.6904         9.57093         29.7057 
        1.27632         24.4003         9.35744         29.3517 
         1.2886         24.1408         9.14898         29.0326 
        1.30093         23.5789         8.94616         28.7042 
        1.31316         23.3076         8.75097         28.3591 
        1.32541         23.0668         8.56159         28.0653 
        1.33772         22.6552         8.37678         27.7456 
        1.35005         22.3537         8.19732         27.4599 
        1.36225         22.0593         8.02495         27.1595 
        1.37447         21.5949         7.85722         26.8174 
        1.38676         21.4528         7.69354         26.5774 
        1.39907         21.1228         7.53425          26.295 
        1.41133         20.7766         7.38018         25.9817 
        1.42358         20.5615         7.23056         25.7064 
        1.43591         20.2375         7.08408         25.4803 
        1.44818         20.0189         6.94248         25.2131 
        1.46037         19.8708         6.80559         24.9131 
        1.47263          19.559         6.67164         24.7224 
        1.48494         19.3632         6.54079         24.4336 
        1.49724         19.1938         6.41356         24.2179 
        1.50952          18.827         6.28999         24.0156 
        1.52178         18.6183         6.16985         23.7371 
        1.53409          18.331         6.05238         23.5217 
        1.54637         18.2459         5.93821         23.2607 
        1.55858         17.8806         5.82764         23.0697 
        1.57081         17.7416         5.71974         22.8692 
        1.58313         17.5692          5.6139         22.6408 
        1.59544         17.2592          5.5108         22.4592 
        1.60767         17.1011         5.41096         22.2197 
        1.61994         16.8164         5.31325         22.0479 
        1.63225         16.7586         5.21775         21.8886 
        1.64452          16.501         5.12486         21.6978 
        1.65676         16.3243         5.03454         21.4751 
          1.669         16.1828         4.94632          21.299 
        1.68133         15.8799         4.85966          21.108 
        1.69363         15.7256         4.77534         20.8691 
        1.70585         15.5422         4.69355         20.7708 
        1.71809         15.3692         4.61352          20.576 
        1.73038         15.2069          4.5351         20.4259 
        1.74268         15.0886         4.45846         20.2181 
        1.75493         14.8219         4.38395         20.0669 
        1.76714         14.8199         4.31133         19.9041 
        1.77942         14.6416         4.23999         19.7214 
        1.79173          14.337         4.17008          19.586 
        1.80402         14.2292          4.1019         19.4537 
         1.8163         14.1107         4.03527         19.2705 
         1.8286         13.9165         3.97002         19.1374 
         1.8409         13.7712         3.90627         18.9874 
        1.85315         13.6593         3.84413         18.8326 
        1.86537         13.4981         3.78346         18.6957 
        1.87765         13.3949         3.72388         18.5479 
        1.88995         13.1813         3.66545         18.4062 
        1.90221         13.1005         3.60847         18.2541 
        1.91445         12.9537         3.55279         18.1253 
        1.92674         12.8168          3.4981         17.9873 
        1.93902         12.6764         3.44456         17.8815 
        1.95124         12.5097         3.39243         17.7705 
         1.9635         12.3969         3.34124         17.6039 
        1.97583         12.2815         3.29079         17.4543 
        1.98812         12.1791         3.24157         17.3501 
        2.00039         12.1025         3.19345          17.227 
        2.01264         11.9711         3.14636         17.1177 
        2.02492         11.8496         3.10015         16.9699 
        2.03717         11.6985         3.05495          16.857 
        2.04942         11.5769          3.0107         16.7325 
        2.06171         11.5239         2.96718         16.6176 
        2.07397         11.3936         2.92462         16.5109 
        2.08629         11.2972         2.88272         16.4053 
        2.09857         11.2029         2.84174         16.2844 
        2.11081         11.0844         2.80172         16.1876 
        2.12309         10.9415         2.76238         16.0568 
        2.13538         10.8295         2.72374         15.9456 
        2.14763         10.7515         2.68596         15.8477 
        2.15986         10.7163         2.64899         15.7591 
        2.17214         10.5915         2.61257         15.6304 
        2.18443         10.4498          2.5768         15.5374 
        2.19671         10.4171         2.54174         15.4273 
        2.20898         10.2843         2.50737         15.3372 
        2.22126         10.1652         2.47361         15.2332 
        2.23354         10.1283         2.44048         15.1215 
         2.2458         10.0012         2.40801         15.0507 
        2.25807         9.92001          2.3761         14.9252 
        2.27035         9.84711         2.34475         14.8376 
        2.28263         9.76555         2.31397         14.7377 
         2.2949         9.65829         2.28377         14.6545 
        2.30718         9.59195         2.25409         14.5761 
        2.31946         9.49848         2.22493         14.4753 
        2.33169         9.41865         2.19641         14.3872 
        2.34393         9.34263         2.16834         14.2941 
        2.35622         9.27053         2.14068         14.2091 
        2.36847         9.19363         2.11358         14.1181 
        2.38076          9.1215         2.08686         14.0314 
        2.39305         9.00191         2.06062         13.9361 
        2.40534         8.96046         2.03482         13.8431 
        2.41762         8.89535         2.00947         13.7815 
        2.42989         8.83434         1.98459         13.6927 
        2.44216         8.75363         1.96013         13.5987 
         2.4544         8.67901         1.93614         13.5214 
        2.46667         8.64549          1.9125         13.4459 
        2.47897         8.57383          1.8892         13.3519 
        2.49124          8.4699         1.86635         13.2762 
        2.50349         8.42462         1.84391         13.2017 
        2.51578         8.35731         1.82177         13.1322 
        2.52805         8.30631         1.80004         13.0552 
        2.54029         8.22898         1.77871         12.9809 
        2.55257         8.20375         1.75766         12.8995 
        2.56487         8.08738         1.73692         12.8165 
        2.57716         8.05233         1.71654         12.7466 
        2.58942          8.0229         1.69653         12.6819 
        2.60167         7.96797         1.67686         12.6084 
        2.61395         7.89824         1.65747         12.5341 
        2.62624         7.84194         1.63837         12.4627 
        2.63849         7.80766         1.61962         12.3984 
        2.65073         7.75435         1.60119         12.3189 
        2.66302         7.69157         1.58298         12.2475 
         2.6753         7.66013         1.56506         12.1772 
        2.68756         7.62099         1.54746         12.1215 
        2.69983         7.55632         1.53012         12.0401 
        2.71213         7.51968           1.513         11.9705 
        2.72441         7.46028         1.49618         11.9082 
        2.73665         7.46237         1.47965         11.8351 
         2.7489          7.4094         1.46339         11.7687 
        2.76118         7.33792         1.44731         11.7145 
        2.77349         7.31398         1.43144         11.6474 
        2.78576         7.29364         1.41588         11.5843 
        2.79802         7.24198         1.40055         11.5179 
        2.81031         7.22063         1.38541         11.4586 
        2.82259         7.16686          1.3705         11.3952 
        2.83483         7.13331         1.35587         11.3316 
         2.8471         7.12018         1.34142         11.2757 
         2.8594         7.10901         1.32714         11.2157 
         2.8717         7.06009         1.31307         11.1475 
        2.88396         7.02409         1.29926         11.0903 
        2.89619         6.97616         1.28568         11.0374 
        2.90847         6.97127         1.27223          10.972 
        2.92072         6.97779           1.259         10.9105 
        2.93299         6.93417         1.24595         10.8605 
        2.94526         6.91957         1.23308         10.8017 
        2.95753         6.89356         1.22039         10.7418 
        2.96982         6.86661         1.20786         10.6859 
        2.98209         6.85848         1.19553         10.6242 
        2.99436         6.85884         1.18336         10.5697 
        3.00666         6.85026         1.17134         10.5189 
        3.01894         6.81368         1.15951         10.4648 
        3.03119         6.81504         1.14786         10.4076 
        3.04345          6.8068         1.13637         10.3514 
        3.05573         6.80746         1.12501         10.2987 
          3.068         6.79874         1.11383         10.2479 
        3.08026         6.82137          1.1028         10.1935 
        3.09254         6.81136          1.0919         10.1405 
        3.10483         6.78593         1.08115          10.093 
         3.1171         6.80188         1.07056         10.0426 
        3.12933         6.81915         1.06014         9.98738 
        3.14159         6.79163         1.04984         9.93884 
