# k  (h/Mpc)    Pcb(k)  (Mpc/h)^3    Pcb_linear(k) (Mpc/h)^3    Pcb_NL(k) (Mpc/h)^3   ShotnoiseSubtracted = false
      0.0156606         16641.8         16713.2         16594.6 
      0.0273761         14303.9         14451.4         14324.3 
      0.0384619         10835.7         10887.8         10780.2 
      0.0498308         8392.34         8564.09         8457.63 
      0.0625568         7087.83         7278.46         7181.98 
      0.0751274         6286.82         6183.86         6046.62 
      0.0867833          4887.1          4978.7          4938.2 
      0.0984825         4097.43         3940.01         3982.47 
       0.111151         3488.88         3289.84         3339.29 
       0.123864         3129.21         2964.81         3005.37 
       0.135742         2842.56          2666.1         2707.24 
        0.14762         2462.71         2279.65         2388.46 
       0.160083         2073.58         1900.22         2031.68 
       0.172465         1849.56         1658.53         1824.97 
       0.184281         1688.14         1528.96         1698.06 
       0.196406         1573.62         1411.99         1559.97 
       0.209011         1462.11         1256.31         1411.08 
       0.221538         1319.04          1097.9         1308.32 
       0.233611         1249.23         982.335         1219.04 
       0.245665         1140.17         906.657         1123.37 
       0.258103         1108.98          844.02         1058.83 
       0.270422          994.97         775.556         991.276 
       0.282519             930         703.861         931.903 
       0.294636         919.893         641.295         879.375 
       0.306978         830.579         593.306         839.756 
       0.319417         807.095         554.706         790.835 
        0.33169         760.546         517.759         746.548 
       0.343948         726.158         479.734         721.273 
       0.356249         684.243         444.073         692.478 
       0.368458         662.581         414.204         657.766 
        0.38068         643.387         389.225         630.666 
       0.392856          607.79         366.423         606.639 
       0.405069         580.814         344.127         587.895 
       0.417459         557.694         322.539         562.288 
       0.429752         546.187          303.16         542.185 
       0.441978         527.929         286.151         527.138 
       0.454294         501.027         270.705         504.602 
        0.46658         490.061         256.213         492.901 
       0.478753         476.679         242.542         476.743 
       0.490964         459.065           229.7         461.361 
       0.503334         435.246         217.846         449.643 
       0.515665         434.213         207.037         439.891 
       0.527909         418.089         197.059         428.243 
       0.540159         407.615         187.619         416.364 
        0.55248         399.683         178.661         405.122 
       0.564743          394.81         170.367         397.743 
        0.57686         379.561         162.744         386.414 
       0.589077         367.637         155.548         377.813 
       0.601441         363.418         148.706         369.492 
        0.61382         356.085         142.254         362.602 
       0.626067         350.692         136.234         354.878 
       0.638306         335.984         130.565         348.089 
       0.650632         331.008         125.194         338.326 
       0.662899         328.295          120.16          334.21 
       0.675076         315.719         115.443         328.146 
       0.687267         307.925         110.973         320.451 
       0.699615         303.712         106.684         315.082 
       0.711937         299.112          102.63         309.425 
       0.724148         289.718         98.8204         304.798 
       0.736433         283.415         95.1854         298.724 
       0.748747          279.15          91.728         293.118 
       0.761037         274.056         88.4506         288.673 
       0.773197          270.65         85.3672         284.682 
       0.785376         266.674         82.4274         279.752 
       0.797761         260.144         79.5805         275.496 
       0.810096         257.336         76.8793         271.693 
       0.822371         247.785         74.3167         267.191 
       0.834626         247.159         71.8756         263.331 
       0.846916         241.854         69.5384         259.455 
       0.859215         241.888         67.3043         255.723 
       0.871383         235.388         65.1911         251.871 
        0.88363         233.826         63.1565         249.269 
       0.895928         228.494         61.2015         245.328 
       0.908253         222.382          59.326         241.333 
       0.920535         221.431         57.5357         238.106 
       0.932774         214.595         55.8259         234.821 
        0.94508         212.547         54.1774         232.371 
       0.957324         212.007         52.6038         228.947 
        0.96953         209.026         51.0977          225.74 
       0.981769         202.641         49.6472           223.6 
       0.994071          201.78         48.2463         220.701 
         1.0064         197.296         46.8973         217.377 
        1.01868         194.647         45.6041         214.841 
        1.03092         190.892         44.3656         212.634 
         1.0432         187.329         43.1689         210.011 
        1.05553          184.69         42.0119         207.388 
        1.06777         184.459         40.9058         205.286 
           1.08          179.91         39.8408         202.681 
        1.09227         177.714         38.8105         200.513 
         1.1046         175.087         37.8129         198.371 
         1.1169         172.087         36.8523         195.653 
        1.12915         169.584           35.93         193.853 
        1.14142         166.909         35.0374         191.326 
        1.15365         164.681         34.1779         189.317 
        1.16585         162.421         33.3496         186.861 
        1.17807         160.273         32.5479         185.456 
        1.19037         159.024         31.7673         183.587 
        1.20276         156.365         31.0072         181.305 
        1.21504         153.677          30.278         179.359 
        1.22728         150.738         29.5754         177.087 
        1.23954         150.212         28.8934         175.789 
        1.25184         147.368         28.2318         173.773 
        1.26414         145.089         27.5906         171.953 
        1.27632         144.581         26.9752         170.913 
         1.2886         142.299         26.3742         168.565 
        1.30093         138.295         25.7896         166.742 
        1.31316         137.382         25.2269         164.877 
        1.32541         135.629         24.6809         163.637 
        1.33772         134.372         24.1482         161.868 
        1.35005         132.439         23.6308         160.053 
        1.36225         130.779         23.1339         158.621 
        1.37447         128.636         22.6504         156.793 
        1.38676         127.278         22.1786         155.311 
        1.39907         124.805         21.7194         153.793 
        1.41133         123.105         21.2752         152.489 
        1.42358          121.36         20.8439          151.05 
        1.43591         120.243         20.4217         149.356 
        1.44818         119.107         20.0135           148.1 
        1.46037         116.853         19.6188         146.567 
        1.47263         115.722         19.2327         145.458 
        1.48494         114.057         18.8555         143.783 
        1.49724         112.494         18.4887         142.431 
        1.50952         110.449         18.1325          141.14 
        1.52178         109.927         17.7862         139.723 
        1.53409          107.99         17.4475         138.555 
        1.54637         106.494         17.1184         137.348 
        1.55858         104.767         16.7997         135.947 
        1.57081         103.402         16.4886         134.791 
        1.58313         102.225         16.1835         133.481 
        1.59544         101.083         15.8863         132.324 
        1.60767         99.7007         15.5985         131.041 
        1.61994         98.1026         15.3168          130.14 
        1.63225         96.8425         15.0415         128.581 
        1.64452         95.2179         14.7737         127.473 
        1.65676         93.9375         14.5133          126.44 
          1.669         93.3383          14.259         125.413 
        1.68133         91.6823         14.0092         124.228 
        1.69363         90.7877         13.7661         123.176 
        1.70585         89.2372         13.5304          122.05 
        1.71809         88.0501         13.2997          120.93 
        1.73038         87.3354         13.0736         119.882 
        1.74268         86.0201         12.8527         118.814 
        1.75493         84.9746         12.6379         117.752 
        1.76714         83.6348         12.4285         116.806 
        1.77942         82.8505         12.2229         115.685 
        1.79173         81.4895         12.0213         114.778 
        1.80402         80.8579         11.8248         113.832 
         1.8163         79.4635         11.6327         112.697 
         1.8286         78.3669         11.4446         111.797 
         1.8409          77.661         11.2608          110.83 
        1.85315         76.4379         11.0817         109.958 
        1.86537         75.5907         10.9068         109.016 
        1.87765         74.9022          10.735         108.013 
        1.88995         73.6721         10.5666         107.187 
        1.90221         72.7494         10.4023         106.258 
        1.91445         71.4858         10.2418         105.341 
        1.92674         70.6383         10.0842         104.495 
        1.93902         69.7578         9.92983         103.553 
        1.95124         69.2071         9.77954          102.79 
         1.9635         68.0919         9.63198         101.772 
        1.97583         67.2315         9.48654          101.08 
        1.98812         66.4044         9.34465         100.198 
        2.00039         65.3542         9.20594          99.366 
        2.01264         64.8633         9.07019         98.5283 
        2.02492         63.8857         8.93698         97.7313 
        2.03717         62.8967         8.80666         96.8688 
        2.04942         62.4658         8.67912         96.1914 
        2.06171          61.263         8.55367         95.3532 
        2.07397         60.6514         8.43097         94.6282 
        2.08629         60.0608         8.31017         93.8026 
        2.09857         59.1664         8.19203         93.0675 
        2.11081         58.1222         8.07668         92.2285 
        2.12309         57.7848         7.96326         91.6012 
        2.13538         56.8677         7.85187          90.827 
        2.14763         56.1935         7.74298         90.1051 
        2.15986         55.1544          7.6364         89.3671 
        2.17214         54.7474          7.5314         88.6449 
        2.18443         54.1312         7.42828         88.0348 
        2.19671         53.1964         7.32721         87.2766 
        2.20898          53.004         7.22815         86.5844 
        2.22126         52.1327         7.13081         85.8678 
        2.23354          51.439         7.03529         85.2361 
         2.2458         50.8507          6.9417          84.601 
        2.25807         50.2592         6.84972         83.8773 
        2.27035         49.7135         6.75933         83.2201 
        2.28263         48.8719         6.67062         82.5586 
         2.2949         48.4984         6.58354         81.9273 
        2.30718         47.6656         6.49799         81.3263 
        2.31946         47.1464         6.41392         80.7091 
        2.33169         46.5443         6.33171         80.0804 
        2.34393         45.8052          6.2508         79.4734 
        2.35622         45.5458         6.17106         78.8524 
        2.36847         44.9459         6.09292         78.3048 
        2.38076         44.3492         6.01591         77.6416 
        2.39305         43.8144         5.94025         77.0942 
        2.40534         43.3621         5.86589           76.46 
        2.41762         42.9475          5.7928         75.8481 
        2.42989         42.3171         5.72108         75.3502 
        2.44216         41.9461         5.65058         74.7548 
         2.4544         41.4317         5.58143         74.1846 
        2.46667          40.998         5.51327         73.6005 
        2.47897          40.509         5.44609         73.0701 
        2.49124         39.9647         5.38022         72.5387 
        2.50349         39.4504         5.31553         71.9751 
        2.51578         38.9694         5.25172         71.5041 
        2.52805         38.7609         5.18906         70.9435 
        2.54029         38.2198         5.12758         70.3868 
        2.55257         37.6537         5.06691         69.8988 
        2.56487          37.394         5.00711          69.416 
        2.57716         36.9027         4.94836         68.9255 
        2.58942         36.4551         4.89068         68.3966 
        2.60167         36.0194         4.83398         67.8914 
        2.61395         35.6551         4.77809         67.4054 
        2.62624         35.3985         4.72301         66.8997 
        2.63849          35.062         4.66897         66.4377 
        2.65073         34.6872         4.61584         65.9312 
        2.66302         34.2097         4.56334         65.4588 
         2.6753         33.8326         4.51169         65.0002 
        2.68756         33.3597         4.46094         64.5035 
        2.69983         33.1796         4.41095         64.0857 
        2.71213         32.8525         4.36161         63.6483 
        2.72441         32.5606         4.31311          63.176 
        2.73665         32.2006         4.26548         62.7188 
         2.7489         32.0479         4.21858         62.2815 
        2.76118         31.5514         4.17225         61.8547 
        2.77349         31.4241          4.1265         61.4194 
        2.78576         31.1841         4.08162         60.9666 
        2.79802         30.7219         4.03743         60.5779 
        2.81031          30.452         3.99379           60.15 
        2.82259         30.2907         3.95082          59.708 
        2.83483         29.9428         3.90864         59.3071 
         2.8471         29.6106         3.86699          58.906 
         2.8594         29.5072         3.82582         58.5004 
         2.8717         29.2096         3.78527          58.097 
        2.88396         28.9603         3.74546         57.6771 
        2.89619         28.7053         3.70629         57.2715 
        2.90847         28.5335         3.66753         56.8989 
        2.92072         28.2976         3.62939         56.5066 
        2.93299         28.1594         3.59178         56.1179 
        2.94526         27.8942         3.55466         55.7557 
        2.95753         27.7477         3.51808         55.3832 
        2.96982         27.6669         3.48196          55.004 
        2.98209         27.3817         3.44641         54.6401 
        2.99436         27.1977         3.41133         54.2562 
        3.00666         27.1261         3.37668         53.9028 
        3.01894         26.8968         3.34258         53.5236 
        3.03119         26.8098           3.309         53.1758 
        3.04345          26.633         3.27587         52.8461 
        3.05573         26.5911         3.24314         52.4967 
          3.068         26.4525         3.21088         52.1447 
        3.08026         26.2786          3.1791         51.7939 
        3.09254         26.2029         3.14769         51.4543 
        3.10483         26.2123          3.1167         51.1249 
         3.1171         26.1509         3.08616         50.7921 
        3.12933         26.0571         3.05612          50.454 
        3.14159         25.9262         3.02642         50.1209 
