# k  (h/Mpc)    P(k)  (Mpc/h)^3    P_linear(k)  (Mpc/h)^3     P_NL(k)  ShotnoiseSubtracted = false
      0.0156606         13654.5           13704         13613.4 
      0.0273761         11738.6         11831.1         11742.8 
      0.0384619         8892.83         8906.62         8835.36 
      0.0498308         6896.78         7002.35         6933.16 
      0.0625568         5820.84         5949.18          5885.4 
      0.0751274         5145.46         5053.42          4961.6 
      0.0867833         4009.61         4068.02         4042.31 
      0.0984825         3343.11         3219.01         3250.51 
       0.111151         2837.54         2687.61         2722.79 
       0.123864         2546.15         2421.94         2451.11 
       0.135742         2307.62         2177.83         2207.63 
        0.14762         1991.83          1862.1         1939.62 
       0.160083          1668.7         1552.12          1644.3 
       0.172465         1487.57         1354.67         1470.67 
       0.184281         1363.55         1248.83         1367.91 
       0.196406         1262.15         1153.27         1254.98 
       0.209011         1166.87          1026.1         1133.59 
       0.221538         1052.57         896.707         1044.64 
       0.233611         987.848         802.313         968.695 
       0.245665          907.44         740.499         891.714 
       0.258103         869.712         689.336         839.388 
       0.270422         785.863         633.416         783.699 
       0.282519         728.926         574.857          733.08 
       0.294636         722.275         523.756         689.477 
       0.306978         647.397          484.56          656.45 
       0.319417         625.806         453.034         617.714 
        0.33169         589.575         422.858         582.034 
       0.343948         561.901         391.801         560.229 
       0.356249          527.63         362.676         536.496 
       0.368458         511.895          338.28         507.658 
        0.38068          492.91         317.882         485.578 
       0.392856         463.793         299.258         466.129 
       0.405069         444.747         281.047         451.133 
       0.417459         425.976         263.417         429.198 
       0.429752         413.659          247.59         413.491 
       0.441978         400.185         233.698         401.268 
       0.454294         377.338         221.083         383.419 
        0.46658         372.129         209.247         373.527 
       0.478753         358.955         198.081         360.703 
       0.490964         346.316         187.593          348.47 
       0.503334         326.942         177.913         338.882 
       0.515665          325.03         169.085         331.356 
       0.527909         314.098         160.936         321.138 
       0.540159         305.908         153.225         311.991 
        0.55248         299.944          145.91         303.105 
       0.564743         294.009         139.136         297.009 
        0.57686         282.911         132.911          288.06 
       0.589077         272.379         127.034         281.795 
       0.601441         269.173         121.446         275.165 
        0.61382         265.448         116.177         269.224 
       0.626067         259.968          111.26         263.095 
       0.638306         248.085          106.63         257.999 
       0.650632         242.863         102.243         250.184 
       0.662899         241.679         98.1328         246.547 
       0.675076         232.563         94.2803         241.387 
       0.687267         226.712         90.6299         235.986 
       0.699615         222.863         87.1271         231.582 
       0.711937         218.534         83.8158         227.268 
       0.724148         213.151         80.7047         223.858 
       0.736433         208.518         77.7361         219.013 
       0.748747         204.445         74.9124         214.704 
       0.761037         201.211         72.2358          210.81 
       0.773197         197.772         69.7177         208.225 
       0.785376         195.454         67.3168         203.967 
       0.797761          190.86         64.9917          201.25 
       0.810096         187.656         62.7857         197.863 
       0.822371         180.791         60.6929         194.567 
       0.834626         179.751         58.6993         191.403 
       0.846916         176.862         56.7905         188.613 
       0.859215         175.817          54.966         185.744 
       0.871383         171.462         53.2401         182.698 
        0.88363         169.312         51.5785         180.723 
       0.895928         165.615         49.9819         178.049 
       0.908253         161.082         48.4502         174.908 
       0.920535         160.534         46.9881         172.615 
       0.932774         155.247         45.5918          170.01 
        0.94508         154.056         44.2454         168.123 
       0.957324         153.342         42.9603         165.585 
        0.96953         151.633         41.7304         163.022 
       0.981769         146.935         40.5457         161.572 
       0.994071         146.235         39.4016          159.37 
         1.0064         142.668         38.2999         156.952 
        1.01868         140.993         37.2438         155.238 
        1.03092         138.739         36.2324         153.451 
         1.0432         136.141          35.255         151.486 
        1.05553         133.601         34.3101         149.823 
        1.06777         133.381         33.4068         148.243 
           1.08         130.382         32.5371         146.255 
        1.09227         128.947         31.6956         144.775 
         1.1046         126.757         30.8809         143.016 
         1.1169         125.198         30.0964         141.088 
        1.12915         123.181         29.3432         139.643 
        1.14142         121.307         28.6142         137.849 
        1.15365         119.479         27.9123          136.38 
        1.16585         117.861         27.2358         134.662 
        1.17807         116.059         26.5811         133.666 
        1.19037         115.653         25.9436          132.24 
        1.20276         113.159         25.3228         130.635 
        1.21504         112.031         24.7273         129.186 
        1.22728         109.745         24.1535         127.731 
        1.23954          109.01         23.5966         126.513 
        1.25184         106.685         23.0562         125.166 
        1.26414         105.415         22.5326          123.89 
        1.27632         104.645           22.03         123.226 
         1.2886         102.716         21.5392         121.394 
        1.30093         100.629         21.0617         120.092 
        1.31316         100.164         20.6022         118.967 
        1.32541          98.788         20.1563         117.989 
        1.33772         97.5874         19.7212         116.743 
        1.35005         96.4717         19.2987         115.491 
        1.36225         95.2022         18.8929         114.437 
        1.37447         93.2449         18.4981         113.201 
        1.38676         92.9766         18.1127         111.972 
        1.39907          90.897         17.7377         111.089 
        1.41133         89.6062          17.375           110.2 
        1.42358         88.5609         17.0227         109.006 
        1.43591         87.9685         16.6779         107.866 
        1.44818         86.8834         16.3445         106.944 
        1.46037         85.4246         16.0222         105.952 
        1.47263         84.0574         15.7069         105.128 
        1.48494         83.5133         15.3988         104.044 
        1.49724         82.0677         15.0993          102.94 
        1.50952         80.9847         14.8084         102.034 
        1.52178         80.1069         14.5255         101.173 
        1.53409         79.3982          14.249         100.285 
        1.54637         77.5306         13.9802         99.3425 
        1.55858         76.8171         13.7199         98.4112 
        1.57081         75.8445         13.4658         97.5923 
        1.58313         74.7986         13.2167          96.736 
        1.59544         74.0031         12.9739         95.8369 
        1.60767         73.0208         12.7389         94.9808 
        1.61994          72.076         12.5088         94.3609 
        1.63225         70.9806          12.284         93.2393 
        1.64452          70.142         12.0653         92.5474 
        1.65676         69.0966         11.8527         91.7195 
          1.669         68.6228          11.645         90.9797 
        1.68133         67.8408          11.441         90.1382 
        1.69363         66.8184         11.2424         89.4699 
        1.70585         66.1787         11.0499         88.6321 
        1.71809         64.8798         10.8615         88.0032 
        1.73038         64.1865         10.6769         87.1345 
        1.74268         63.2794         10.4964         86.4523 
        1.75493         62.7274          10.321         85.6767 
        1.76714         61.7726         10.1501         84.9528 
        1.77942          61.428         9.98209         84.2451 
        1.79173         60.3493         9.81751         83.4978 
        1.80402         59.6952         9.65698         82.8964 
         1.8163         58.9789         9.50014         82.0857 
         1.8286         58.0964         9.34651         81.5544 
         1.8409         57.2195         9.19641            80.8 
        1.85315         56.4983         9.05012         80.2685 
        1.86537         55.9466          8.9073         79.5412 
        1.87765         55.2502         8.76704         78.7786 
        1.88995         54.5674         8.62946         78.2105 
        1.90221         54.0786         8.49532         77.5634 
        1.91445         53.1551         8.36424         76.9877 
        1.92674         52.6591         8.23549         76.3513 
        1.93902         52.0039         8.10944         75.6848 
        1.95124         51.5999          7.9867         75.1982 
         1.9635         50.6218         7.86619          74.477 
        1.97583         50.1315         7.74741         73.9896 
        1.98812         49.4459         7.63153         73.3295 
        2.00039         48.9323         7.51826         72.7502 
        2.01264         48.1899         7.40739         72.1901 
        2.02492          47.662          7.2986         71.6488 
        2.03717         47.0243         7.19217         71.0155 
        2.04942         46.4245         7.08801          70.534 
        2.06171         45.8666         6.98556         69.9061 
        2.07397         45.2407         6.88536         69.4342 
        2.08629         44.7484         6.78671         68.8263 
        2.09857         44.3859         6.69022         68.3533 
        2.11081         43.4872         6.59601         67.7584 
        2.12309         43.1519         6.50339         67.2641 
        2.13538         42.6351         6.41242          66.757 
        2.14763         42.2265         6.32349         66.2502 
        2.15986         41.8317         6.23645         65.7231 
        2.17214         41.0964          6.1507         65.2956 
        2.18443         40.9019         6.06648         64.7392 
        2.19671         40.1414         5.98394         64.2162 
        2.20898         39.7581         5.90304         63.7286 
        2.22126         39.3253         5.82355          63.236 
        2.23354         38.7972         5.74554         62.8188 
         2.2458         38.4661          5.6691         62.3383 
        2.25807         37.9657         5.59399         61.8295 
        2.27035          37.501         5.52017         61.3784 
        2.28263         37.0225         5.44772         60.9197 
         2.2949         36.5189         5.37661         60.4813 
        2.30718         36.2159         5.30674         60.0408 
        2.31946         35.7112         5.23809         59.6123 
        2.33169         35.3696         5.17094         59.1446 
        2.34393         34.8269         5.10487         58.6941 
        2.35622         34.5183         5.03974         58.2797 
        2.36847         34.0795         4.97593         57.8355 
        2.38076         33.8631         4.91304         57.4402 
        2.39305         33.4331         4.85125         57.0232 
        2.40534         33.0656         4.79052         56.5384 
        2.41762         32.6736         4.73083         56.1347 
        2.42989         32.2171         4.67226         55.7722 
        2.44216         31.9812         4.61468         55.3498 
         2.4544         31.6798         4.55821         54.9663 
        2.46667         31.1205         4.50255         54.5301 
        2.47897         30.9045         4.44768         54.1617 
        2.49124         30.5312         4.39389         53.7634 
        2.50349         30.1739         4.34106         53.4062 
        2.51578         29.8261         4.28894         53.0324 
        2.52805         29.6294         4.23777         52.6269 
        2.54029         29.3708         4.18756         52.2637 
        2.55257         28.9818         4.13801         51.9028 
        2.56487         28.6972         4.08918         51.5356 
        2.57716         28.4244          4.0412         51.1937 
        2.58942         28.0406         3.99409         50.8241 
        2.60167          27.721         3.94778         50.4299 
        2.61395         27.4858         3.90214         50.0971 
        2.62624         27.2303         3.85716          49.753 
        2.63849         27.0049         3.81303         49.4032 
        2.65073         26.6906         3.76963         49.0372 
        2.66302         26.3752         3.72676         48.7247 
         2.6753         26.1297         3.68458         48.3839 
        2.68756         25.8414         3.64314         48.0474 
        2.69983         25.6525         3.60231         47.7171 
        2.71213         25.2978         3.56201         47.4021 
        2.72441         25.1984         3.52241         47.0523 
        2.73665         24.9261          3.4835         46.7343 
         2.7489         24.7491         3.44521         46.4226 
        2.76118         24.5044         3.40737         46.0833 
        2.77349         24.2979         3.37001         45.7964 
        2.78576         24.1204         3.33335         45.4763 
        2.79802         23.8064         3.29726         45.1665 
        2.81031         23.6442         3.26163         44.8781 
        2.82259         23.4635         3.22653         44.5592 
        2.83483         23.2146         3.19208         44.2542 
         2.8471         23.1177         3.15807         43.9627 
         2.8594         22.8618         3.12445         43.6842 
         2.8717         22.6369         3.09133         43.3816 
        2.88396          22.553         3.05882          43.078 
        2.89619         22.4086         3.02683          42.797 
        2.90847         22.2304         2.99518         42.5091 
        2.92072         22.0747         2.96403         42.2446 
        2.93299         21.9886         2.93331         41.9542 
        2.94526         21.8333           2.903          41.684 
        2.95753         21.6459         2.87313         41.4238 
        2.96982         21.6319         2.84362         41.1475 
        2.98209         21.4208          2.8146         40.8797 
        2.99436         21.3243         2.78595         40.6149 
        3.00666         21.1914         2.75765         40.3476 
        3.01894         21.1379          2.7298         40.0712 
        3.03119          20.959         2.70237         39.8053 
        3.04345         20.8676         2.67532         39.5572 
        3.05573         20.7943         2.64859         39.3087 
          3.068         20.7655         2.62224         39.0467 
        3.08026         20.7523         2.59629         38.7928 
        3.09254         20.6188         2.57064         38.5541 
        3.10483         20.6144         2.54533         38.3133 
         3.1171         20.5294         2.52039         38.0662 
        3.12933         20.5159         2.49586         37.8229 
        3.14159         20.5028          2.4716         37.5775 
