# k  (h/Mpc)    Pcb(k)  (Mpc/h)^3    Pcb_linear(k) (Mpc/h)^3    Pcb_NL(k) (Mpc/h)^3   ShotnoiseSubtracted = false
      0.0156606         4272.16         4276.87         4254.83 
      0.0273761         3705.36         3700.22         3687.72 
      0.0384619         2815.59         2788.52         2782.58 
      0.0498308         2202.63         2193.71         2189.41 
      0.0625568         1858.42         1864.57         1859.25 
      0.0751274         1616.17         1584.25         1575.34 
      0.0867833         1276.94         1275.55         1274.08 
      0.0984825         1040.78         1009.46         1014.63 
       0.111151          873.62         842.897         848.028 
       0.123864         784.862         759.632         763.779 
       0.135742         706.193         683.105         687.319 
        0.14762         601.055         584.093         593.997 
       0.160083         498.977         486.878         498.112 
       0.172465         441.229         424.954          438.58 
       0.184281         408.924         391.759         406.234 
       0.196406          372.96         361.789         373.108 
       0.209011         337.722         321.901          334.58 
       0.221538         301.335         281.312         299.033 
       0.233611          273.13         251.702         271.448 
       0.245665         256.572         232.311         249.913 
       0.258103         232.331         216.262         233.799 
       0.270422         217.569          198.72         215.875 
       0.282519         197.669          180.35         198.526 
       0.294636         190.817         164.319         183.496 
       0.306978         168.402         152.023         171.897 
       0.319417         161.025         142.133         161.301 
        0.33169         149.932         132.666         151.189 
       0.343948         142.862         122.922         141.987 
       0.356249         131.734         113.785         134.274 
       0.368458         126.273         106.132         125.352 
        0.38068          118.97         99.7314         118.752 
       0.392856         110.975          93.889         113.036 
       0.405069         105.319         88.1761         107.045 
       0.417459         99.4551         82.6445         101.323 
       0.429752          95.451          77.679         96.4666 
       0.441978         91.1843         73.3208         92.6661 
       0.454294         84.8102         69.3632          87.763 
        0.46658         84.6434         65.6499         84.0908 
       0.478753         78.8037         62.1468         80.6296 
       0.490964         76.3256         58.8563         77.3927 
       0.503334         73.1238          55.819         74.0883 
       0.515665         70.0499         53.0495         71.8297 
       0.527909         67.2386         50.4928         68.1318 
       0.540159         64.7572         48.0739         65.8032 
        0.55248         61.0346         45.7787         63.2104 
       0.564743         59.9705         43.6535         61.2159 
        0.57686          58.093         41.7002         59.0457 
       0.589077          54.988         39.8564         57.2737 
       0.601441         53.3795         38.1031         55.3706 
        0.61382         51.7402         36.4501         53.3283 
       0.626067         49.6081         34.9075         51.8397 
       0.638306          48.116         33.4549         50.0958 
       0.650632         46.6035         32.0786         48.4318 
       0.662899         45.2927         30.7889         46.9364 
       0.675076         43.3618         29.5802         45.5806 
       0.687267         42.8091          28.435         44.2396 
       0.699615         41.2711          27.336         43.1867 
       0.711937         39.4761         26.2971          41.722 
       0.724148         39.2924          25.321         40.8881 
       0.736433         37.0939         24.3896         39.6584 
       0.748747         36.6072         23.5037         38.6117 
       0.761037         35.5952         22.6639         37.6951 
       0.773197         34.6834         21.8738         36.8581 
       0.785376         33.3909         21.1206         35.9057 
       0.797761         32.9047         20.3911         35.1071 
       0.810096          32.133          19.699         34.2395 
       0.822371          31.327         19.0423         33.3486 
       0.834626         30.4144         18.4169         32.7469 
       0.846916         29.6278          17.818         31.9502 
       0.859215         28.6534         17.2455         31.2396 
       0.871383         28.2392         16.7041         30.6467 
        0.88363         27.5252         16.1828         30.0357 
       0.895928         26.9225         15.6818         29.2999 
       0.908253         26.3573         15.2012         28.8091 
       0.920535         25.7748         14.7425         28.1828 
       0.932774         25.3499         14.3044         27.5932 
        0.94508         24.7249          13.882         27.0409 
       0.957324         24.2383         13.4788         26.5581 
        0.96953         23.5997         13.0929         26.0161 
       0.981769         23.2742         12.7212         25.5998 
       0.994071         22.6776         12.3623         25.0918 
         1.0064         22.1449         12.0166         24.6612 
        1.01868         21.6953         11.6852           24.25 
        1.03092         21.5155         11.3679         23.7909 
         1.0432         20.8536         11.0613         23.3317 
        1.05553         20.4958         10.7648         23.0731 
        1.06777          19.929         10.4814         22.5675 
           1.08         19.5465         10.2085         22.2185 
        1.09227         19.2408         9.94452          21.911 
         1.1046         18.9592         9.68891         21.4975 
         1.1169         18.5648         9.44277         21.1578 
        1.12915         18.4122         9.20643         20.8645 
        1.14142         17.7873         8.97772         20.5132 
        1.15365         17.6572         8.75749         20.2073 
        1.16585         17.4376         8.54526         19.9409 
        1.17807         16.9638         8.33983         19.5654 
        1.19037           16.79         8.13983         19.3651 
        1.20276         16.5038         7.94505         19.0476 
        1.21504         16.2183         7.75821         18.8135 
        1.22728          15.854         7.57818         18.5201 
        1.23954         15.6462         7.40344         18.2602 
        1.25184         15.3597         7.23391         18.0235 
        1.26414         15.1549         7.06962         17.7478 
        1.27632          14.884         6.91192         17.5091 
         1.2886         14.7248         6.75794         17.2971 
        1.30093          14.383         6.60813         17.1217 
        1.31316         14.2087         6.46395          16.849 
        1.32541         14.0122         6.32406         16.6843 
        1.33772         13.7523         6.18755         16.4472 
        1.35005         13.5876         6.05499         16.2619 
        1.36225         13.3762         5.92767         16.0386 
        1.37447          13.128         5.80378         15.8447 
        1.38676         12.9503         5.68288         15.6711 
        1.39907         12.7389         5.56522         15.4757 
        1.41133         12.5615         5.45141         15.2972 
        1.42358         12.3718          5.3409         15.1008 
        1.43591         12.2097          5.2327         14.9658 
        1.44818         12.0002          5.1281          14.795 
        1.46037         11.9184         5.02699         14.5969 
        1.47263         11.6945         4.92805         14.4721 
        1.48494         11.6041          4.8314         14.2684 
        1.49724         11.3899         4.73742         14.1486 
        1.50952         11.2908         4.64614         14.0004 
        1.52178          11.105          4.5574         13.8302 
        1.53409         10.8975         4.47063          13.685 
        1.54637         10.8566          4.3863         13.5132 
        1.55858         10.7112         4.30463         13.3949 
        1.57081         10.4822         4.22492         13.2724 
        1.58313         10.4179         4.14674         13.1348 
        1.59544         10.2251         4.07059         13.0118 
        1.60767          10.123         3.99684         12.8661 
        1.61994         9.95519         3.92466         12.7544 
        1.63225         9.87625         3.85412         12.6361 
        1.64452         9.74377         3.78551         12.5184 
        1.65676         9.60865         3.71879         12.3869 
          1.669           9.536         3.65363         12.2614 
        1.68133         9.34187         3.58962         12.1433 
        1.69363         9.23726         3.52733         12.0281 
        1.70585         9.12701         3.46692         11.9336 
        1.71809         9.02733         3.40781         11.8213 
        1.73038         8.94391         3.34988         11.7239 
        1.74268         8.83247         3.29327         11.6118 
        1.75493         8.68693         3.23823         11.4899 
        1.76714         8.68303         3.18459         11.4071 
        1.77942         8.55788          3.1319         11.2878 
        1.79173         8.40666         3.08026         11.1997 
        1.80402         8.36132         3.02989         11.1053 
         1.8163         8.25326         2.98068         11.0167 
         1.8286         8.12371         2.93248         10.9231 
         1.8409         8.04895         2.88539         10.8363 
        1.85315         7.95526         2.83949          10.733 
        1.86537         7.89321         2.79468         10.6498 
        1.87765         7.81176         2.75067         10.5615 
        1.88995         7.66614          2.7075          10.481 
        1.90221         7.63856         2.66542         10.3784 
        1.91445          7.5344         2.62429         10.3183 
        1.92674           7.454          2.5839         10.2196 
        1.93902         7.39946         2.54435         10.1521 
        1.95124         7.29984         2.50584         10.0569 
         1.9635         7.23219         2.46803         9.98942 
        1.97583         7.17358         2.43076          9.9001 
        1.98812         7.10037          2.3944         9.81194 
        2.00039         7.01898         2.35886         9.76022 
        2.01264         6.95593         2.32408          9.6857 
        2.02492         6.89414         2.28995         9.60299 
        2.03717         6.80188         2.25656         9.53325 
        2.04942         6.71487         2.22387         9.46856 
        2.06171         6.69277         2.19173         9.39891 
        2.07397         6.60933         2.16029         9.33029 
        2.08629         6.54281         2.12934         9.26598 
        2.09857         6.47733         2.09907         9.19378 
        2.11081          6.4318         2.06951         9.14039 
        2.12309         6.34999         2.04045         9.05478 
        2.13538         6.29763         2.01191         9.00298 
        2.14763         6.22543           1.984         8.93902 
        2.15986         6.19038          1.9567         8.87723 
        2.17214         6.13237         1.92979         8.80408 
        2.18443         6.06559         1.90337         8.75151 
        2.19671          6.0202         1.87747          8.6933 
        2.20898         5.94305         1.85209         8.63454 
        2.22126         5.89712         1.82715         8.57105 
        2.23354         5.85563         1.80267         8.50715 
         2.2458          5.7897         1.77869         8.45342 
        2.25807         5.74989         1.75512         8.39762 
        2.27035         5.69822         1.73196         8.34531 
        2.28263         5.65536         1.70923         8.28711 
         2.2949         5.59836         1.68692         8.23844 
        2.30718         5.55096           1.665         8.19533 
        2.31946         5.51653         1.64346         8.13896 
        2.33169         5.45865         1.62239         8.08234 
        2.34393         5.43075         1.60166         8.02925 
        2.35622         5.38885         1.58123         7.97787 
        2.36847         5.34145         1.56121         7.92721 
        2.38076          5.2989         1.54147         7.87748 
        2.39305         5.23724         1.52209         7.82047 
        2.40534         5.20967         1.50303         7.77149 
        2.41762         5.15724         1.48431          7.7337 
        2.42989         5.13721         1.46593         7.68859 
        2.44216         5.10317         1.44786         7.63786 
         2.4544         5.04513         1.43014         7.58829 
        2.46667          5.0343         1.41268         7.54337 
        2.47897         4.98634         1.39547          7.4932 
        2.49124         4.93625         1.37859         7.44841 
        2.50349         4.91644         1.36201         7.41323 
        2.51578         4.85932         1.34566         7.36827 
        2.52805         4.83891         1.32961         7.32352 
        2.54029          4.8008         1.31385         7.28087 
        2.55257         4.79133         1.29831         7.24101 
        2.56487         4.74116         1.28299         7.19034 
        2.57716         4.71375         1.26793         7.15177 
        2.58942         4.68084         1.25315         7.11123 
        2.60167         4.65245         1.23862         7.06801 
        2.61395         4.60241          1.2243         7.03056 
        2.62624         4.60666         1.21019         6.99212 
        2.63849         4.57671         1.19634         6.94947 
        2.65073         4.53768         1.18273         6.90698 
        2.66302         4.52089         1.16928         6.86783 
         2.6753         4.48473         1.15604         6.83058 
        2.68756         4.45921         1.14304         6.79711 
        2.69983         4.43895         1.13023         6.75341 
        2.71213         4.41108         1.11759         6.71602 
        2.72441         4.38626         1.10516         6.68094 
        2.73665         4.37022         1.09295         6.64127 
         2.7489         4.34266         1.08094         6.60849 
        2.76118         4.31355         1.06907         6.57998 
        2.77349         4.30495         1.05734         6.53662 
        2.78576         4.28466         1.04585         6.50168 
        2.79802          4.2674         1.03452         6.46905 
        2.81031         4.24079         1.02334         6.43576 
        2.82259         4.22543         1.01233         6.40133 
        2.83483         4.21894         1.00152         6.36658 
         2.8471         4.19839         0.99085         6.33413 
         2.8594         4.18658        0.980301         6.30241 
         2.8717         4.15774         0.96991         6.26493 
        2.88396         4.15405        0.959709         6.23265 
        2.89619          4.1212        0.949672         6.20435 
        2.90847         4.11949        0.939741         6.16708 
        2.92072         4.12043        0.929969         6.13605 
        2.93299         4.11488        0.920331         6.10671 
        2.94526          4.1042        0.910821         6.07367 
        2.95753         4.08756        0.901448         6.04209 
        2.96982         4.06431        0.892191         6.01282 
        2.98209         4.06608        0.883083          5.9806 
        2.99436         4.05917        0.874095         5.95045 
        3.00666         4.06845        0.865216         5.92261 
        3.01894          4.0558        0.856478          5.8875 
        3.03119         4.05741        0.847873         5.85998 
        3.04345         4.04629        0.839386         5.83289 
        3.05573         4.04813        0.830997          5.8012 
          3.068         4.03518        0.822733         5.77565 
        3.08026         4.05307        0.814589         5.74818 
        3.09254         4.05339        0.806541         5.71825 
        3.10483         4.05627          0.7986         5.69197 
         3.1171         4.06218        0.790776         5.66578 
        3.12933         4.07238        0.783079         5.63499 
        3.14159         4.06452        0.775467         5.60596 
