# k  (h/Mpc)    P(k)  (Mpc/h)^3    P_linear(k)  (Mpc/h)^3     P_NL(k)  ShotnoiseSubtracted = false
      0.0156606         17622.6         17781.8         17652.7 
      0.0273761         15113.7         15349.5         15207.9 
      0.0384619         11434.7         11554.3         11433.1 
      0.0498308         8845.81         9083.34         8963.01 
      0.0625568         7468.41          7716.8         7608.26 
      0.0751274         6629.04         6554.66         6400.79 
      0.0867833         5148.04         5276.41         5230.42 
      0.0984825         4323.33         4175.12          4221.4 
       0.111151         3684.64         3485.83         3540.48 
       0.123864         3303.74         3141.22         3185.89 
       0.135742         3003.35          2824.6          2869.8 
        0.14762         2604.91         2415.08         2534.92 
       0.160083         2197.25         2013.04         2158.52 
       0.172465         1959.92         1756.95         1941.42 
       0.184281         1786.07         1619.67          1806.5 
       0.196406          1669.1         1495.73         1660.41 
       0.209011         1553.27          1330.8         1502.58 
       0.221538          1400.9         1162.97         1395.51 
       0.233611         1330.63         1040.55         1302.07 
       0.245665         1212.14         960.378         1200.37 
       0.258103         1184.25         894.022         1131.85 
       0.270422         1060.48         821.496         1060.49 
       0.282519          993.71         745.548         998.532 
       0.294636         981.717         679.273         943.122 
       0.306978         888.712         628.439         901.387 
       0.319417         865.207         587.551         849.095 
        0.33169          815.02         548.414         802.077 
       0.343948         778.913         508.135          775.61 
       0.356249         734.851         470.362         745.182 
       0.368458         710.614         438.723         708.739 
        0.38068         692.126         412.267         680.041 
       0.392856          654.61         388.113         654.589 
       0.405069         624.601         364.495          634.34 
       0.417459         600.114          341.63         607.833 
       0.429752         589.729         321.103         586.236 
       0.441978         569.739         303.087         570.295 
       0.454294         541.732         286.727         546.179 
        0.46658         528.697         271.376         533.898 
       0.478753         515.462         256.894         516.677 
       0.490964         496.068         243.291         500.234 
       0.503334         471.344         230.738          487.88 
       0.515665         470.374         219.289          477.28 
       0.527909         452.384          208.72         465.244 
       0.540159         440.995          198.72         452.518 
        0.55248           432.4         189.232         440.433 
       0.564743         427.941         180.448         432.603 
        0.57686         411.598         172.374         420.493 
       0.589077         399.714         164.752          411.09 
       0.601441         394.508         157.504         402.269 
        0.61382         385.756         150.671         394.992 
       0.626067         380.369         144.295          386.78 
       0.638306         365.018          138.29         379.324 
       0.650632         360.233         132.601          368.99 
       0.662899         357.122          127.27         364.618 
       0.675076         343.583         122.273         358.357 
       0.687267          334.99         117.539         349.868 
       0.699615         330.917         112.996         344.151 
       0.711937         325.967         108.702         337.953 
       0.724148         315.287         104.667         332.961 
       0.736433         308.269         100.817         326.495 
       0.748747         303.963         97.1548         320.449 
       0.761037          298.27         93.6835         315.845 
       0.773197         294.716         90.4177         311.314 
       0.785376         290.209         87.3039         306.185 
       0.797761         282.825         84.2885         301.399 
       0.810096         280.197         81.4276         297.426 
       0.822371         270.139         78.7133         292.506 
       0.834626         269.211         76.1278         288.459 
       0.846916         263.365         73.6522         284.158 
       0.859215         263.319          71.286         280.093 
       0.871383         256.286         69.0477          276.01 
        0.88363         254.762         66.8928         273.165 
       0.895928         249.149         64.8221         268.818 
       0.908253         242.644         62.8356         264.495 
       0.920535         241.122         60.9394         261.026 
       0.932774         234.306         59.1285         257.407 
        0.94508         231.844         57.3824         254.724 
       0.957324         231.056         55.7157         251.061 
        0.96953         227.722         54.1206         247.676 
       0.981769          220.95         52.5842         245.243 
       0.994071         220.079         51.1004         242.101 
         1.0064          215.27         49.6716         238.495 
        1.01868         212.473         48.3019         235.616 
        1.03092         207.752         46.9901         233.295 
         1.0432         204.197         45.7226         230.437 
        1.05553         201.515         44.4971         227.473 
        1.06777         201.057         43.3256         225.142 
           1.08         196.093         42.1977         222.376 
        1.09227         193.745         41.1064         219.892 
         1.1046         190.917         40.0498         217.629 
         1.1169         187.192         39.0323         214.643 
        1.12915         184.582         38.0554         212.703 
        1.14142         181.658           37.11         209.953 
        1.15365          179.15         36.1997         207.744 
        1.16585         176.578         35.3224         205.097 
        1.17807         174.341         34.4733         203.459 
        1.19037         172.712         33.6465          201.48 
        1.20276         170.085         32.8414         198.939 
        1.21504         166.758         32.0691         196.796 
        1.22728          163.68         31.3249         194.279 
        1.23954         163.192         30.6026         192.881 
        1.25184         160.103         29.9018          190.68 
        1.26414         157.455         29.2227          188.71 
        1.27632           156.9         28.5709         187.438 
         1.2886         154.841         27.9344          184.96 
        1.30093         150.355         27.3151         182.914 
        1.31316         148.721         26.7192         180.846 
        1.32541         147.183         26.1409         179.439 
        1.33772         145.803         25.5766         177.525 
        1.35005         143.538         25.0287         175.532 
        1.36225         141.535         24.5024         173.944 
        1.37447         139.462         23.9903         171.885 
        1.38676         137.778         23.4905         170.363 
        1.39907         135.341         23.0042         168.606 
        1.41133         133.373         22.5337         167.123 
        1.42358         131.569         22.0769         165.555 
        1.43591         130.135         21.6297         163.744 
        1.44818          128.68         21.1973          162.31 
        1.46037         126.499         20.7794         160.618 
        1.47263         125.212         20.3704         159.381 
        1.48494         123.252         19.9709         157.489 
        1.49724         121.604         19.5824         156.116 
        1.50952         119.383         19.2051         154.643 
        1.52178         118.911         18.8383         153.022 
        1.53409         116.476         18.4796         151.762 
        1.54637         115.074          18.131         150.466 
        1.55858         113.023         17.7934         148.882 
        1.57081         111.579          17.464         147.626 
        1.58313         110.244         17.1408         146.152 
        1.59544         108.859          16.826         144.889 
        1.60767         107.592         16.5212         143.498 
        1.61994         105.757         16.2228         142.438 
        1.63225          104.46         15.9312         140.772 
        1.64452         102.569         15.6476         139.526 
        1.65676         101.106         15.3718         138.391 
          1.669          100.53         15.1025         137.249 
        1.68133         98.4639         14.8379         135.967 
        1.69363         97.5137         14.5804         134.777 
        1.70585         95.7346         14.3307         133.565 
        1.71809         94.5761         14.0864         132.248 
        1.73038         93.8663         13.8469         131.155 
        1.74268         92.5942         13.6129         129.947 
        1.75493         91.0275         13.3854         128.799 
        1.76714         89.7835         13.1637         127.767 
        1.77942         88.7356         12.9459         126.499 
        1.79173         87.3949         12.7324         125.517 
        1.80402         86.7338         12.5242         124.447 
         1.8163         85.0248         12.3208         123.246 
         1.8286         83.8626         12.1216         122.205 
         1.8409         83.2185         11.9269          121.13 
        1.85315         81.8796         11.7372         120.168 
        1.86537         80.9113          11.552         119.155 
        1.87765         80.2133         11.3701          118.09 
        1.88995         78.8705         11.1916         117.132 
        1.90221         77.8384         11.0177         116.124 
        1.91445         76.6684         10.8477         115.078 
        1.92674          75.508         10.6807         114.147 
        1.93902         74.6013         10.5172         113.122 
        1.95124         73.9247          10.358         112.242 
         1.9635         72.7944         10.2017         111.168 
        1.97583         71.7404         10.0477         110.373 
        1.98812         70.8226         9.89741         109.427 
        2.00039         69.8518          9.7505         108.495 
        2.01264         69.2541         9.60671         107.585 
        2.02492         68.2547         9.46562         106.686 
        2.03717         67.1301          9.3276         105.754 
        2.04942          66.828         9.19251         105.003 
        2.06171         65.3671         9.05964         104.085 
        2.07397          64.675         8.92969         103.273 
        2.08629         63.9525         8.80174         102.371 
        2.09857         62.9774         8.67661         101.562 
        2.11081         62.0163         8.55443         100.633 
        2.12309         61.4695         8.43431         99.9529 
        2.13538         60.5856         8.31632         99.0928 
        2.14763         59.7685         8.20099         98.2989 
        2.15986         58.6878         8.08811         97.4761 
        2.17214         58.2831          7.9769         96.6707 
        2.18443         57.5811         7.86768         96.0271 
        2.19671         56.5427         7.76063         95.2015 
        2.20898         56.3244         7.65571         94.4207 
        2.22126         55.4284         7.55261         93.6444 
        2.23354         54.7181         7.45145         92.9428 
         2.2458          54.008         7.35231         92.2365 
        2.25807         53.2887         7.25489          91.452 
        2.27035         52.7644         7.15916         90.7214 
        2.28263         51.9273          7.0652         90.0032 
         2.2949         51.4887         6.97297         89.3054 
        2.30718         50.5089         6.88236         88.6423 
        2.31946          50.105         6.79332         87.9413 
        2.33169          49.324         6.70624         87.2625 
        2.34393         48.6751         6.62055         86.6051 
        2.35622         48.2626         6.53609         85.9249 
        2.36847         47.6837         6.45333         85.3359 
        2.38076         46.9289         6.37176         84.5853 
        2.39305         46.3983         6.29163         83.9971 
        2.40534         45.9184         6.21286          83.307 
        2.41762         45.4201         6.13546         82.6297 
        2.42989         44.8824         6.05949         82.0831 
        2.44216         44.3816         5.98482         81.4214 
         2.4544         43.8247         5.91158         80.7989 
        2.46667         43.3384         5.83939         80.1625 
        2.47897         42.8514         5.76824         79.5719 
        2.49124         42.2737         5.69847         78.9987 
        2.50349         41.8622         5.62996         78.3746 
        2.51578         41.2757         5.56236         77.8672 
        2.52805         40.8872           5.496          77.241 
        2.54029         40.4164         5.43088         76.6232 
        2.55257         39.8162         5.36663         76.0984 
        2.56487         39.4974         5.30329         75.5714 
        2.57716         38.9863         5.24106         75.0266 
        2.58942         38.4701         5.17997           74.45 
        2.60167         38.1457         5.11992         73.9057 
        2.61395         37.6287         5.06072         73.3712 
        2.62624         37.4171         5.00238         72.8014 
        2.63849         36.9809         4.94515         72.2958 
        2.65073         36.6003         4.88887         71.7531 
        2.66302         36.0744         4.83327          71.229 
         2.6753         35.6634         4.77856         70.7273 
        2.68756         35.2443         4.72482         70.1897 
        2.69983         35.0085         4.67186         69.7309 
        2.71213         34.6411         4.61961          69.247 
        2.72441         34.2722         4.56824         68.7335 
        2.73665          33.834         4.51779         68.2352 
         2.7489         33.7585         4.46812         67.7567 
        2.76118         33.2351         4.41904         67.2919 
        2.77349         33.0446         4.37059         66.8091 
        2.78576          32.782         4.32306          66.314 
        2.79802         32.3428         4.27625         65.9022 
        2.81031         32.0052         4.23003         65.4228 
        2.82259           31.92         4.18452         64.9407 
        2.83483         31.4892         4.13984         64.5156 
         2.8471          31.144         4.09573         64.0712 
         2.8594          31.006         4.05213         63.6121 
         2.8717         30.7732         4.00918         63.1808 
        2.88396         30.4565         3.96701          62.731 
        2.89619         30.2527         3.92552          62.274 
        2.90847         30.0202         3.88447         61.8587 
        2.92072         29.7715         3.84408         61.4464 
        2.93299         29.5975         3.80424         61.0243 
        2.94526         29.3352         3.76493         60.6212 
        2.95753         29.1719         3.72618         60.2105 
        2.96982         29.0733         3.68792         59.7979 
        2.98209         28.7643         3.65027            59.4 
        2.99436         28.6182         3.61312         58.9768 
        3.00666         28.5009         3.57642         58.5935 
        3.01894         28.2768          3.5403         58.1856 
        3.03119         28.1455         3.50473         57.8064 
        3.04345         27.9713         3.46965         57.4448 
        3.05573         27.8639         3.43497         57.0631 
          3.068         27.8124         3.40081         56.6789 
        3.08026         27.6209         3.36715         56.2973 
        3.09254         27.5114         3.33388         55.9256 
        3.10483           27.52         3.30105         55.5659 
         3.1171         27.3682         3.26872         55.2036 
        3.12933         27.3358          3.2369         54.8317 
        3.14159         27.1924         3.20544         54.4643 
