# k  (h/Mpc)    Pcb(k)  (Mpc/h)^3    Pcb_linear(k) (Mpc/h)^3    Pcb_NL(k) (Mpc/h)^3   ShotnoiseSubtracted = false
      0.0156606         5029.99         5036.54            5010 
      0.0273761         4359.41          4357.2         4341.06 
      0.0384619         3312.35         3283.53         3274.97 
      0.0498308         2589.04          2583.1         2576.39 
      0.0625568         2184.52         2195.52         2187.89 
      0.0751274         1903.58         1865.44         1853.08 
      0.0867833         1501.57         1501.94          1499.7 
      0.0984825         1226.84         1188.62         1195.38 
       0.111151         1030.82         992.494         999.275 
       0.123864         926.098         894.449          900.03 
       0.135742         833.814          804.34         810.044 
        0.14762         710.417         687.756         701.227 
       0.160083         589.849         573.288         588.583 
       0.172465         522.293         500.373         519.013 
       0.184281         483.846         461.286         481.058 
       0.196406         441.464         425.997         441.581 
       0.209011         400.606          379.03         396.371 
       0.221538         358.104         331.237         355.478 
       0.233611         325.522         296.372         323.423 
       0.245665         305.558          273.54          297.68 
       0.258103          277.69         254.643         278.691 
       0.270422         259.456         233.988         257.597 
       0.282519         235.949         212.357         237.294 
       0.294636         228.933         193.481         219.791 
       0.306978         202.017         179.003         206.302 
       0.319417         193.306         167.357         193.652 
        0.33169         180.188          156.21         181.612 
       0.343948         171.857         144.738          171.03 
       0.356249         158.846         133.979         162.015 
       0.368458         152.541         124.967         151.455 
        0.38068         144.032         117.431         143.624 
       0.392856         134.304         110.552         136.884 
       0.405069         127.698         103.825         129.955 
       0.417459         120.947         97.3117         122.999 
       0.429752         116.164         91.4649         117.345 
       0.441978         111.177         86.3333         112.893 
       0.454294         103.419         81.6733         106.984 
        0.46658         103.403          77.301         102.735 
       0.478753         96.4351         73.1761         98.6378 
       0.490964           93.47         69.3017         94.7203 
       0.503334         89.4371         65.7254         90.9105 
       0.515665         86.0335         62.4643         88.2565 
       0.527909         82.7756         59.4538         83.8317 
       0.540159         79.8221         56.6057         81.1136 
        0.55248         75.6859         53.9031         78.0226 
       0.564743         74.1405         51.4007         75.6423 
        0.57686         71.8379         49.1008         73.0338 
       0.589077         68.1758         46.9298         70.9425 
       0.601441         66.3428         44.8654         68.7065 
        0.61382         64.4886         42.9189         66.2753 
       0.626067         61.8081         41.1026         64.4853 
       0.638306         59.9661         39.3922         62.4521 
       0.650632         57.9652         37.7717         60.3174 
       0.662899         56.7664         36.2531         58.5896 
       0.675076         54.4545         34.8299         56.9859 
       0.687267         53.6673         33.4814         55.3882 
       0.699615         51.7551         32.1873         54.1595 
       0.711937         49.7024         30.9641         52.3374 
       0.724148         49.4432         29.8147         51.4179 
       0.736433         46.7982         28.7181         49.9036 
       0.748747         46.1908         27.6749         48.6395 
       0.761037         44.9108         26.6861         47.4992 
       0.773197         43.8647         25.7558         46.5787 
       0.785376         42.3415         24.8689         45.3724 
       0.797761         41.8366           24.01         44.4556 
       0.810096         40.7511          23.195         43.3669 
       0.822371         39.8171         22.4218         42.3105 
       0.834626         38.7193         21.6853         41.5898 
       0.846916         37.7999         20.9802         40.6386 
       0.859215         36.6536         20.3061         39.7485 
       0.871383         36.1488         19.6686         39.0285 
        0.88363         35.2315         19.0547         38.3288 
       0.895928         34.4276         18.4649         37.4335 
       0.908253         33.7268          17.899         36.8358 
       0.920535         33.1505         17.3589          36.077 
       0.932774         32.5751         16.8431         35.3935 
        0.94508         31.8982         16.3457         34.6708 
       0.957324         31.2052         15.8709         34.0983 
        0.96953         30.5906         15.4165         33.4305 
       0.981769         29.9733         14.9789         32.9419 
       0.994071         29.3334         14.5562           32.34 
         1.0064         28.6863         14.1492         31.7968 
        1.01868         28.1046         13.7591         31.3015 
        1.03092         27.8823         13.3854         30.7414 
         1.0432         27.1553         13.0243         30.1594 
        1.05553         26.6398         12.6753         29.8791 
        1.06777         25.9744         12.3415          29.255 
           1.08         25.4281         12.0202         28.8045 
        1.09227         25.1048         11.7094         28.4483 
         1.1046         24.7385         11.4084         27.9364 
         1.1169         24.3246         11.1186         27.5284 
        1.12915         24.0357         10.8403         27.1434 
        1.14142         23.3299          10.571         26.7248 
        1.15365         23.1196         10.3117         26.3585 
        1.16585         22.8162         10.0618         26.0099 
        1.17807         22.2939         9.81992         25.5449 
        1.19037         22.1052         9.58442         25.3282 
        1.20276         21.7737         9.35508         24.9287 
        1.21504         21.3361         9.13508         24.6509 
        1.22728         20.9276         8.92309         24.2847 
        1.23954         20.6664         8.71735         23.9337 
        1.25184         20.2754         8.51772         23.6555 
        1.26414         20.0321         8.32428         23.3174 
        1.27632         19.7514          8.1386         23.0198 
         1.2886         19.5374         7.95729         22.7585 
        1.30093         19.0677         7.78089         22.5209 
        1.31316         18.8638         7.61112         22.2018 
        1.32541         18.6387         7.44641         21.9828 
        1.33772         18.3011         7.28567         21.7069 
        1.35005         18.0642         7.12958         21.4752 
        1.36225         17.8199         6.97967         21.2097 
        1.37447         17.4618         6.83379         20.9442 
        1.38676         17.2751         6.69143         20.7369 
        1.39907         17.0128         6.55289         20.4995 
        1.41133         16.7563         6.41888         20.2605 
        1.42358          16.556         6.28876          20.024 
        1.43591         16.3038         6.16136         19.8506 
        1.44818         16.0852          6.0382         19.6399 
        1.46037         15.9918         5.91914         19.3856 
        1.47263         15.6972         5.80264         19.2345 
        1.48494          15.573         5.68883         18.9843 
        1.49724         15.3554         5.57818          18.827 
        1.50952         15.1243          5.4707         18.6503 
        1.52178         14.9353         5.36621         18.4267 
        1.53409         14.6658         5.26404         18.2486 
        1.54637         14.6356         5.16474         18.0313 
        1.55858         14.3804         5.06858          17.881 
        1.57081         14.1657         4.97473         17.7226 
        1.58313         14.0565         4.88267         17.5463 
        1.59544         13.8142         4.79301         17.3938 
        1.60767         13.6822         4.70617         17.2056 
        1.61994         13.4401         4.62118         17.0642 
        1.63225         13.3788         4.53812         16.9271 
        1.64452         13.1952         4.45734         16.7793 
        1.65676         13.0258         4.37877         16.6004 
          1.669         12.9183         4.30205          16.448 
        1.68133         12.6693         4.22668         16.2966 
        1.69363         12.5303         4.15333         16.1218 
        1.70585         12.3857          4.0822         16.0313 
        1.71809           12.26          4.0126         15.8809 
        1.73038         12.1245         3.94439         15.7597 
        1.74268          12.013         3.87774          15.602 
        1.75493         11.8007         3.81293         15.4644 
        1.76714         11.8126         3.74977         15.3455 
        1.77942         11.6596         3.68772         15.1938 
        1.79173         11.4248         3.62692         15.0898 
        1.80402         11.3594         3.56761         14.9723 
         1.8163         11.2311         3.50967         14.8473 
         1.8286         11.0683         3.45291          14.732 
         1.8409         10.9623         3.39746         14.6136 
        1.85315         10.8539         3.34342         14.4858 
        1.86537         10.7518         3.29065         14.3806 
        1.87765         10.6596         3.23884         14.2663 
        1.88995         10.4698         3.18801         14.1595 
        1.90221         10.4266         3.13845         14.0278 
        1.91445         10.2956         3.09003         13.9428 
        1.92674         10.1846         3.04247         13.8237 
        1.93902         10.0903          2.9959         13.7403 
        1.95124         9.96186         2.95056         13.6328 
         1.9635         9.86445         2.90603          13.521 
        1.97583         9.78065         2.86215         13.4016 
        1.98812         9.70384         2.81934         13.3026 
        2.00039         9.61924          2.7775         13.2225 
        2.01264         9.51966         2.73654          13.132 
        2.02492         9.43891         2.69635         13.0196 
        2.03717         9.29421         2.65703         12.9302 
        2.04942         9.19613         2.61855         12.8379 
        2.06171         9.16862          2.5807         12.7497 
        2.07397         9.05355         2.54368         12.6653 
        2.08629         8.97455         2.50724         12.5834 
        2.09857         8.89384         2.47159         12.4856 
        2.11081         8.81523         2.43679         12.4154 
        2.12309         8.69888         2.40257         12.3044 
        2.13538         8.62205         2.36896         12.2278 
        2.14763         8.54076         2.33611          12.148 
        2.15986         8.50359         2.30396         12.0741 
        2.17214         8.41997         2.27228         11.9715 
        2.18443         8.30916         2.24116         11.9047 
        2.19671         8.28526         2.21067         11.8247 
        2.20898         8.16443         2.18078         11.7499 
        2.22126         8.07603         2.15141         11.6676 
        2.23354         8.04437          2.1226         11.5821 
         2.2458         7.94865         2.09436         11.5203 
        2.25807         7.88338         2.06661         11.4331 
        2.27035         7.82492         2.03934         11.3643 
        2.28263         7.75885         2.01257         11.2867 
         2.2949         7.66929          1.9863         11.2209 
        2.30718         7.61423         1.96049         11.1629 
        2.31946          7.5568         1.93513         11.0871 
        2.33169         7.49097         1.91032         11.0188 
        2.34393         7.43781         1.88591         10.9433 
        2.35622         7.38568         1.86185         10.8792 
        2.36847         7.31725         1.83828          10.809 
        2.38076         7.25734         1.81504         10.7443 
        2.39305         7.16476         1.79221         10.6675 
        2.40534         7.12831         1.76978         10.5988 
        2.41762         7.07828         1.74773         10.5515 
        2.42989         7.03551         1.72609          10.488 
        2.44216         6.97376         1.70482         10.4162 
         2.4544         6.91014         1.68395         10.3559 
        2.46667         6.89837         1.66339         10.2949 
        2.47897         6.83792         1.64312         10.2235 
        2.49124         6.75672         1.62325         10.1648 
        2.50349         6.72267         1.60373         10.1149 
        2.51578         6.66625         1.58448         10.0584 
        2.52805         6.62964         1.56558         9.99976 
        2.54029         6.56511         1.54703         9.94265 
        2.55257         6.55204         1.52872         9.88359 
        2.56487         6.47695         1.51068         9.81664 
        2.57716         6.43807         1.49295         9.76854 
        2.58942           6.416         1.47555         9.71413 
        2.60167         6.36637         1.45844         9.65565 
        2.61395          6.3078         1.44158         9.60354 
        2.62624         6.28514         1.42496         9.54803 
        2.63849         6.26275         1.40866         9.49637 
        2.65073         6.20783         1.39263         9.43675 
        2.66302         6.16778         1.37679          9.3815 
         2.6753         6.12993         1.36121         9.33031 
        2.68756           6.101          1.3459         9.28735 
        2.69983         6.05914         1.33081         9.22626 
        2.71213         6.02327         1.31593         9.17511 
        2.72441         5.98468          1.3013         9.12732 
        2.73665         5.97307         1.28692         9.07248 
         2.7489         5.94935         1.27277         9.02532 
        2.76118         5.89257          1.2588         8.98491 
        2.77349         5.86964         1.24499         8.93001 
        2.78576         5.85344         1.23145         8.88264 
        2.79802         5.81029         1.21812         8.83475 
        2.81031         5.79383         1.20496         8.79096 
        2.82259         5.75586         1.19199         8.74385 
        2.83483         5.73942         1.17926         8.69476 
         2.8471         5.72383          1.1667         8.65295 
         2.8594         5.71675         1.15428         8.60828 
         2.8717         5.67023         1.14204         8.55548 
        2.88396         5.64918         1.13003         8.51331 
        2.89619         5.61464         1.11821         8.47501 
        2.90847         5.61323         1.10652         8.42399 
        2.92072         5.61522         1.09501         8.37912 
        2.93299         5.60157         1.08366         8.34226 
        2.94526         5.58038         1.07247         8.29529 
        2.95753           5.562         1.06143         8.25027 
        2.96982         5.54044         1.05053         8.21066 
        2.98209         5.53383         1.03981         8.16299 
        2.99436         5.52874         1.02922         8.12281 
        3.00666          5.5368         1.01877         8.08595 
        3.01894         5.50539         1.00848         8.03959 
        3.03119         5.51064        0.998347         7.99989 
        3.04345         5.50701        0.988353         7.96082 
        3.05573         5.49687        0.978476         7.91757 
          3.068         5.49252        0.968745         7.88135 
        3.08026         5.51769        0.959156         7.84383 
        3.09254         5.50863        0.949679         7.80192 
        3.10483         5.49704        0.940329         7.76566 
         3.1171         5.50903        0.931117         7.72966 
        3.12933         5.51451        0.922053         7.68669 
        3.14159         5.50156        0.913091         7.64951 
