# k  (h/Mpc)    Pcb(k)  (Mpc/h)^3    Pcb_linear(k) (Mpc/h)^3    Pcb_NL(k) (Mpc/h)^3   ShotnoiseSubtracted = false
      0.0156606         21479.7         21596.8         21426.9 
      0.0273761         18412.3         18671.8         18469.7 
      0.0384619         13924.4         14066.6         13887.6 
      0.0498308         10755.6         11064.1           10884 
      0.0625568          9088.1         9402.94         9242.62 
      0.0751274         8094.17         7988.72         7763.47 
      0.0867833         6270.84         6431.75         6362.11 
      0.0984825         5299.81         5089.87          5152.1 
       0.111151         4533.99         4249.93         4327.35 
       0.123864         4062.57         3830.03         3892.67 
       0.135742         3704.23         3444.14         3506.97 
        0.14762         3225.04         2944.91         3111.49 
       0.160083         2740.39         2454.74         2660.18 
       0.172465         2444.38         2142.52         2404.09 
       0.184281         2216.17         1975.14         2237.49 
       0.196406          2090.7         1824.04         2061.01 
       0.209011         1956.53         1622.93         1868.35 
       0.221538          1762.1         1418.28         1744.79 
       0.233611         1689.38         1268.99          1635.4 
       0.245665         1531.61         1171.23         1510.46 
       0.258103         1516.39         1090.32         1426.34 
       0.270422         1353.21         1001.87          1340.2 
       0.282519         1278.25         909.256         1269.07 
       0.294636         1255.77         828.433         1202.32 
       0.306978         1147.34         766.439         1152.38 
       0.319417         1124.95         716.576          1086.6 
        0.33169         1057.81         668.847         1029.22 
       0.343948         1015.49         619.725         997.672 
       0.356249         962.879         573.658         960.848 
       0.368458         925.448         535.073         918.347 
        0.38068          910.61         502.804         883.538 
       0.392856         864.815         473.349         852.862 
       0.405069         820.932         444.547          825.43 
       0.417459         789.903         416.659         796.372 
       0.429752          785.89         391.624         768.649 
       0.441978         758.488         369.652          749.27 
       0.454294         725.326           349.7         718.873 
        0.46658         705.072         330.979         704.212 
       0.478753         691.785         313.317         682.975 
       0.490964         665.285         296.728         662.214 
       0.503334         636.835         281.415         647.564 
       0.515665         634.789         267.452         633.077 
       0.527909         608.811         254.562          619.76 
       0.540159         594.096         242.368          604.12 
        0.55248         582.478         230.796         588.512 
       0.564743         578.009         220.081          578.57 
        0.57686         558.588         210.234         563.356 
       0.589077         548.129         200.938         550.983 
       0.601441         536.362         192.099          540.28 
        0.61382          521.78         183.765         530.891 
       0.626067         516.384         175.988          520.99 
       0.638306         497.553         168.665         510.499 
       0.650632         493.048         161.726         498.311 
       0.662899          489.11         155.224         492.347 
       0.675076         473.052          149.13         485.547 
       0.687267         459.943         143.356          474.06 
       0.699615         458.089         137.816         466.605 
       0.711937         449.341         132.578          457.89 
       0.724148         434.725         127.657         451.739 
       0.736433         424.652         122.961         443.711 
       0.748747         419.453         118.495         435.886 
       0.761037         412.059         114.261          430.58 
       0.773197         406.328         110.278         423.595 
       0.785376         400.993          106.48         417.478 
       0.797761         389.283         102.803         411.189 
       0.810096         385.687         99.3133         406.025 
       0.822371         375.009         96.0029         399.427 
       0.834626         371.842         92.8495         394.719 
       0.846916         365.704         89.8302         388.557 
       0.859215         362.368         86.9442         382.921 
       0.871383          354.08         84.2143         377.867 
        0.88363         350.764         81.5861         374.042 
       0.895928         345.386         79.0605         368.205 
       0.908253         336.848         76.6377         362.211 
       0.920535         331.272         74.3251         358.199 
       0.932774         325.879         72.1164         352.836 
        0.94508         321.155         69.9867         349.267 
       0.957324          318.58         67.9539         344.601 
        0.96953         314.464         66.0084         340.423 
       0.981769         306.774         64.1346         336.678 
       0.994071         305.754         62.3249         332.565 
         1.0064         299.911         60.5823          327.73 
        1.01868         296.677         58.9117          323.55 
        1.03092         287.945         57.3118         320.709 
         1.0432         285.247         55.7659         316.831 
        1.05553         282.136         54.2712         312.493 
        1.06777         279.001         52.8424         309.025 
           1.08         272.683         51.4667         305.591 
        1.09227         271.693         50.1357         301.916 
         1.1046         266.705          48.847         299.029 
         1.1169         260.841         47.6061         295.043 
        1.12915         257.492         46.4146         292.141 
        1.14142           252.5         45.2615         288.639 
        1.15365         249.802         44.1513         285.603 
        1.16585         245.452         43.0813         282.358 
        1.17807          243.13         42.0456          279.44 
        1.19037         239.467         41.0373          277.05 
        1.20276          236.36         40.0553         273.426 
        1.21504         231.437         39.1134          270.38 
        1.22728         228.115         38.2057         267.285 
        1.23954         226.972         37.3248         264.808 
        1.25184         221.937           36.47         261.983 
        1.26414         217.581         35.6418         259.482 
        1.27632         216.228         34.8467         257.166 
         1.2886         214.593         34.0704         254.191 
        1.30093         209.382         33.3151         251.033 
        1.31316         205.121         32.5883         248.515 
        1.32541         204.091          31.883         246.016 
        1.33772         200.872         31.1948         243.713 
        1.35005         198.464         30.5265         240.967 
        1.36225         194.763         29.8846         238.716 
        1.37447         191.897           29.26         235.796 
        1.38676         190.055         28.6504         234.111 
        1.39907         187.313         28.0573         231.301 
        1.41133         183.897         27.4835          228.93 
        1.42358         181.773         26.9264         226.774 
        1.43591         179.596         26.3809         224.682 
        1.44818          176.22         25.8535         222.375 
        1.46037         174.749         25.3438         219.993 
        1.47263         171.453         24.8449         218.007 
        1.48494         169.854         24.3577         215.356 
        1.49724         167.196         23.8839         213.952 
        1.50952         164.135         23.4237         211.575 
        1.52178         162.834         22.9763         209.358 
        1.53409         159.721         22.5388         207.522 
        1.54637         157.518         22.1137         205.809 
        1.55858         155.702         21.7019         203.587 
        1.57081         153.121         21.3001         201.693 
        1.58313         151.141          20.906         199.637 
        1.59544          148.41          20.522         197.852 
        1.60767         147.177         20.1502         196.089 
        1.61994         144.692         19.7863         194.195 
        1.63225         142.572         19.4307         192.193 
        1.64452         140.286         19.0848         190.483 
        1.65676         138.458         18.7484          188.84 
          1.669         137.036         18.4199         187.036 
        1.68133         134.401         18.0972          185.33 
        1.69363         132.127         17.7832         183.744 
        1.70585         130.096         17.4786         182.076 
        1.71809         128.516         17.1806         180.109 
        1.73038         127.177         16.8886          178.64 
        1.74268         126.004         16.6032         176.895 
        1.75493         122.823         16.3257         175.446 
        1.76714         122.407         16.0552          173.94 
        1.77942         119.959         15.7896         172.264 
        1.79173         118.093         15.5292         170.713 
        1.80402         116.814         15.2753         169.193 
         1.8163         114.553         15.0272         167.813 
         1.8286          113.17         14.7842         166.189 
         1.8409         112.095         14.5468         164.644 
        1.85315          109.75         14.3154         163.299 
        1.86537         108.882         14.0895         161.938 
        1.87765         107.533         13.8676         160.554 
        1.88995         105.561           13.65         159.033 
        1.90221          104.35         13.4378         157.782 
        1.91445         102.893         13.2305         156.257 
        1.92674         101.333         13.0268         154.902 
        1.93902         100.044         12.8274         153.508 
        1.95124         98.7663         12.6333         152.213 
         1.9635         97.1522         12.4427         150.883 
        1.97583         95.7048         12.2548         149.584 
        1.98812         94.4194         12.0715         148.485 
        2.00039         93.3702         11.8923         147.072 
        2.01264         92.2194         11.7169         145.865 
        2.02492         91.1505         11.5448         144.535 
        2.03717         89.6622         11.3765         143.394 
        2.04942          88.712         11.2117         142.193 
        2.06171         87.0077         11.0497         140.945 
        2.07397         86.1043         10.8912         139.853 
        2.08629         84.9072         10.7351         138.634 
        2.09857         83.8275         10.5825         137.518 
        2.11081         82.4533         10.4335          136.25 
        2.12309         81.4036          10.287         135.234 
        2.13538         80.2192         10.1431         134.043 
        2.14763         79.1811         10.0024         132.966 
        2.15986         78.2003         9.86476         131.783 
        2.17214         77.2115         9.72912          130.75 
        2.18443         76.2148          9.5959         129.841 
        2.19671         75.2177         9.46534         128.715 
        2.20898         74.3633         9.33737         127.563 
        2.22126         73.2497         9.21163         126.615 
        2.23354         72.4309         9.08824           125.6 
         2.2458         71.0346         8.96733         124.565 
        2.25807         70.3306         8.84852         123.556 
        2.27035         69.3172         8.73175         122.549 
        2.28263         68.4697         8.61715         121.611 
         2.2949         67.2563         8.50466         120.652 
        2.30718          66.372         8.39416          119.68 
        2.31946         65.8494         8.28555         118.653 
        2.33169         64.7526         8.17934          117.76 
        2.34393         64.2985         8.07483         116.924 
        2.35622         63.0776         7.97181         115.942 
        2.36847         62.5815         7.87088          115.15 
        2.38076         61.4799         7.77139         114.114 
        2.39305         60.8834         7.67366         113.341 
        2.40534         60.0234         7.57759         112.398 
        2.41762         59.3188         7.48319         111.491 
        2.42989         58.4354         7.39053         110.693 
        2.44216         57.8756         7.29946         109.765 
         2.4544         56.9715         7.21013         108.966 
        2.46667         56.2815         7.12208         108.133 
        2.47897         55.6902          7.0353         107.249 
        2.49124         55.1369         6.95021         106.462 
        2.50349         54.3705         6.86664         105.662 
        2.51578         53.7819          6.7842         104.954 
        2.52805         53.0863         6.70326          104.07 
        2.54029         52.5615         6.62384         103.267 
        2.55257         51.8495         6.54547         102.559 
        2.56487         51.5861         6.46822         101.804 
        2.57716         50.8854         6.39233         101.038 
        2.58942         50.1259         6.31782         100.292 
        2.60167         49.5416         6.24457         99.5609 
        2.61395         49.1812         6.17237         98.8148 
        2.62624         48.3574         6.10122         98.0302 
        2.63849         47.8674         6.03141         97.3375 
        2.65073         47.3139         5.96277          96.632 
        2.66302         46.8552         5.89495         95.9032 
         2.6753         46.3552         5.82823         95.2384 
        2.68756         45.9425         5.76268         94.5128 
        2.69983         45.3522         5.69809         93.8514 
        2.71213         44.8939         5.63436         93.1801 
        2.72441         44.4553         5.57171         92.4956 
        2.73665         43.9578         5.51017         91.8613 
         2.7489         43.4751         5.44959         91.2146 
        2.76118         43.0768         5.38974         90.5395 
        2.77349         42.5994         5.33064         89.9069 
        2.78576         42.2105         5.27267         89.2408 
        2.79802         41.8557         5.21558         88.6808 
        2.81031         41.2591         5.15921         88.0304 
        2.82259         40.9752         5.10369         87.3775 
        2.83483         40.4733          5.0492         86.8139 
         2.8471         40.1767         4.99541         86.1819 
         2.8594          39.752         4.94223         85.5654 
         2.8717         39.5065         4.88984         85.0141 
        2.88396         39.1512         4.83841         84.4169 
        2.89619         38.8539         4.78781         83.7838 
        2.90847         38.4804         4.73774         83.1772 
        2.92072         38.2294         4.68847         82.6619 
        2.93299         38.0907         4.63988         82.1163 
        2.94526         37.6642         4.59194         81.5385 
        2.95753         37.4286         4.54468          80.964 
        2.96982         37.0617         4.49802         80.4255 
        2.98209         36.9119          4.4521         79.8924 
        2.99436         36.5892         4.40678         79.3163 
        3.00666         36.5111         4.36202         78.7851 
        3.01894         36.1899         4.31797         78.2609 
        3.03119         36.0566         4.27458         77.7566 
        3.04345         35.8722          4.2318         77.2467 
        3.05573         35.6324          4.1895         76.7209 
          3.068         35.4893         4.14784         76.2128 
        3.08026         35.2922         4.10678         75.7013 
        3.09254         35.2025         4.06621         75.2078 
        3.10483          35.217         4.02617         74.7155 
         3.1171         35.0193         3.98673         74.2161 
        3.12933         34.8442         3.94792         73.7234 
        3.14159         34.7858         3.90955         73.2263 
