# k  (h/Mpc)    Pcb(k)  (Mpc/h)^3    Pcb_linear(k) (Mpc/h)^3    Pcb_NL(k) (Mpc/h)^3   ShotnoiseSubtracted = false
      0.0156606         6594.47         6605.81         6569.29 
      0.0273761         5707.38          5714.2         5688.85 
      0.0384619         4335.56         4305.96         4290.16 
      0.0498308         3383.47         3387.35         3373.72 
      0.0625568         2855.11         2879.06         2865.02 
      0.0751274         2496.87         2446.19         2424.49 
      0.0867833         1963.82         1969.51         1964.91 
      0.0984825          1611.8         1558.64         1569.19 
       0.111151         1356.99         1301.46         1312.26 
       0.123864         1219.07         1172.89         1181.94 
       0.135742         1099.01         1054.73         1064.03 
        0.14762         938.585         901.853         924.258 
       0.160083         779.887          751.75         777.358 
       0.172465         692.115         656.136         687.626 
       0.184281          640.35         604.882         638.105 
       0.196406         585.109         558.608         585.232 
       0.209011         533.112          497.02         526.257 
       0.221538         478.053         434.349         475.218 
       0.233611         437.189          388.63         434.361 
       0.245665         409.234         358.691         399.613 
       0.258103         375.276         333.911         374.649 
       0.270422         348.598         306.826          347.08 
       0.282519         317.795         278.462         320.801 
       0.294636         310.931          253.71         298.346 
       0.306978         274.716         234.724         281.112 
       0.319417         263.216         219.454         264.035 
        0.33169         245.978         204.837         247.878 
       0.343948         234.771         189.793         234.778 
       0.356249         217.935         175.685         223.054 
       0.368458         209.972         163.868         209.126 
        0.38068         199.015         153.986           198.7 
       0.392856         185.651         144.965         189.786 
       0.405069         177.189         136.145         181.162 
       0.417459         168.488         127.604         171.418 
       0.429752         162.037         119.937          164.14 
       0.441978         155.667         113.208         158.317 
       0.454294         144.897         107.097          150.28 
        0.46658         145.104         101.364         144.912 
       0.478753         136.014         95.9551         139.405 
       0.490964         131.878         90.8746         134.002 
       0.503334         125.693          86.185         129.221 
       0.515665          121.89         81.9088         125.715 
       0.527909         117.822         77.9612         119.924 
       0.540159          113.78         74.2265         116.307 
        0.55248         109.274         70.6826         112.157 
       0.564743         106.417         67.4013         109.021 
        0.57686         103.098         64.3854         105.382 
       0.589077           98.28         61.5385         102.659 
       0.601441         95.9701         58.8315         99.7411 
        0.61382         93.9037         56.2792         96.5088 
       0.626067         90.0723         53.8974         93.9924 
       0.638306         87.2052         51.6546         91.4498 
       0.650632         84.0973         49.5296         88.2204 
       0.662899         83.3862         47.5383         86.0499 
       0.675076         80.2724         45.6721         83.8838 
       0.687267         78.7175         43.9038         81.7469 
       0.699615         76.0985         42.2069         80.0634 
       0.711937         73.5777         40.6029         77.5947 
       0.724148         73.0483         39.0957         76.4601 
       0.736433         69.6558         37.6577         74.3103 
       0.748747         68.5658         36.2898         72.5962 
       0.761037         66.8397         34.9932         70.8691 
       0.773197          65.386         33.7734         69.8666 
       0.785376         63.5313         32.6103         68.0515 
       0.797761         62.9578          31.484         66.8899 
       0.810096         60.9135         30.4154         65.3232 
       0.822371         59.7426         29.4015         63.9427 
       0.834626         58.2667         28.4358         62.8818 
       0.846916         57.1749         27.5111         61.6476 
       0.859215         55.7519         26.6272         60.3395 
       0.871383         55.0168         25.7912          59.309 
        0.88363         53.5379         24.9863         58.4151 
       0.895928         52.3424         24.2128         57.2578 
       0.908253         51.1796         23.4708          56.317 
       0.920535         50.7503         22.7626          55.318 
       0.932774         49.7802         22.0861         54.3727 
        0.94508         48.9896         21.4339         53.3171 
       0.957324         47.7561         20.8113          52.575 
        0.96953         47.4459         20.2155         51.5975 
       0.981769         46.0063         19.6416         50.9373 
       0.994071         45.3681         19.0874          50.147 
         1.0064          44.389         18.5537         49.3367 
        1.01868         43.5842         18.0421         48.6431 
        1.03092         43.0556         17.5521         47.8729 
         1.0432         42.2577         17.0787           47.04 
        1.05553           41.29         16.6209         46.6727 
        1.06777         40.6444         16.1833         45.8586 
           1.08         39.6868          15.762         45.1678 
        1.09227         39.2757         15.3544         44.5903 
         1.1046            38.7         14.9597         43.9128 
         1.1169         38.2109         14.5797         43.2968 
        1.12915         37.5592         14.2148          42.776 
        1.14142         36.7634         13.8617         42.2084 
        1.15365         36.2988         13.5216         41.7007 
        1.16585         35.7525         13.1939         41.1044 
        1.17807         35.1398         12.8768          40.508 
        1.19037         34.9746         12.5679         40.1715 
        1.20276         34.4217         12.2672         39.6295 
        1.21504         33.7894         11.9787         39.2075 
        1.22728         33.2093         11.7008         38.6949 
        1.23954         32.8358          11.431         38.1374 
        1.25184         32.2354         11.1692         37.7664 
        1.26414         31.8368         10.9155         37.2668 
        1.27632         31.5431         10.6721         36.8565 
         1.2886         31.1989         10.4343         36.4637 
        1.30093         30.5569          10.203         36.0155 
        1.31316         30.1485         9.98038         35.6579 
        1.32541         29.8942          9.7644         35.2686 
        1.33772         29.3366         9.55362         34.8891 
        1.35005         28.9674         9.34895         34.5374 
        1.36225         28.5514         9.15237         34.1944 
        1.37447         27.9147         8.96108          33.781 
        1.38676         27.9007          8.7744          33.492 
        1.39907          27.444         8.59273         33.1605 
        1.41133         26.9364         8.41701         32.7765 
        1.42358         26.6763         8.24638          32.445 
        1.43591          26.286         8.07932         32.1577 
        1.44818           26.04         7.91782         31.8068 
        1.46037         25.7653          7.7617         31.4723 
        1.47263          25.489         7.60894         31.2266 
        1.48494         25.1074          7.4597         30.8892 
        1.49724         25.0197          7.3146         30.6037 
        1.50952         24.5287         7.17367         30.3625 
        1.52178         24.2277         7.03665         30.0356 
        1.53409         23.9577         6.90268         29.7721 
        1.54637          23.728         6.77247         29.4585 
        1.55858         23.2045         6.64637         29.2169 
        1.57081          23.203         6.52331         28.9718 
        1.58313         22.9289          6.4026         28.6834 
        1.59544         22.5031         6.28502         28.4585 
        1.60767         22.2804         6.17115         28.1624 
        1.61994         21.9689         6.05971         27.9496 
        1.63225         21.8952         5.95079          27.753 
        1.64452         21.5222         5.84486         27.5104 
        1.65676         21.3255         5.74184         27.2479 
          1.669         21.1298         5.64123         27.0412 
        1.68133         20.7823          5.5424         26.8016 
        1.69363         20.5596         5.44622         26.5092 
        1.70585         20.3537         5.35295         26.3824 
        1.71809         20.0696         5.26168         26.1239 
        1.73038         19.9184         5.17224         25.9448 
        1.74268         19.7353         5.08484          25.684 
        1.75493         19.4209         4.99985         25.5042 
        1.76714         19.3722         4.91703         25.3048 
        1.77942         19.1568         4.83567         25.0851 
        1.79173         18.7515         4.75594            24.9 
        1.80402         18.5813         4.67817         24.7576 
         1.8163         18.5016         4.60219         24.4865 
         1.8286         18.2164         4.52777         24.3371 
         1.8409         18.0277         4.45506         24.1556 
        1.85315         17.8821         4.38419         23.9715 
        1.86537          17.638           4.315          23.791 
        1.87765         17.5206         4.24705          23.605 
        1.88995         17.2762          4.1804         23.4122 
        1.90221         17.1378         4.11542         23.2381 
        1.91445         16.9508         4.05193         23.0616 
        1.92674         16.7794         3.98955         22.8951 
        1.93902         16.5819         3.92849         22.7565 
        1.95124         16.3541         3.86903         22.6317 
         1.9635          16.229         3.81065         22.4165 
        1.97583         16.0722         3.75311         22.2405 
        1.98812         15.9203         3.69698          22.113 
        2.00039          15.796          3.6421         21.9465 
        2.01264         15.6259         3.58839         21.8077 
        2.02492         15.4656         3.53569         21.6196 
        2.03717         15.2793         3.48414           21.48 
        2.04942         15.1354         3.43368         21.3203 
        2.06171         15.0244         3.38404         21.1739 
        2.07397         14.8865          3.3355         21.0259 
        2.08629         14.7517         3.28771         20.8837 
        2.09857          14.621         3.24097         20.7451 
        2.11081         14.4377         3.19533         20.6102 
        2.12309          14.288         3.15047         20.4596 
        2.13538         14.1317         3.10639         20.3147 
        2.14763         14.0068         3.06331         20.1895 
        2.15986         13.9748         3.02115         20.0716 
        2.17214         13.7912         2.97961         19.9255 
        2.18443         13.6214         2.93881         19.7906 
        2.19671         13.5344         2.89883         19.6472 
        2.20898         13.3935         2.85964         19.5299 
        2.22126         13.2627         2.82113         19.4052 
        2.23354         13.2137         2.78334         19.2651 
         2.2458         13.0378         2.74631         19.1731 
        2.25807         12.9048         2.70992         19.0073 
        2.27035         12.8172         2.67416         18.8968 
        2.28263         12.6906         2.63906         18.7722 
         2.2949          12.605         2.60461         18.6669 
        2.30718         12.5075         2.57077         18.5601 
        2.31946         12.3718         2.53751         18.4277 
        2.33169         12.2578         2.50498         18.3116 
        2.34393         12.1578         2.47297          18.206 
        2.35622         12.0115         2.44142         18.0891 
        2.36847         11.9429         2.41051         17.9713 
        2.38076         11.8162         2.38004         17.8631 
        2.39305         11.6958         2.35011         17.7454 
        2.40534         11.6263         2.32069         17.6197 
        2.41762         11.5297         2.29178          17.538 
        2.42989         11.4486          2.2634         17.4209 
        2.44216         11.3403         2.23551         17.3047 
         2.4544         11.2738         2.20815         17.1963 
        2.46667         11.1741         2.18119         17.1041 
        2.47897         11.0599         2.15461         16.9873 
        2.49124          10.976         2.12855         16.8879 
        2.50349         10.8848         2.10296         16.7815 
        2.51578         10.8013         2.07771         16.6994 
        2.52805         10.7235         2.05292         16.5954 
        2.54029         10.6556          2.0286         16.4974 
        2.55257         10.5977          2.0046         16.3943 
        2.56487           10.43         1.98094         16.2936 
        2.57716          10.388         1.95769         16.1886 
        2.58942         10.3305         1.93488         16.1121 
        2.60167         10.2529         1.91244         16.0188 
        2.61395         10.2053         1.89033         15.9189 
        2.62624         10.1023         1.86854         15.8292 
        2.63849         10.0265         1.84716         15.7469 
        2.65073         9.96618         1.82614         15.6438 
        2.66302         9.89653         1.80537         15.5568 
         2.6753         9.84859         1.78494         15.4621 
        2.68756         9.79178         1.76486         15.3857 
        2.69983         9.70327         1.74508         15.2863 
        2.71213         9.65105         1.72556         15.1906 
        2.72441         9.58475         1.70638         15.1122 
        2.73665         9.57067         1.68753         15.0208 
         2.7489         9.49357         1.66898         14.9296 
        2.76118         9.39721         1.65065         14.8552 
        2.77349          9.3655         1.63255         14.7705 
        2.78576         9.31743         1.61479         14.6907 
        2.79802         9.26579         1.59731         14.6034 
        2.81031         9.22339         1.58004         14.5223 
        2.82259          9.1852         1.56304          14.441 
        2.83483         9.11598         1.54635         14.3612 
         2.8471         9.07567         1.52988          14.283 
         2.8594         9.05754         1.51359         14.2018 
         2.8717         9.00996         1.49755          14.121 
        2.88396          8.9618          1.4818         14.0442 
        2.89619         8.90929          1.4663          13.969 
        2.90847         8.87418         1.45097         13.8911 
        2.92072         8.87688         1.43588         13.8076 
        2.93299         8.81366           1.421         13.7389 
        2.94526         8.80608         1.40631         13.6669 
        2.95753         8.77263         1.39184         13.5888 
        2.96982         8.72951         1.37755         13.5131 
        2.98209         8.72023         1.36349         13.4376 
        2.99436          8.7054         1.34961          13.363 
        3.00666         8.67612          1.3359         13.2937 
        3.01894         8.65593         1.32241         13.2305 
        3.03119         8.64734         1.30912         13.1542 
        3.04345          8.6007         1.29602         13.0753 
        3.05573         8.62987         1.28307         13.0087 
          3.068         8.60335         1.27031          12.944 
        3.08026         8.61563         1.25773         12.8658 
        3.09254         8.60817          1.2453         12.8021 
        3.10483         8.60321         1.23304         12.7424 
         3.1171         8.60858         1.22096         12.6718 
        3.12933         8.62368         1.20908         12.6019 
        3.14159         8.58459         1.19733          12.536 
