# k  (h/Mpc)    Pcb(k)  (Mpc/h)^3    Pcb_linear(k) (Mpc/h)^3    Pcb_NL(k) (Mpc/h)^3   ShotnoiseSubtracted = false
      0.0156606         15848.8         15913.7         15803.3 
      0.0273761         13628.3         13760.3         13645.3 
      0.0384619         10326.2         10367.2         10271.2 
      0.0498308         8000.83         8154.68         8060.13 
      0.0625568          6756.1         6930.54         6844.42 
      0.0751274         5987.36         5888.27         5765.34 
      0.0867833         4657.11         4740.72         4704.98 
      0.0984825         3898.47         3751.68         3790.93 
       0.111151         3316.43         3132.59         3177.67 
       0.123864         2974.63          2823.1          2860.2 
       0.135742         2700.34         2538.67         2576.39 
        0.14762         2337.07         2170.69         2270.04 
       0.160083         1964.65         1809.39         1928.83 
       0.172465         1752.14         1579.25          1730.2 
       0.184281          1600.9         1455.89         1609.74 
       0.196406         1489.18         1344.51         1478.11 
       0.209011         1381.59         1196.27         1336.44 
       0.221538         1246.35         1045.42         1236.81 
       0.233611         1177.45         935.384         1150.69 
       0.245665         1076.32         863.323         1059.97 
       0.258103         1042.83          803.68         998.659 
       0.270422         936.953         738.488         934.143 
       0.282519         873.914          670.22         876.764 
       0.294636         864.912         610.644         826.507 
       0.306978         779.281         564.949          788.55 
       0.319417         755.958         528.194         742.415 
        0.33169         712.336         493.013         700.386 
       0.343948         679.603         456.805         675.962 
       0.356249         639.617         422.848         648.468 
       0.368458         619.794         394.407         615.168 
        0.38068         600.295         370.622         589.373 
       0.392856         566.455          348.91         566.528 
       0.405069         541.777          327.68         548.928 
       0.417459         519.778         307.123         524.054 
       0.429752         507.659          288.67         505.188 
       0.441978          490.81         272.474         490.874 
       0.454294         464.915         257.767         469.638 
        0.46658         455.598         243.968         458.379 
       0.478753         442.146         230.949         443.112 
       0.490964         425.909         218.721         428.597 
       0.503334         403.146         207.434         417.411 
       0.515665         401.902         197.142         408.333 
       0.527909         387.234         187.641          396.97 
       0.540159         377.448         178.652         385.834 
        0.55248         370.032         170.122          375.27 
       0.564743         364.743         162.224         368.233 
        0.57686         350.587         154.966         357.553 
       0.589077         338.859         148.114         349.652 
       0.601441         335.061         141.598         341.761 
        0.61382         328.842         135.455         335.127 
       0.626067         323.366         129.723         327.824 
       0.638306         309.352         124.325         321.571 
       0.650632         304.225          119.21         312.303 
       0.662899          301.84         114.417         308.335 
       0.675076         290.207         109.926         302.439 
       0.687267         282.966         105.669         295.446 
       0.699615         278.748         101.585         290.336 
       0.711937         274.258         97.7246         285.109 
       0.724148         265.988         94.0973         280.816 
       0.736433         260.209         90.6361         275.069 
       0.748747         255.954         87.3439         269.833 
       0.761037         251.363         84.2231         265.497 
       0.773197         247.947         81.2871         261.967 
       0.785376         244.439         78.4878         257.178 
       0.797761         238.508          75.777         253.419 
       0.810096         235.527         73.2049         249.709 
       0.822371         226.625         70.7648         245.566 
       0.834626         225.987         68.4404         241.863 
       0.846916          221.29         66.2148         238.338 
       0.859215         221.098         64.0875          234.87 
       0.871383         215.115         62.0753         231.216 
        0.88363         213.383          60.138         228.813 
       0.895928         208.439         58.2764         225.249 
       0.908253         202.721         56.4905         221.503 
       0.920535         201.982         54.7858         218.523 
       0.932774         195.401         53.1578         215.475 
        0.94508         193.581          51.588         213.213 
       0.957324         193.112         50.0896         210.007 
        0.96953         190.422         48.6555         206.955 
       0.981769         184.493         47.2743         205.054 
       0.994071         183.621         45.9404          202.36 
         1.0064         179.398         44.6559         199.285 
        1.01868         176.969         43.4245         197.036 
        1.03092         173.783         42.2452         194.929 
         1.0432         170.396         41.1057           192.5 
        1.05553         167.785         40.0039          190.18 
        1.06777         167.584         38.9507         188.256 
           1.08         163.409         37.9367           185.8 
        1.09227         161.488         36.9556         183.895 
         1.1046         158.945         36.0057         181.841 
         1.1169          156.46          35.091         179.361 
        1.12915         154.065         34.2127         177.655 
        1.14142         151.599         33.3628         175.336 
        1.15365         149.595         32.5444         173.497 
        1.16585         147.481         31.7557         171.235 
        1.17807         145.422         30.9923             170 
        1.19037         144.429          30.249         168.235 
        1.20276         141.769         29.5252         166.168 
        1.21504         139.583         28.8309         164.382 
        1.22728         136.831         28.1618         162.351 
        1.23954         136.206         27.5125         161.082 
        1.25184         133.517         26.8825         159.252 
        1.26414         131.528         26.2719         157.581 
        1.27632         131.006         25.6859         156.716 
         1.2886         128.656         25.1137         154.485 
        1.30093         125.195          24.557         152.836 
        1.31316         124.649         24.0212         151.185 
        1.32541          122.84         23.5013         150.053 
        1.33772         121.641          22.994         148.428 
        1.35005         119.943         22.5014         146.774 
        1.36225         118.467         22.0283         145.467 
        1.37447         116.324         21.5679         143.839 
        1.38676         115.299         21.1186         142.394 
        1.39907         112.862         20.6813         141.088 
        1.41133         111.339         20.2584         139.924 
        1.42358         109.749         19.8477         138.573 
        1.43591         108.868         19.4456         137.013 
        1.44818         107.808         19.0569         135.889 
        1.46037         105.687         18.6812         134.505 
        1.47263         104.513         18.3135         133.492 
        1.48494         103.219         17.9543         132.009 
        1.49724         101.685         17.6051         130.689 
        1.50952         99.8878         17.2659         129.543 
        1.52178         99.2481         16.9361          128.31 
        1.53409         97.7347         16.6136         127.212 
        1.54637         96.1271         16.3002         126.079 
        1.55858         94.7549         15.9967          124.84 
        1.57081         93.4165         15.7006         123.764 
        1.58313         92.3502           15.41         122.604 
        1.59544         91.3247          15.127         121.526 
        1.60767         89.9615          14.853         120.356 
        1.61994         88.5917         14.5847         119.571 
        1.63225         87.3621         14.3226          118.12 
        1.64452         86.0016         14.0676         117.147 
        1.65676         84.8572         13.8197          116.18 
          1.669         84.2568         13.5775         115.242 
        1.68133         82.9219         13.3397         114.148 
        1.69363         81.9991         13.1082         113.221 
        1.70585          80.723         12.8837          112.17 
        1.71809         79.5204          12.664         111.233 
        1.73038         78.7864         12.4488          110.21 
        1.74268         77.5058         12.2384         109.271 
        1.75493         76.7515         12.0338         108.287 
        1.76714         75.4709         11.8345         107.408 
        1.77942          74.847         11.6387         106.419 
        1.79173         73.5555         11.4468         105.558 
        1.80402         72.8701         11.2596         104.725 
         1.8163         71.7692         11.0767         103.661 
         1.8286         70.7413         10.8976         102.892 
         1.8409         69.9633         10.7226         101.999 
        1.85315         68.8505          10.552         101.222 
        1.86537         68.1246         10.3855         100.335 
        1.87765         67.4298          10.222         99.3877 
        1.88995         66.3584         10.0616         98.6671 
        1.90221         65.5308         9.90515         97.8151 
        1.91445         64.3248         9.75233         97.0108 
        1.92674         63.6744         9.60221         96.2303 
        1.93902         62.8565         9.45524         95.3645 
        1.95124         62.3802         9.31213         94.6958 
         1.9635         61.2776         9.17163         93.7488 
        1.97583         60.6058         9.03313         93.1323 
        1.98812         59.8603         8.89802         92.3066 
        2.00039         58.8705         8.76595         91.5586 
        2.01264         58.3662         8.63668          90.792 
        2.02492         57.4915         8.50984          90.083 
        2.03717         56.6542         8.38575         89.2832 
        2.04942         56.1075          8.2643         88.6653 
        2.06171         55.1582         8.14485         87.8931 
        2.07397         54.5815         8.02802         87.2469 
        2.08629         54.0613         7.91299         86.4845 
        2.09857         53.2956          7.8005          85.824 
        2.11081         52.2123         7.69065         85.0627 
        2.12309         51.9461         7.58266         84.4728 
        2.13538         51.1627         7.47659         83.7746 
        2.14763          50.589          7.3729         83.1197 
        2.15986         49.6709         7.27142         82.4502 
        2.17214         49.1921         7.17144         81.8195 
        2.18443         48.7249         7.07325         81.2157 
        2.19671         47.8421         6.97701         80.5237 
        2.20898         47.6233         6.88268         79.9011 
        2.22126         46.8577         6.78999         79.2443 
        2.23354         46.2168         6.69905         78.6765 
         2.2458         45.7142         6.60992         78.0946 
        2.25807         45.2602         6.52234         77.4286 
        2.27035         44.6625         6.43627         76.8343 
        2.28263         43.9457          6.3518         76.2265 
         2.2949         43.5369         6.26888         75.6579 
        2.30718         42.9057         6.18743         75.1076 
        2.31946         42.3366         6.10737         74.5544 
        2.33169         41.8336         6.02909         73.9694 
        2.34393         41.1419         5.95205         73.4068 
        2.35622         40.9108         5.87611         72.8404 
        2.36847         40.3781         5.80171         72.3254 
        2.38076         39.9001         5.72838         71.7454 
        2.39305         39.3727         5.65634         71.2307 
        2.40534         38.9881         5.58553         70.6435 
        2.41762         38.5865         5.51594         70.0931 
        2.42989         37.9557         5.44764         69.6328 
        2.44216         37.6861         5.38051         69.0932 
         2.4544         37.2342         5.31466         68.5765 
        2.46667         36.8045         5.24977          68.034 
        2.47897         36.3668          5.1858         67.5525 
        2.49124         35.8733         5.12307         67.0613 
        2.50349          35.383         5.06148         66.5567 
        2.51578         34.9871         5.00071         66.1102 
        2.52805          34.871         4.94105         65.6012 
        2.54029          34.338         4.88251         65.1043 
        2.55257         33.8386         4.82474         64.6498 
        2.56487         33.5727          4.7678         64.2002 
        2.57716         33.1541         4.71185         63.7603 
        2.58942         32.7612         4.65693         63.2712 
        2.60167          32.299         4.60294          62.798 
        2.61395         32.0492         4.54972         62.3592 
        2.62624          31.793         4.49728         61.9048 
        2.63849          31.484         4.44582         61.4753 
        2.65073         31.1374         4.39522          61.004 
        2.66302         30.7835         4.34523         60.5809 
         2.6753         30.4066         4.29605         60.1592 
        2.68756         29.9759         4.24774         59.7052 
        2.69983         29.7851         4.20013         59.3146 
        2.71213         29.4953         4.15315         58.9145 
        2.72441         29.2751         4.10697         58.4766 
        2.73665         28.9849         4.06161         58.0593 
         2.7489         28.7742         4.01696         57.6599 
        2.76118         28.3608         3.97284         57.2598 
        2.77349         28.2278         3.92928         56.8689 
        2.78576         28.0232         3.88654         56.4537 
        2.79802         27.6341         3.84446         56.0826 
        2.81031         27.3955         3.80291         55.7004 
        2.82259         27.1856         3.76199         55.2935 
        2.83483         26.9082         3.72182         54.9149 
         2.8471         26.5971         3.68217         54.5488 
         2.8594         26.4796         3.64297         54.1891 
         2.8717         26.1833         3.60435         53.8118 
        2.88396         26.0054         3.56644         53.4218 
        2.89619         25.7673         3.52915         53.0595 
        2.90847         25.5984         3.49224          52.714 
        2.92072         25.4463         3.45593         52.3472 
        2.93299         25.3062         3.42011         51.9859 
        2.94526         25.0428         3.38477         51.6554 
        2.95753         24.9085         3.34994         51.3187 
        2.96982         24.8483         3.31554         50.9699 
        2.98209         24.6067         3.28169         50.6336 
        2.99436         24.3996         3.24829         50.2845 
        3.00666         24.3869         3.21529         49.9541 
        3.01894         24.1815         3.18282         49.6019 
        3.03119         24.0771         3.15084         49.2802 
        3.04345         23.9674          3.1193         48.9755 
        3.05573         23.9125         3.08813          48.654 
          3.068         23.7892         3.05742         48.3307 
        3.08026         23.6401         3.02716         48.0088 
        3.09254         23.5788         2.99725         47.6984 
        3.10483         23.5726         2.96773         47.3937 
         3.1171         23.5246         2.93866         47.0854 
        3.12933         23.4572         2.91006         46.7774 
        3.14159         23.3335         2.88177         46.4716 
