# k  (h/Mpc)    P(k)  (Mpc/h)^3    P_linear(k)  (Mpc/h)^3     P_NL(k)  ShotnoiseSubtracted = false
      0.0156606           18584         18762.6         18623.4 
      0.0273761         15929.5         16195.7         16039.6 
      0.0384619           12048           12191         12056.1 
      0.0498308         9315.14         9583.81         9449.24 
      0.0625568         7865.44         8141.89         8020.97 
      0.0751274         6987.46         6915.69         6744.74 
      0.0867833         5422.57            5567         5515.35 
      0.0984825         4561.38         4405.04         4455.17 
       0.111151         3891.26         3677.79         3737.79 
       0.123864         3488.36         3314.19          3363.1 
       0.135742         3173.58         2980.13         3029.49 
        0.14762         2755.41         2548.05         2679.15 
       0.160083         2328.43         2123.87         2283.72 
       0.172465         2076.98         1853.68         2056.63 
       0.184281          1890.2         1708.84         1913.82 
       0.196406         1770.67         1578.08         1759.98 
       0.209011         1650.26         1404.06         1593.37 
       0.221538         1487.98            1227         1482.15 
       0.233611         1417.01         1097.83         1384.68 
       0.245665         1288.88         1013.25         1277.09 
       0.258103         1264.07          943.24         1204.65 
       0.270422         1130.48         866.721         1129.56 
       0.282519         1061.66         786.592         1065.18 
       0.294636         1047.55         716.668         1006.94 
       0.306978         950.622         663.035         963.132 
       0.319417         927.181         619.897         907.491 
        0.33169         873.087         578.605         857.822 
       0.343948         835.266         536.108         830.143 
       0.356249         789.023         496.256         798.107 
       0.368458         761.927         462.875         760.046 
        0.38068         744.196         434.962         729.787 
       0.392856         704.623         409.479          702.97 
       0.405069         671.442         384.561         681.098 
       0.417459         645.473         360.436         653.823 
       0.429752         636.385          338.78         630.724 
       0.441978         614.584         319.772         613.916 
       0.454294         585.369         302.511         588.222 
        0.46658         570.377         286.315         575.367 
       0.478753         557.202         271.036         557.112 
       0.490964          536.01         256.684          539.61 
       0.503334         510.377         243.439          526.65 
       0.515665         509.343         231.361         515.152 
       0.527909         489.452          220.21         502.766 
       0.540159          477.12          209.66         489.246 
        0.55248         467.866          199.65         476.296 
       0.564743         463.688         190.381         467.991 
        0.57686         446.349         181.863         455.108 
       0.589077         434.586         173.821         444.919 
       0.601441         428.178         166.175         435.622 
        0.61382         417.998         158.965         427.906 
       0.626067         412.628         152.238         419.236 
       0.638306         396.516         145.903         411.068 
       0.650632         391.896           139.9         400.212 
       0.662899         388.494         134.276         395.526 
       0.675076         374.123         129.004         389.107 
       0.687267         364.604         124.009         379.836 
       0.699615          360.83         119.217         373.738 
       0.711937          355.31         114.686         366.961 
       0.724148         343.477         110.429         361.635 
       0.736433         335.693         106.367         354.782 
       0.748747         331.278         102.503         348.296 
       0.761037         325.079         98.8407         343.533 
       0.773197         321.209         95.3951         338.432 
       0.785376         316.312         92.1099         333.094 
       0.797761         307.939         88.9285         327.826 
       0.810096         305.409         85.9101          323.64 
       0.822371         294.983         83.0464         318.298 
       0.834626         293.626         80.3185         314.079 
       0.846916         287.421         77.7067         309.327 
       0.859215         287.011         75.2102         304.909 
       0.871383         279.539         72.8487         300.598 
        0.88363         277.909         70.5752         297.504 
       0.895928         272.147         68.3905         292.772 
       0.908253          265.22         66.2946         288.084 
       0.920535         262.961         64.2941          284.42 
       0.932774         256.317         62.3834         280.416 
        0.94508         253.366         60.5412         277.496 
       0.957324         252.301         58.7828         273.602 
        0.96953         248.657         57.0998         270.047 
       0.981769         241.584         55.4789         267.296 
       0.994071         240.722         53.9134         263.912 
         1.0064         235.554          52.406          260.02 
        1.01868         232.706         50.9608          256.79 
        1.03092         226.877         49.5769         254.358 
         1.0432         223.494         48.2396         251.259 
        1.05553         220.712         46.9466         247.951 
        1.06777         219.894         45.7106         245.366 
           1.08         214.532         44.5206         242.447 
        1.09227         212.265         43.3692         239.641 
         1.1046         209.091         42.2545         237.243 
         1.1169         204.653          41.181         233.998 
        1.12915         201.929         40.1503         231.877 
        1.14142          198.66         39.1529         228.921 
        1.15365         195.968         38.1924         226.509 
        1.16585         192.962         37.2669         223.699 
        1.17807         190.688          36.371         221.791 
        1.19037         188.664         35.4987         219.711 
        1.20276         185.969         34.6493           216.9 
        1.21504         182.113         33.8345         214.548 
        1.22728         178.961         33.0493         211.821 
        1.23954         178.387         32.2872         210.253 
        1.25184         174.921         31.5479         207.889 
        1.26414         171.872         30.8314         205.784 
        1.27632         171.225         30.1437         204.253 
         1.2886         169.469         29.4721         201.654 
        1.30093         164.586         28.8188         199.358 
        1.31316         162.203           28.19         197.125 
        1.32541          160.88         27.5799         195.503 
        1.33772         159.267         26.9846         193.467 
        1.35005         156.748         26.4065         191.297 
        1.36225         154.333         25.8512         189.547 
        1.37447         152.235         25.3109         187.258 
        1.38676         150.403         24.7836         185.704 
        1.39907         147.918         24.2705         183.694 
        1.41133          145.65         23.7742         182.009 
        1.42358         143.821         23.2922         180.298 
        1.43591         142.169         22.8204         178.401 
        1.44818         140.231         22.3642         176.766 
        1.46037         138.219         21.9232         174.913 
        1.47263         136.559         21.4917         173.527 
        1.48494         134.492         21.0702          171.42 
        1.49724         132.688         20.6604         170.045 
        1.50952         130.282         20.2623         168.376 
        1.52178         129.753         19.8753         166.557 
        1.53409         126.977         19.4969         165.189 
        1.54637         125.535         19.1291           163.8 
        1.55858         123.331         18.7729         162.038 
        1.57081         121.691         18.4253         160.661 
        1.58313         120.161         18.0844         159.032 
        1.59544         118.435         17.7523         157.648 
        1.60767         117.324         17.4306         156.164 
        1.61994         115.245         17.1159         154.919 
        1.63225         113.854         16.8082         153.161 
        1.64452         111.774          16.509          151.79 
        1.65676         110.149          16.218         150.532 
          1.669         109.502         15.9339         149.257 
        1.68133         107.151         15.6547         147.881 
        1.69363         105.927         15.3831         146.562 
        1.70585         104.022         15.1196          145.26 
        1.71809         102.838         14.8618         143.757 
        1.73038         102.121         14.6092           142.6 
        1.74268         100.903         14.3623         141.257 
        1.75493          98.716         14.1223          140.03 
        1.76714         97.6883         13.8883         138.898 
        1.77942         96.3148         13.6585         137.493 
        1.79173         94.9441         13.4333         136.408 
        1.80402         94.1913         13.2137          135.22 
         1.8163         92.2369         12.9991         133.966 
         1.8286         91.0157         12.7889         132.786 
         1.8409         90.3798         12.5835         131.587 
        1.85315         88.8248         12.3833         130.539 
        1.86537         87.7948         12.1879          129.45 
        1.87765         86.9929          11.996          128.32 
        1.88995         85.5216         11.8077         127.221 
        1.90221         84.3794         11.6242         126.144 
        1.91445         83.2922         11.4448         124.973 
        1.92674         81.9104         11.2686         123.944 
        1.93902         80.9036         11.0962         122.835 
        1.95124         80.0944         10.9282         121.837 
         1.9635          78.836         10.7633         120.714 
        1.97583         77.6682         10.6008         119.801 
        1.98812         76.6849         10.4422         118.804 
        2.00039         75.7471         10.2872         117.762 
        2.01264         74.9571         10.1355         116.783 
        2.02492         74.0035         9.98669         115.779 
        2.03717         72.7627         9.84107          114.79 
        2.04942         72.4347         9.69854         113.945 
        2.06171         70.7829         9.55836         112.951 
        2.07397         70.0091         9.42125         112.054 
        2.08629         69.2088         9.28626         111.078 
        2.09857         68.1584         9.15425         110.193 
        2.11081         67.1185         9.02534         109.177 
        2.12309         66.3467         8.89861          108.43 
        2.13538         65.5235         8.77412         107.486 
        2.14763          64.634         8.65244         106.625 
        2.15986         63.5284         8.53335         105.713 
        2.17214         63.0169         8.41602          104.84 
        2.18443         62.2601         8.30078         104.145 
        2.19671         61.0919         8.18784         103.252 
        2.20898         60.7719         8.07714         102.378 
        2.22126         59.8429         7.96837         101.551 
        2.23354         59.1447         7.86164         100.777 
         2.2458         58.2545         7.75705         99.9954 
        2.25807         57.4793         7.65427         99.1535 
        2.27035         56.8645         7.55326         98.3488 
        2.28263         56.0667         7.45413         97.5752 
         2.2949         55.4724         7.35682         96.8143 
        2.30718         54.4454         7.26123          96.085 
        2.31946         54.1187         7.16728         95.2942 
        2.33169         53.1757         7.07541         94.5634 
        2.34393         52.6067           6.985         93.8592 
        2.35622         51.9315         6.89589         93.1178 
        2.36847         51.4511         6.80858         92.4824 
        2.38076         50.5505         6.72252         91.6492 
        2.39305          49.997         6.63797         91.0203 
        2.40534         49.4677         6.55487          90.273 
        2.41762         48.8773         6.47321          89.535 
        2.42989          48.294         6.39306         88.9266 
        2.44216         47.7392         6.31427         88.2011 
         2.4544         47.1182           6.237         87.5335 
        2.46667         46.5809         6.16084         86.8447 
        2.47897         46.0864         6.08577         86.1837 
        2.49124         45.4779         6.01216         85.5705 
        2.50349         45.1604         5.93988         84.8943 
        2.51578         44.4315         5.86856         84.3436 
        2.52805         43.9429         5.79855         83.6487 
        2.54029         43.4977         5.72985          82.976 
        2.55257         42.8696         5.66205         82.4119 
        2.56487         42.5158         5.59523         81.8388 
        2.57716         41.9346         5.52958         81.2368 
        2.58942         41.3643         5.46512         80.6121 
        2.60167         41.0567         5.40176         80.0274 
        2.61395         40.4545         5.33931          79.448 
        2.62624         40.2155         5.27776         78.8133 
        2.63849         39.6896         5.21737         78.2618 
        2.65073         39.3295         5.15799         77.6823 
        2.66302         38.7967         5.09933         77.1054 
         2.6753          38.357         5.04162         76.5653 
        2.68756         37.9545         4.98491         75.9885 
        2.69983         37.5966         4.92904          75.482 
        2.71213         37.2159         4.87391         74.9503 
        2.72441         36.8394         4.81972         74.3961 
        2.73665         36.3111         4.76648         73.8618 
         2.7489         36.1891         4.71408          73.341 
        2.76118         35.6755         4.66231         72.8307 
        2.77349         35.3923         4.61119         72.3064 
        2.78576         35.1263         4.56103         71.7653 
        2.79802         34.7182         4.51165         71.3286 
        2.81031         34.3177         4.46289         70.8048 
        2.82259         34.2568         4.41487         70.2811 
        2.83483         33.7792         4.36773         69.8281 
         2.8471         33.4329         4.32119         69.3363 
         2.8594         33.1915         4.27519         68.8308 
         2.8717          33.008         4.22988         68.3707 
        2.88396         32.6357         4.18538         67.8882 
        2.89619         32.4898         4.14161         67.3855 
        2.90847         32.1459          4.0983         66.9219 
        2.92072         31.9416         4.05569         66.4902 
        2.93299         31.7535         4.01366         66.0364 
        2.94526         31.4364         3.97218         65.5909 
        2.95753          31.241         3.93131         65.1396 
        2.96982         31.1037         3.89094         64.6952 
        2.98209         30.8051         3.85121         64.2662 
        2.99436         30.6116         3.81201          63.802 
        3.00666         30.5451         3.77329         63.3857 
        3.01894         30.2771         3.73519         62.9472 
        3.03119         30.1379         3.69766         62.5385 
        3.04345         30.0148         3.66065         62.1444 
        3.05573         29.7608         3.62406         61.7279 
          3.068         29.7594         3.58802         61.3124 
        3.08026         29.5902         3.55251         60.8999 
        3.09254          29.461         3.51741         60.5003 
        3.10483         29.4532         3.48277         60.1091 
         3.1171         29.2424         3.44865         59.7129 
        3.12933         29.2273         3.41508         59.3089 
        3.14159         29.0908         3.38189         58.9067 
