# k  (h/Mpc)    Pcb(k)  (Mpc/h)^3    Pcb_linear(k) (Mpc/h)^3    Pcb_NL(k) (Mpc/h)^3   ShotnoiseSubtracted = false
      0.0156606         15872.9           15938         15827.4 
      0.0273761         13648.9         13781.3         13666.1 
      0.0384619         10341.6         10383.1         10286.9 
      0.0498308         8012.56         8167.12         8072.43 
      0.0625568         6765.96         6941.11         6854.86 
      0.0751274          5996.2         5897.26         5774.14 
      0.0867833         4663.85         4747.96         4712.16 
      0.0984825         3904.22         3757.41         3796.71 
       0.111151         3321.36         3137.37         3182.52 
       0.123864            2979         2827.41         2864.56 
       0.135742         2704.34         2542.54         2580.32 
        0.14762         2340.57            2174         2273.51 
       0.160083         1967.63         1812.15         1931.77 
       0.172465          1754.8         1581.66         1732.84 
       0.184281         1603.25         1458.11         1612.19 
       0.196406         1491.43         1346.56         1480.37 
       0.209011         1383.69         1198.09         1338.47 
       0.221538         1248.23         1047.02         1238.69 
       0.233611         1179.28         936.811         1152.44 
       0.245665         1077.93         864.641         1061.58 
       0.258103         1044.49         804.906         1000.18 
       0.270422         938.375         739.615         935.568 
       0.282519         875.283         671.242         878.102 
       0.294636         866.235         611.576         827.768 
       0.306978         780.508         565.811         789.753 
       0.319417          757.16             529         743.548 
        0.33169         713.454         493.765         701.455 
       0.343948         680.672         457.502         676.994 
       0.356249         640.624         423.494         649.457 
       0.368458         620.748         395.009         616.107 
        0.38068         601.244         371.187         590.272 
       0.392856          567.36         349.442         567.392 
       0.405069         542.613          328.18         549.766 
       0.417459         520.576         307.592         524.853 
       0.429752         508.462         289.111         505.959 
       0.441978         491.577          272.89         491.623 
       0.454294          465.65          258.16         470.355 
        0.46658         456.285          244.34         459.078 
       0.478753         442.827         231.302         443.788 
       0.490964         426.546         219.055         429.251 
       0.503334         403.758         207.751         418.048 
       0.515665         402.514         197.443         408.956 
       0.527909           387.8         187.927         397.575 
       0.540159         377.993         178.924         386.422 
        0.55248         370.557         170.382         375.843 
       0.564743         365.269         162.472         368.795 
        0.57686         351.086         155.202         358.098 
       0.589077         339.352          148.34         350.186 
       0.601441         335.531         141.814         342.282 
        0.61382         329.284         135.662         335.639 
       0.626067         323.799         129.921         328.324 
       0.638306         309.772         124.514         322.061 
       0.650632         304.644         119.392          312.78 
       0.662899         302.241         114.592         308.805 
       0.675076         290.587         110.093         302.901 
       0.687267         283.326         105.831         295.897 
       0.699615         279.104          101.74         290.779 
       0.711937         274.606         97.8737         285.544 
       0.724148         266.306         94.2408         281.244 
       0.736433         260.512         90.7744         275.489 
       0.748747         256.253         87.4771         270.244 
       0.761037         251.644         84.3516         265.902 
       0.773197         248.224         81.4111         262.367 
       0.785376         244.701         78.6075          257.57 
       0.797761         238.756         75.8926         253.806 
       0.810096         235.773         73.3166          250.09 
       0.822371         226.858         70.8727          245.94 
       0.834626         226.213         68.5448         242.232 
       0.846916           221.5         66.3158         238.701 
       0.859215         221.307         64.1853         235.228 
       0.871383         215.309           62.17         231.568 
        0.88363         213.575         60.2297         229.162 
       0.895928         208.622         58.3653         225.593 
       0.908253         202.894         56.5767         221.841 
       0.920535         202.145         54.8694         218.857 
       0.932774         195.559         53.2389         215.803 
        0.94508         193.728         51.6667         213.538 
       0.957324         193.253          50.166         210.328 
        0.96953         190.552         48.7298         207.271 
       0.981769         184.614         47.3464         205.367 
       0.994071         183.735         46.0105         202.669 
         1.0064         179.508          44.724         199.589 
        1.01868         177.073         43.4907         197.336 
        1.03092          173.87         42.3096         195.226 
         1.0432         170.478         41.1684         192.793 
        1.05553         167.866         40.0649          190.47 
        1.06777          167.66         39.0101         188.543 
           1.08         163.474         37.9945         186.084 
        1.09227         161.548          37.012         184.176 
         1.1046         159.001         36.0606         182.119 
         1.1169         156.502         35.1445         179.634 
        1.12915         154.105         34.2649         177.926 
        1.14142         151.633         33.4137         175.604 
        1.15365         149.623          32.594         173.762 
        1.16585         147.504         31.8041         171.496 
        1.17807          145.44         31.0396         170.259 
        1.19037         144.438         30.2952         168.491 
        1.20276         141.781         29.5703         166.422 
        1.21504          139.58         28.8749         164.633 
        1.22728         136.825         28.2048         162.598 
        1.23954         136.199         27.5545         161.328 
        1.25184         133.508         26.9235         159.495 
        1.26414         131.512          26.312         157.821 
        1.27632         130.988         25.7251         156.955 
         1.2886         128.637          25.152         154.721 
        1.30093         125.169         24.5944         153.069 
        1.31316         124.612         24.0578         151.415 
        1.32541         122.803         23.5372         150.282 
        1.33772         121.603         23.0291         148.654 
        1.35005         119.898         22.5357         146.998 
        1.36225         118.418         22.0619         145.689 
        1.37447         116.277         21.6008         144.058 
        1.38676         115.241         21.1508         142.611 
        1.39907         112.808         20.7129         141.304 
        1.41133         111.279         20.2893         140.137 
        1.42358         109.686          19.878         138.784 
        1.43591         108.798         19.4753         137.222 
        1.44818         107.736          19.086         136.096 
        1.46037         105.615         18.7097          134.71 
        1.47263         104.442         18.3414         133.696 
        1.48494          103.14         17.9817         132.211 
        1.49724         101.606         17.6319         130.889 
        1.50952         99.8061         17.2922          129.74 
        1.52178         99.1668         16.9619         128.506 
        1.53409         97.6423          16.639         127.406 
        1.54637         96.0409         16.3251         126.272 
        1.55858         94.6618         16.0211          125.03 
        1.57081         93.3227         15.7245         123.953 
        1.58313          92.255         15.4335         122.791 
        1.59544          91.227         15.1501         121.711 
        1.60767         89.8653         14.8756          120.54 
        1.61994         88.4895          14.607         119.754 
        1.63225         87.2614         14.3444           118.3 
        1.64452         85.8958         14.0891         117.326 
        1.65676         84.7519         13.8408         116.357 
          1.669         84.1502         13.5982         115.418 
        1.68133         82.8083           13.36         114.322 
        1.69363         81.8877         13.1282         113.394 
        1.70585         80.6069         12.9033         112.341 
        1.71809         79.4062         12.6833         111.403 
        1.73038         78.6729         12.4677         110.378 
        1.74268         77.3928          12.257         109.438 
        1.75493         76.6335         12.0522         108.452 
        1.76714          75.354         11.8526         107.572 
        1.77942         74.7252         11.6564         106.581 
        1.79173         73.4342         11.4642         105.719 
        1.80402         72.7513         11.2768         104.884 
         1.8163         71.6443         11.0936         103.819 
         1.8286         70.6172         10.9142         103.049 
         1.8409         69.8431          10.739         102.154 
        1.85315         68.7294         10.5681         101.376 
        1.86537         68.0017         10.4014         100.488 
        1.87765         67.3091         10.2376         99.5393 
        1.88995         66.2359         10.0769         98.8176 
        1.90221         65.4053         9.92026         97.9643 
        1.91445          64.202         9.76721         97.1588 
        1.92674         63.5466         9.61686         96.3771 
        1.93902         62.7288         9.46967           95.51 
        1.95124          62.251         9.32634         94.8403 
         1.9635         61.1519         9.18562         93.8918 
        1.97583         60.4775         9.04691         93.2744 
        1.98812         59.7309          8.9116         92.4474 
        2.00039         58.7419         8.77932         91.6982 
        2.01264         58.2387         8.64986         90.9305 
        2.02492         57.3642         8.52282         90.2204 
        2.03717         56.5256         8.39854         89.4194 
        2.04942         55.9822         8.27691         88.8006 
        2.06171         55.0298         8.15727         88.0272 
        2.07397         54.4547         8.04027           87.38 
        2.08629          53.934         7.92507         86.6164 
        2.09857          53.166          7.8124         85.9549 
        2.11081         52.0868         7.70239         85.1924 
        2.12309         51.8196         7.59423         84.6016 
        2.13538         51.0358           7.488         83.9024 
        2.14763         50.4616         7.38415         83.2466 
        2.15986          49.542         7.28252          82.576 
        2.17214         49.0672         7.18239         81.9443 
        2.18443         48.5966         7.08404         81.3396 
        2.19671         47.7164         6.98766         80.6466 
        2.20898         47.4987         6.89318          80.023 
        2.22126         46.7327         6.80035         79.3651 
        2.23354          46.092         6.70927         78.7965 
         2.2458         45.5883         6.62001         78.2138 
        2.25807         45.1338         6.53229         77.5467 
        2.27035         44.5384         6.44609         76.9515 
        2.28263          43.822         6.36149         76.3428 
         2.2949         43.4152         6.27845         75.7733 
        2.30718         42.7818         6.19687         75.2222 
        2.31946         42.2152         6.11669         74.6682 
        2.33169         41.7112         6.03828         74.0823 
        2.34393         41.0212         5.96113         73.5188 
        2.35622         40.7901         5.88508         72.9515 
        2.36847         40.2575         5.81057         72.4358 
        2.38076         39.7786         5.73712         71.8548 
        2.39305         39.2521         5.66497         71.3393 
        2.40534         38.8678         5.59405         70.7513 
        2.41762         38.4675         5.52436            70.2 
        2.42989         37.8388         5.45595          69.739 
        2.44216          37.568         5.38872         69.1986 
         2.4544         37.1161         5.32277         68.6811 
        2.46667         36.6897         5.25778         68.1378 
        2.47897         36.2517         5.19371         67.6556 
        2.49124         35.7587         5.13089         67.1636 
        2.50349         35.2695          5.0692         66.6582 
        2.51578         34.8728         5.00834          66.211 
        2.52805         34.7559         4.94859         65.7012 
        2.54029         34.2245         4.88996         65.2036 
        2.55257         33.7255          4.8321         64.7484 
        2.56487          33.461         4.77507         64.2982 
        2.57716         33.0423         4.71904         63.8575 
        2.58942         32.6499         4.66404         63.3677 
        2.60167         32.1896         4.60996         62.8939 
        2.61395         31.9389         4.55667         62.4544 
        2.62624         31.6833         4.50414         61.9993 
        2.63849         31.3761          4.4526         61.5691 
        2.65073         31.0298         4.40193         61.0971 
        2.66302         30.6749         4.35186         60.6733 
         2.6753         30.2998         4.30261          60.251 
        2.68756         29.8695         4.25422         59.7963 
        2.69983         29.6802         4.20653          59.405 
        2.71213         29.3912         4.15948         59.0044 
        2.72441         29.1694         4.11324         58.5658 
        2.73665         28.8805         4.06781         58.1479 
         2.7489         28.6705         4.02308         57.7479 
        2.76118         28.2572          3.9789         57.3472 
        2.77349         28.1257         3.93527         56.9557 
        2.78576         27.9207         3.89247         56.5398 
        2.79802         27.5321         3.85033         56.1682 
        2.81031         27.2942         3.80871         55.7854 
        2.82259         27.0859         3.76773         55.3778 
        2.83483         26.8081          3.7275         54.9987 
         2.8471         26.4979         3.68779          54.632 
         2.8594         26.3816         3.64853         54.2717 
         2.8717         26.0863         3.60985         53.8939 
        2.88396         25.9077         3.57189         53.5033 
        2.89619         25.6697         3.53453         53.1404 
        2.90847         25.5021         3.49757         52.7944 
        2.92072         25.3488          3.4612         52.4271 
        2.93299          25.209         3.42533         52.0652 
        2.94526         24.9472         3.38993         51.7342 
        2.95753         24.8134         3.35505         51.3969 
        2.96982         24.7522          3.3206         51.0477 
        2.98209         24.5114          3.2867         50.7109 
        2.99436         24.3056         3.25324         50.3612 
        3.00666         24.2918          3.2202         50.0303 
        3.01894         24.0864         3.18768         49.6775 
        3.03119         23.9838         3.15565         49.3553 
        3.04345         23.8736         3.12406         49.0502 
        3.05573         23.8193         3.09284         48.7282 
          3.068         23.6954         3.06208         48.4045 
        3.08026         23.5459         3.03177          48.082 
        3.09254         23.4854         3.00182         47.7712 
        3.10483         23.4791         2.97226          47.466 
         3.1171         23.4318         2.94314         47.1572 
        3.12933         23.3632          2.9145         46.8488 
        3.14159         23.2405         2.88617         46.5425 
