# k  (h/Mpc)    P(k)  (Mpc/h)^3    P_linear(k)  (Mpc/h)^3     P_NL(k)  ShotnoiseSubtracted = false
      0.0156606         18779.8         18762.6         18623.4 
      0.0273761         16094.7         16195.7         16039.6 
      0.0384619           12171           12191         12056.1 
      0.0498308         9407.77         9583.81         9449.24 
      0.0625568         7942.67         8141.89         8020.97 
      0.0751274         7056.34         6915.69         6744.74 
      0.0867833         5474.75            5567         5515.35 
      0.0984825         4605.58         4405.04         4455.17 
       0.111151         3929.01         3677.79         3737.79 
       0.123864         3521.37         3314.19          3363.1 
       0.135742         3203.79         2980.13         3029.49 
        0.14762         2781.72         2548.05         2679.15 
       0.160083          2350.7         2123.87         2283.72 
       0.172465         2096.67         1853.68         2056.63 
       0.184281         1907.24         1708.84         1913.82 
       0.196406         1787.02         1578.08         1759.98 
       0.209011         1665.39         1404.06         1593.37 
       0.221538         1501.21            1227         1482.15 
       0.233611         1429.97         1097.83         1384.68 
       0.245665         1300.17         1013.25         1277.09 
       0.258103         1275.67          943.24         1204.65 
       0.270422         1140.15         866.721         1129.56 
       0.282519         1070.99         786.592         1065.18 
       0.294636         1056.24         716.668         1006.94 
       0.306978         958.713         663.035         963.132 
       0.319417         935.038         619.897         907.491 
        0.33169         880.183         578.605         857.822 
       0.343948         842.056         536.108         830.143 
       0.356249         795.305         496.256         798.107 
       0.368458         767.605         462.875         760.046 
        0.38068         749.878         434.962         729.787 
       0.392856         709.996         409.479          702.97 
       0.405069         676.144         384.561         681.098 
       0.417459         649.808         360.436         653.823 
       0.429752         640.798          338.78         630.724 
       0.441978         618.698         319.772         613.916 
       0.454294         589.193         302.511         588.222 
        0.46658         573.855         286.315         575.367 
       0.478753         560.545         271.036         557.112 
       0.490964         538.949         256.684          539.61 
       0.503334         513.228         243.439          526.65 
       0.515665         512.055         231.361         515.152 
       0.527909         491.786          220.21         502.766 
       0.540159         479.229          209.66         489.246 
        0.55248         469.766          199.65         476.296 
       0.564743         465.446         190.381         467.991 
        0.57686         448.022         181.863         455.108 
       0.589077         436.271         173.821         444.919 
       0.601441         429.449         166.175         435.622 
        0.61382         419.041         158.965         427.906 
       0.626067         413.486         152.238         419.236 
       0.638306         397.338         145.903         411.068 
       0.650632         392.641           139.9         400.212 
       0.662899         389.089         134.276         395.526 
       0.675076         374.634         129.004         389.107 
       0.687267         364.889         124.009         379.836 
       0.699615         361.087         119.217         373.738 
       0.711937         355.359         114.686         366.961 
       0.724148         343.376         110.429         361.635 
       0.736433         335.466         106.367         354.782 
       0.748747         330.965         102.503         348.296 
       0.761037         324.625         98.8407         343.533 
       0.773197         320.594         95.3951         338.432 
       0.785376         315.608         92.1099         333.094 
       0.797761         307.097         88.9285         327.826 
       0.810096         304.451         85.9101          323.64 
       0.822371         294.033         83.0464         318.298 
       0.834626         292.477         80.3185         314.079 
       0.846916         286.275         77.7067         309.327 
       0.859215         285.636         75.2102         304.909 
       0.871383         278.128         72.8487         300.598 
        0.88363         276.321         70.5752         297.504 
       0.895928         270.582         68.3905         292.772 
       0.908253         263.618         66.2946         288.084 
       0.920535         261.128         64.2941          284.42 
       0.932774         254.567         62.3834         280.416 
        0.94508         251.446         60.5412         277.496 
       0.957324         250.248         58.7828         273.602 
        0.96953         246.547         57.0998         270.047 
       0.981769         239.469         55.4789         267.296 
       0.994071         238.511         53.9134         263.912 
         1.0064         233.313          52.406          260.02 
        1.01868         230.435         50.9608          256.79 
        1.03092         224.442         49.5769         254.358 
         1.0432         221.063         48.2396         251.259 
        1.05553         218.264         46.9466         247.951 
        1.06777         217.293         45.7106         245.366 
           1.08         211.876         44.5206         242.447 
        1.09227         209.655         43.3692         239.641 
         1.1046         206.384         42.2545         237.243 
         1.1169         201.861          41.181         233.998 
        1.12915          199.13         40.1503         231.877 
        1.14142         195.824         39.1529         228.921 
        1.15365          193.07         38.1924         226.509 
        1.16585         189.985         37.2669         223.699 
        1.17807          187.68          36.371         221.791 
        1.19037         185.561         35.4987         219.711 
        1.20276         182.864         34.6493           216.9 
        1.21504         178.955         33.8345         214.548 
        1.22728         175.795         33.0493         211.821 
        1.23954         175.153         32.2872         210.253 
        1.25184         171.658         31.5479         207.889 
        1.26414         168.574         30.8314         205.784 
        1.27632         167.858         30.1437         204.253 
         1.2886         166.098         29.4721         201.654 
        1.30093         161.292         28.8188         199.358 
        1.31316         158.776           28.19         197.125 
        1.32541         157.446         27.5799         195.503 
        1.33772         155.801         26.9846         193.467 
        1.35005         153.266         26.4065         191.297 
        1.36225         150.785         25.8512         189.547 
        1.37447         148.679         25.3109         187.258 
        1.38676         146.833         24.7836         185.704 
        1.39907         144.407         24.2705         183.694 
        1.41133         142.059         23.7742         182.009 
        1.42358         140.256         23.2922         180.298 
        1.43591         138.559         22.8204         178.401 
        1.44818         136.569         22.3642         176.766 
        1.46037         134.619         21.9232         174.913 
        1.47263         132.891         21.4917         173.527 
        1.48494         130.842         21.0702          171.42 
        1.49724         129.034         20.6604         170.045 
        1.50952         126.662         20.2623         168.376 
        1.52178         126.076         19.8753         166.557 
        1.53409         123.301         19.4969         165.189 
        1.54637         121.851         19.1291           163.8 
        1.55858         119.691         18.7729         162.038 
        1.57081         118.016         18.4253         160.661 
        1.58313         116.488         18.0844         159.032 
        1.59544         114.721         17.7523         157.648 
        1.60767         113.654         17.4306         156.164 
        1.61994         111.565         17.1159         154.919 
        1.63225         110.182         16.8082         153.161 
        1.64452         108.118          16.509          151.79 
        1.65676         106.532          16.218         150.532 
          1.669          105.84         15.9339         149.257 
        1.68133         103.507         15.6547         147.881 
        1.69363         102.261         15.3831         146.562 
        1.70585         100.385         15.1196          145.26 
        1.71809         99.2064         14.8618         143.757 
        1.73038         98.4768         14.6092           142.6 
        1.74268         97.2681         14.3623         141.257 
        1.75493         95.0777         14.1223          140.03 
        1.76714         94.1149         13.8883         138.898 
        1.77942         92.6959         13.6585         137.493 
        1.79173         91.3492         13.4333         136.408 
        1.80402         90.5851         13.2137          135.22 
         1.8163         88.6702         12.9991         133.966 
         1.8286         87.4621         12.7889         132.786 
         1.8409         86.8333         12.5835         131.587 
        1.85315         85.2756         12.3833         130.539 
        1.86537         84.2776         12.1879          129.45 
        1.87765         83.4779          11.996          128.32 
        1.88995         82.0325         11.8077         127.221 
        1.90221         80.8903         11.6242         126.144 
        1.91445         79.8464         11.4448         124.973 
        1.92674         78.4687         11.2686         123.944 
        1.93902         77.4828         11.0962         122.835 
        1.95124         76.6501         10.9282         121.837 
         1.9635         75.4274         10.7633         120.714 
        1.97583         74.2771         10.6008         119.801 
        1.98812          73.316         10.4422         118.804 
        2.00039         72.4069         10.2872         117.762 
        2.01264         71.5985         10.1355         116.783 
        2.02492         70.6907         9.98669         115.779 
        2.03717          69.489         9.84107          114.79 
        2.04942         69.1318         9.69854         113.945 
        2.06171         67.5346         9.55836         112.951 
        2.07397         66.7766         9.42125         112.054 
        2.08629          65.996         9.28626         111.078 
        2.09857          64.972         9.15425         110.193 
        2.11081          63.951         9.02534         109.177 
        2.12309         63.1713         8.89861          108.43 
        2.13538         62.3812         8.77412         107.486 
        2.14763         61.5284         8.65244         106.625 
        2.15986         60.4586         8.53335         105.713 
        2.17214          59.951         8.41602          104.84 
        2.18443         59.2085         8.30078         104.145 
        2.19671         58.0766         8.18784         103.252 
        2.20898         57.7451         8.07714         102.378 
        2.22126          56.854         7.96837         101.551 
        2.23354         56.1779         7.86164         100.777 
         2.2458         55.2993         7.75705         99.9954 
        2.25807         54.5528         7.65427         99.1535 
        2.27035         53.9246         7.55326         98.3488 
        2.28263         53.1749         7.45413         97.5752 
         2.2949         52.5777         7.35682         96.8143 
        2.30718         51.6092         7.26123          96.085 
        2.31946         51.2848         7.16728         95.2942 
        2.33169         50.3633         7.07541         94.5634 
        2.34393         49.8353           6.985         93.8592 
        2.35622         49.1397         6.89589         93.1178 
        2.36847         48.7005         6.80858         92.4824 
        2.38076         47.8322         6.72252         91.6492 
        2.39305          47.291         6.63797         91.0203 
        2.40534          46.777         6.55487          90.273 
        2.41762         46.2024         6.47321          89.535 
        2.42989         45.6257         6.39306         88.9266 
        2.44216         45.1062         6.31427         88.2011 
         2.4544         44.4938           6.237         87.5335 
        2.46667         43.9784         6.16084         86.8447 
        2.47897         43.5023         6.08577         86.1837 
        2.49124         42.9308         6.01216         85.5705 
        2.50349          42.621         5.93988         84.8943 
        2.51578         41.9149         5.86856         84.3436 
        2.52805         41.4368         5.79855         83.6487 
        2.54029         41.0215         5.72985          82.976 
        2.55257         40.4191         5.66205         82.4119 
        2.56487         40.0831         5.59523         81.8388 
        2.57716         39.5172         5.52958         81.2368 
        2.58942          38.972         5.46512         80.6121 
        2.60167         38.6748         5.40176         80.0274 
        2.61395         38.1045         5.33931          79.448 
        2.62624         37.8578         5.27776         78.8133 
        2.63849         37.3494         5.21737         78.2618 
        2.65073         37.0086         5.15799         77.6823 
        2.66302         36.5175         5.09933         77.1054 
         2.6753         36.0949         5.04162         76.5653 
        2.68756          35.711         4.98491         75.9885 
        2.69983         35.3526         4.92904          75.482 
        2.71213         34.9917         4.87391         74.9503 
        2.72441         34.6301         4.81972         74.3961 
        2.73665         34.1335         4.76648         73.8618 
         2.7489         33.9992         4.71408          73.341 
        2.76118         33.5244         4.66231         72.8307 
        2.77349          33.239         4.61119         72.3064 
        2.78576         32.9812         4.56103         71.7653 
        2.79802          32.604         4.51165         71.3286 
        2.81031         32.2272         4.46289         70.8048 
        2.82259         32.1578         4.41487         70.2811 
        2.83483         31.7049         4.36773         69.8281 
         2.8471         31.3865         4.32119         69.3363 
         2.8594          31.146         4.27519         68.8308 
         2.8717         30.9771         4.22988         68.3707 
        2.88396          30.615         4.18538         67.8882 
        2.89619         30.4802         4.14161         67.3855 
        2.90847         30.1496          4.0983         66.9219 
        2.92072         29.9676         4.05569         66.4902 
        2.93299          29.785         4.01366         66.0364 
        2.94526         29.4753         3.97218         65.5909 
        2.95753         29.2911         3.93131         65.1396 
        2.96982         29.1472         3.89094         64.6952 
        2.98209         28.8811         3.85121         64.2662 
        2.99436         28.6898         3.81201          63.802 
        3.00666         28.6295         3.77329         63.3857 
        3.01894         28.3678         3.73519         62.9472 
        3.03119         28.2512         3.69766         62.5385 
        3.04345         28.1362         3.66065         62.1444 
        3.05573         27.8739         3.62406         61.7279 
          3.068         27.8805         3.58802         61.3124 
        3.08026         27.7149         3.55251         60.8999 
        3.09254         27.6024         3.51741         60.5003 
        3.10483         27.5954         3.48277         60.1091 
         3.1171         27.3865         3.44865         59.7129 
        3.12933         27.3716         3.41508         59.3089 
        3.14159         27.2436         3.38189         58.9067 
