# k  (h/Mpc)    P(k)  (Mpc/h)^3    P_linear(k)  (Mpc/h)^3     P_NL(k)  ShotnoiseSubtracted = false
      0.0156606           20586         20657.8         20498.3 
      0.0273761         17625.2         17830.8         17644.5 
      0.0384619         13319.9         13421.3         13257.6 
      0.0498308         10285.9         10550.7         10386.6 
      0.0625568         8685.71         8963.17         8816.66 
      0.0751274         7727.91         7613.18            7407 
      0.0867833         5988.61         6128.41         6065.07 
      0.0984825         5052.85         4849.24         4907.19 
       0.111151         4318.21         4048.62         4119.82 
       0.123864         3868.85         3648.35         3706.08 
       0.135742         3524.89         3280.59         3338.61 
        0.14762         3066.02         2804.95            2959 
       0.160083         2600.12            2338         2527.31 
       0.172465         2319.08         2040.56         2281.42 
       0.184281          2104.4         1881.11          2123.2 
       0.196406         1980.74         1737.17         1954.63 
       0.209011         1850.86         1545.61         1771.13 
       0.221538         1667.24         1350.69            1652 
       0.233611         1595.18          1208.5         1546.87 
       0.245665         1447.15         1115.39            1428 
       0.258103         1428.82         1038.32         1347.99 
       0.270422         1275.08         954.091         1265.75 
       0.282519         1202.34         865.884         1196.99 
       0.294636         1182.54         788.911         1133.26 
       0.306978         1078.11         729.872         1085.49 
       0.319417         1055.12         682.384         1023.28 
        0.33169          992.35          636.93         968.597 
       0.343948         951.458         590.149         938.459 
       0.356249         900.836         546.279         903.326 
       0.368458         866.867         509.533         862.367 
        0.38068         851.021         478.807         829.151 
       0.392856         807.324         450.755         799.809 
       0.405069         766.964         423.325         774.403 
       0.417459         737.606         396.769         745.955 
       0.429752         731.754         372.929         719.867 
       0.441978         706.181         352.005         701.396 
       0.454294         674.328         333.004         672.636 
        0.46658         655.611         315.176         658.636 
       0.478753         642.345         298.357         638.434 
       0.490964         617.391         282.558         618.827 
       0.503334         590.076         267.978         604.766 
       0.515665         588.334         254.681         591.357 
       0.527909         564.351         242.407         578.376 
       0.540159         550.201         230.793         563.444 
        0.55248         539.347         219.774         548.764 
       0.564743         535.008         209.572         539.431 
        0.57686         516.229         200.194          525.04 
       0.589077         505.235         191.342         513.391 
       0.601441         495.259         182.925         503.191 
        0.61382         482.089         174.989         494.445 
       0.626067         476.527         167.583         484.961 
       0.638306         458.772         160.609         475.289 
       0.650632         454.266         154.002         463.547 
       0.662899         450.343          147.81         458.076 
       0.675076         434.787         142.008         451.419 
       0.687267         422.879         136.509         440.672 
       0.699615         420.197         131.233         433.724 
       0.711937         412.609         126.246         425.704 
       0.724148          398.87          121.56         419.817 
       0.736433         389.519         117.088         412.209 
       0.748747          384.57         112.835         404.854 
       0.761037         377.482         108.804          399.76 
       0.773197         372.386         105.011         393.445 
       0.785376         367.037         101.394         387.634 
       0.797761         356.431         97.8924         381.628 
       0.810096         353.363         94.5696         376.861 
       0.822371         342.733         91.4173         370.694 
       0.834626         340.079         88.4145         366.163 
       0.846916         333.806         85.5394         360.485 
       0.859215         331.507         82.7912         355.294 
       0.871383         323.472         80.1917         350.516 
        0.88363         320.783          77.689         346.944 
       0.895928         315.219         75.2841         341.484 
       0.908253         307.321          72.977         335.971 
       0.920535         302.851         70.7748         332.057 
       0.932774         297.077         68.6716         327.182 
        0.94508         292.847         66.6437         323.822 
       0.957324          290.83         64.7079         319.447 
        0.96953         286.794         62.8554         315.518 
       0.981769         279.352          61.071         312.108 
       0.994071         278.328         59.3478         308.253 
         1.0064         272.642         57.6884         303.759 
        1.01868         269.617         56.0976         299.881 
        1.03092          261.66         54.5741         297.203 
         1.0432         258.766          53.102         293.604 
        1.05553         255.729         51.6787          289.62 
        1.06777          253.41         50.3182          286.47 
           1.08         247.423         49.0082         283.233 
        1.09227         245.917         47.7408         279.838 
         1.1046         241.579         46.5136         277.126 
         1.1169         236.044          45.332         273.398 
        1.12915         233.014         44.1974         270.797 
        1.14142         228.657         43.0994          267.48 
        1.15365         225.896         42.0421         264.659 
        1.16585         221.909         41.0233         261.574 
        1.17807         219.621         40.0371         259.023 
        1.19037         216.556         39.0769         256.753 
        1.20276         213.537         38.1418         253.405 
        1.21504         208.957         37.2449         250.605 
        1.22728         205.741         36.3806           247.6 
        1.23954         204.711         35.5417         245.488 
        1.25184         200.285         34.7278         242.827 
        1.26414         196.348         33.9391          240.47 
        1.27632         195.275         33.1821         238.412 
         1.2886          193.77         32.4429         235.578 
        1.30093         188.643         31.7236         232.727 
        1.31316         184.907         31.0315         230.282 
        1.32541         183.798         30.3599         228.111 
        1.33772         181.235         29.7046         225.893 
        1.35005         178.725         29.0682         223.355 
        1.36225         175.411          28.457         221.275 
        1.37447         172.883         27.8622         218.559 
        1.38676         171.039         27.2818         216.941 
        1.39907         168.462         26.7169         214.406 
        1.41133         165.431         26.1706          212.27 
        1.42358         163.496           25.64         210.269 
        1.43591         161.514         25.1206         208.249 
        1.44818         158.556         24.6185         206.178 
        1.46037         156.974          24.133         203.984 
        1.47263         154.231         23.6581         202.226 
        1.48494         152.416         23.1941         199.745 
        1.49724          150.15         22.7429         198.369 
        1.50952         147.363         22.3047         196.255 
        1.52178         146.391         21.8787         194.134 
        1.53409          143.37         21.4621         192.483 
        1.54637         141.508         21.0573         190.894 
        1.55858         139.578         20.6652         188.813 
        1.57081         137.295         20.2826         187.121 
        1.58313         135.458         19.9073         185.212 
        1.59544          133.02         19.5417         183.562 
        1.60767         131.965         19.1876         181.907 
        1.61994         129.568         18.8411          180.24 
        1.63225         127.789         18.5025          178.33 
        1.64452         125.591         18.1731         176.737 
        1.65676         123.863         17.8528         175.216 
          1.669         122.714           17.54         173.615 
        1.68133         120.223         17.2327         172.031 
        1.69363         118.271         16.9336         170.518 
        1.70585         116.338         16.6436             169 
        1.71809          114.89         16.3598         167.175 
        1.73038         113.862         16.0818         165.833 
        1.74268         112.711           15.81         164.226 
        1.75493          109.75         15.5458         162.856 
        1.76714         109.271         15.2882         161.487 
        1.77942          107.17         15.0353         159.885 
        1.79173         105.476         14.7874         158.513 
        1.80402         104.477         14.5456         157.106 
         1.8163         102.299         14.3093         155.775 
         1.8286         101.036         14.0779         154.307 
         1.8409         100.238         13.8519         152.871 
        1.85315         98.0839         13.6315         151.632 
        1.86537         97.3053         13.4164         150.375 
        1.87765         96.0947         13.2051         149.091 
        1.88995         94.3716         12.9979         147.707 
        1.90221          93.162         12.7958         146.519 
        1.91445         91.9622         12.5984         145.112 
        1.92674         90.4849         12.4045         143.874 
        1.93902         89.2639         12.2146         142.582 
        1.95124         88.1699         12.0298         141.382 
         1.9635         86.7124         11.8482         140.135 
        1.97583          85.389         11.6693         138.968 
        1.98812         84.2888         11.4948         137.906 
        2.00039         83.2945         11.3242          136.62 
        2.01264         82.2301         11.1572         135.498 
        2.02492         81.3439         10.9933         134.279 
        2.03717         79.9295          10.833         133.199 
        2.04942          79.236         10.6761          132.12 
        2.06171         77.5283         10.5218          130.97 
        2.07397         76.7386         10.3709         129.936 
        2.08629         75.7523         10.2223         128.806 
        2.09857         74.6962          10.077         127.768 
        2.11081         73.4118         9.93507         126.589 
        2.12309         72.4025         9.79556         125.671 
        2.13538         71.4425         9.65853         124.563 
        2.14763         70.5449         9.52458         123.569 
        2.15986         69.5384         9.39349         122.478 
        2.17214         68.7467         9.26433         121.499 
        2.18443         67.8211         9.13748         120.671 
        2.19671         66.7898         9.01316         119.632 
        2.20898         66.1191          8.8913         118.572 
        2.22126         65.1229         8.77156          117.67 
        2.23354         64.3882         8.65407         116.734 
         2.2458          63.174         8.53893         115.795 
        2.25807         62.4807         8.42579         114.844 
        2.27035          61.607         8.31461         113.906 
        2.28263         60.7915         8.20548         113.026 
         2.2949         59.8477         8.09837         112.138 
        2.30718          58.971         7.99314         111.256 
        2.31946          58.553         7.88972         110.302 
        2.33169         57.5008         7.78859         109.467 
        2.34393          57.059         7.68907         108.676 
        2.35622         55.9655         7.59097         107.789 
        2.36847         55.5596         7.49486         107.053 
        2.38076         54.6136         7.40013         106.079 
        2.39305         54.0144         7.30706         105.364 
        2.40534         53.2911         7.21558         104.493 
        2.41762         52.6764         7.12569         103.643 
        2.42989         51.8442         7.03746         102.908 
        2.44216         51.3345         6.95074          102.05 
         2.4544         50.5203         6.86567           101.3 
        2.46667         49.9459         6.78184         100.519 
        2.47897         49.3937          6.6992         99.7124 
        2.49124         48.8806         6.61817         98.9925 
        2.50349         48.3555          6.5386          98.234 
        2.51578         47.6203          6.4601         97.5837 
        2.52805         47.0587         6.38302         96.7608 
        2.54029         46.5861          6.3074         96.0026 
        2.55257         45.9754         6.23277         95.3459 
        2.56487         45.7019         6.15921         94.6619 
        2.57716          44.982         6.08694         93.9463 
        2.58942         44.3596         6.01599         93.2449 
        2.60167         43.8516         5.94624         92.5648 
        2.61395         43.4033          5.8775         91.8812 
        2.62624         42.7919         5.80974         91.1479 
        2.63849         42.3232         5.74327         90.4995 
        2.65073         41.9018         5.67791         89.8412 
        2.66302         41.4136         5.61333         89.1588 
         2.6753         40.9954          5.5498         88.5443 
        2.68756         40.5745         5.48738         87.8735 
        2.69983         40.0423         5.42587         87.2685 
        2.71213         39.6592         5.36518         86.6419 
        2.72441         39.2454         5.30553         86.0054 
        2.73665         38.7662         5.24693         85.4102 
         2.7489         38.3659         5.18925         84.8063 
        2.76118         38.0181         5.13225         84.1875 
        2.77349         37.5773         5.07598         83.5928 
        2.78576         37.2263         5.02077         82.9675 
        2.79802         36.9071         4.96641         82.4576 
        2.81031         36.3972         4.91274         81.8522 
        2.82259         36.2108         4.85987         81.2443 
        2.83483         35.7372         4.80799         80.7236 
         2.8471         35.4421         4.75676         80.1374 
         2.8594         35.1094         4.70612         79.5581 
         2.8717         34.9356         4.65623          79.041 
        2.88396         34.5369         4.60726         78.4831 
        2.89619         34.3243         4.55908         77.8932 
        2.90847         33.9463          4.5114         77.3344 
        2.92072         33.7543         4.46449          76.853 
        2.93299         33.5986         4.41822          76.344 
        2.94526         33.2119         4.37256         75.8111 
        2.95753         32.9982         4.32757         75.2762 
        2.96982         32.6931         4.28313         74.7727 
        2.98209         32.5086         4.23941         74.2797 
        2.99436         32.2467         4.19625         73.7401 
        3.00666         32.1979         4.15363         73.2473 
        3.01894         31.8556         4.11168         72.7528 
        3.03119         31.8138         4.07037         72.2843 
        3.04345         31.6573         4.02963         71.8161 
        3.05573         31.3444         3.98936         71.3277 
          3.068         31.2768         3.94968         70.8526 
        3.08026          31.108         3.91059         70.3751 
        3.09254         31.0414         3.87195         69.9177 
        3.10483         31.0114         3.83382         69.4626 
         3.1171         30.8449         3.79627         68.9984 
        3.12933         30.7048         3.75931          68.537 
        3.14159         30.5912         3.72277         68.0715 
