# k  (h/Mpc)    Pcb(k)  (Mpc/h)^3    Pcb_linear(k) (Mpc/h)^3    Pcb_NL(k) (Mpc/h)^3   ShotnoiseSubtracted = false
      0.0156606         1163.59         1164.19         1158.75 
      0.0273761         1013.35         1007.69          1005.5 
      0.0384619         769.829         759.545          759.31 
      0.0498308         605.053         597.589         597.809 
      0.0625568         510.605          507.96         507.608 
      0.0751274         438.764         431.609         430.715 
      0.0867833         350.102         347.513         347.435 
      0.0984825         281.605         275.023         275.665 
       0.111151         235.406         229.647         230.239 
       0.123864         211.372         206.963         207.294 
       0.135742          189.67         186.114         186.393 
        0.14762         161.183         159.139         159.953 
       0.160083         134.052         132.653         133.639 
       0.172465         117.564         115.781         116.942 
       0.184281         108.856         106.737          107.94 
       0.196406         99.4953         98.5721         99.4576 
       0.209011         89.1732         87.7044         88.7405 
       0.221538         78.6972         76.6457         78.1264 
       0.233611         70.5679         68.5782         70.2194 
       0.245665         65.9619         63.2952          64.742 
       0.258103         59.6746         58.9226         60.3546 
       0.270422         55.8207         54.1431          55.518 
       0.282519         50.6283          49.138         50.6329 
       0.294636         47.3734         44.7702         46.3473 
       0.306978         42.3511           41.42         43.0425 
       0.319417         40.1946         38.7254          40.298 
        0.33169         37.3683          36.146         37.6618 
       0.343948         35.1587         33.4914         35.0065 
       0.356249         32.1718         31.0019         32.7175 
       0.368458         30.4388         28.9167         30.4517 
        0.38068         28.4036         27.1728         28.6995 
       0.392856         26.6769          25.581         27.1223 
       0.405069         25.1908         24.0245         25.4901 
       0.417459          23.302         22.5174         24.0405 
       0.429752         22.2046         21.1644         22.6707 
       0.441978         21.0869          19.977         21.5616 
       0.454294         19.6902         18.8987         20.3971 
        0.46658         19.1827          17.887         19.3587 
       0.478753         17.9239         16.9326         18.4002 
       0.490964         17.2146          16.036         17.5702 
       0.503334         16.4159         15.2085         16.6608 
       0.515665         15.4616         14.4539         15.9769 
       0.527909          14.816         13.7573         15.1625 
       0.540159         14.0671         13.0982         14.4876 
        0.55248         13.1995         12.4729         13.8153 
       0.564743         12.9472         11.8939         13.3061 
        0.57686         12.4027         11.3617         12.7315 
       0.589077         11.6557         10.8593         12.2622 
       0.601441          11.185         10.3816         11.7586 
        0.61382         10.7428         9.93121         11.2597 
       0.626067         10.2778         9.51093         10.8338 
       0.638306         9.90339         9.11515         10.4083 
       0.650632         9.62264         8.74017         10.0467 
       0.662899         9.16426         8.38877         9.65673 
       0.675076         8.71233         8.05946         9.31481 
       0.687267         8.45656         7.74741         8.95798 
       0.699615         8.20526         7.44798         8.64953 
       0.711937         7.78521         7.16492         8.37487 
       0.724148          7.6626         6.89897         8.09304 
       0.736433         7.25226         6.64521         7.80113 
       0.748747         7.03962         6.40383         7.57784 
       0.761037         6.83863         6.17503         7.32617 
       0.773197         6.53769         5.95977         7.11599 
       0.785376         6.31613         5.75453         6.88555 
       0.797761         6.11581         5.55578         6.65765 
       0.810096         5.95127          5.3672         6.49105 
       0.822371         5.79731          5.1883         6.27292 
       0.834626         5.59661         5.01788         6.09003 
       0.846916         5.39366         4.85471         5.92967 
       0.859215         5.18279         4.69874          5.7696 
       0.871383         5.03819         4.55121         5.60924 
        0.88363          4.9047         4.40917          5.4521 
       0.895928         4.79312         4.27268         5.29643 
       0.908253         4.64455         4.14174         5.15786 
       0.920535         4.48655         4.01676          5.0129 
       0.932774          4.3753          3.8974         4.86625 
        0.94508          4.2437         3.78231         4.75554 
       0.957324         4.13491         3.67245          4.6489 
        0.96953         3.99207         3.56731         4.52865 
       0.981769         3.88118         3.46604         4.40162 
       0.994071         3.80729         3.36824         4.30927 
         1.0064          3.6793         3.27406         4.20238 
        1.01868         3.56659         3.18377         4.09902 
        1.03092         3.50932         3.09731         3.99486 
         1.0432         3.38251         3.01377         3.90615 
        1.05553         3.30962         2.93299         3.82363 
        1.06777         3.20353         2.85577         3.74083 
           1.08         3.14812         2.78142         3.64968 
        1.09227         3.04964         2.70949         3.56514 
         1.1046         2.97938         2.63985         3.49055 
         1.1169         2.89123         2.57279         3.41444 
        1.12915          2.8434         2.50839         3.34598 
        1.14142         2.76081         2.44608         3.26768 
        1.15365         2.70071         2.38608         3.20551 
        1.16585         2.64522         2.32825         3.13904 
        1.17807         2.59488         2.27228         3.07207 
        1.19037          2.4987         2.21779         3.00694 
        1.20276         2.44621         2.16472          2.9413 
        1.21504         2.39746         2.11381         2.89462 
        1.22728         2.34191         2.06476         2.82731 
        1.23954         2.29795         2.01715         2.78587 
        1.25184         2.24352         1.97096         2.72162 
        1.26414         2.19755          1.9262         2.66597 
        1.27632         2.13148         1.88323         2.62515 
         1.2886         2.10343         1.84128         2.56975 
        1.30093         2.03944         1.80046         2.52905 
        1.31316         1.98262         1.76118         2.47854 
        1.32541         1.95884         1.72306         2.43808 
        1.33772         1.92566         1.68587         2.39262 
        1.35005         1.88395         1.64975         2.35148 
        1.36225         1.84204         1.61506         2.30612 
        1.37447         1.80345         1.58131         2.27202 
        1.38676         1.76486         1.54836         2.22636 
        1.39907         1.72171         1.51631         2.19411 
        1.41133         1.68864          1.4853         2.15647 
        1.42358         1.66849         1.45519         2.11369 
        1.43591          1.6332         1.42571         2.09078 
        1.44818         1.59703         1.39721         2.05359 
        1.46037         1.55999         1.36966         2.01557 
        1.47263          1.5291          1.3427         1.98659 
        1.48494         1.50418         1.31637         1.95444 
        1.49724         1.47098         1.29076         1.92253 
        1.50952         1.45385         1.26589         1.89018 
        1.52178         1.41653         1.24171         1.86469 
        1.53409         1.39134         1.21807         1.83175 
        1.54637         1.35925          1.1951         1.80245 
        1.55858         1.34135         1.17284         1.77498 
        1.57081         1.31998         1.15113          1.7483 
        1.58313         1.29051         1.12983         1.72616 
        1.59544         1.26994         1.10908         1.69878 
        1.60767         1.24935         1.08898         1.67383 
        1.61994         1.22268         1.06932         1.65076 
        1.63225         1.20591          1.0501          1.6278 
        1.64452         1.18375         1.03141         1.60226 
        1.65676          1.1588         1.01323         1.58052 
          1.669         1.14161        0.995472         1.55599 
        1.68133          1.1187        0.978032         1.53803 
        1.69363         1.10738        0.961061         1.51504 
        1.70585         1.08586        0.944601          1.4949 
        1.71809         1.07037        0.928495         1.47362 
        1.73038         1.04753        0.912713         1.45398 
        1.74268         1.02762        0.897289          1.4336 
        1.75493         1.01901        0.882293         1.41686 
        1.76714        0.997987        0.867678         1.39523 
        1.77942        0.977526         0.85332         1.37757 
        1.79173        0.966324         0.83925         1.35935 
        1.80402        0.950402        0.825528          1.3418 
         1.8163        0.935057         0.81212         1.32325 
         1.8286        0.914207        0.798987         1.31069 
         1.8409         0.91005        0.786156          1.2928 
        1.85315        0.895939         0.77365         1.27453 
        1.86537        0.874897        0.761441         1.26047 
        1.87765        0.864154        0.749451         1.24399 
        1.88995        0.852187         0.73769         1.22931 
        1.90221        0.837188        0.726223         1.21355 
        1.91445        0.824714        0.715018         1.20014 
        1.92674        0.811884        0.704011         1.18494 
        1.93902         0.79677        0.693236         1.16979 
        1.95124        0.786716        0.682744         1.15606 
         1.9635        0.775337        0.672442         1.14199 
        1.97583        0.762181        0.662288          1.1277 
        1.98812        0.750518        0.652382           1.117 
        2.00039        0.739429        0.642699         1.10278 
        2.01264        0.729474        0.633221         1.09068 
        2.02492        0.720522        0.623921          1.0795 
        2.03717        0.712721        0.614824         1.06688 
        2.04942        0.698966        0.605919         1.05343 
        2.06171         0.68993        0.597161         1.04179 
        2.07397        0.679721        0.588595         1.03139 
        2.08629        0.671866        0.580162         1.02002 
        2.09857        0.660697        0.571914         1.00898 
        2.11081        0.650333        0.563861        0.997187 
        2.12309        0.642123        0.555943        0.987391 
        2.13538        0.635186        0.548166        0.975654 
        2.14763        0.627159        0.540564        0.965884 
        2.15986        0.618765        0.533124        0.956861 
        2.17214        0.606819        0.525793        0.944732 
        2.18443        0.601305        0.518594        0.935827 
        2.19671        0.593978        0.511538        0.926353 
        2.20898        0.585152        0.504622        0.916435 
        2.22126        0.575897        0.497826        0.907214 
        2.23354        0.568224        0.491158        0.898361 
         2.2458        0.563195        0.484624        0.888185 
        2.25807        0.554379        0.478203        0.879666 
        2.27035        0.548741        0.471892        0.870735 
        2.28263        0.539817        0.465699        0.862709 
         2.2949        0.533963         0.45962        0.853748 
        2.30718         0.52798        0.453648        0.845818 
        2.31946        0.520899        0.447778         0.83782 
        2.33169        0.513223        0.442039        0.829404 
        2.34393        0.508938         0.43639        0.821278 
        2.35622        0.501843        0.430823        0.813023 
        2.36847        0.496701        0.425368        0.805547 
        2.38076        0.489475        0.419992        0.797896 
        2.39305        0.484395        0.414709        0.790723 
        2.40534        0.477617        0.409518        0.783245 
        2.41762        0.472586        0.404416        0.775162 
        2.42989        0.465726        0.399408         0.76834 
        2.44216         0.46223        0.394486        0.761884 
         2.4544        0.458244        0.389659        0.754735 
        2.46667        0.452169        0.384901        0.747445 
        2.47897          0.4469        0.380211        0.741123 
        2.49124        0.440753        0.375612        0.734027 
        2.50349        0.436415        0.371096        0.727139 
        2.51578        0.431449         0.36664        0.720693 
        2.52805        0.428028        0.362266        0.714609 
        2.54029        0.422641        0.357974        0.708152 
        2.55257        0.418049        0.353739        0.702553 
        2.56487        0.414272        0.349564        0.696194 
        2.57716        0.409935        0.345462        0.689849 
        2.58942        0.406589        0.341436        0.684397 
        2.60167         0.40232        0.337477        0.677871 
        2.61395         0.39712        0.333575        0.672298 
        2.62624        0.393436         0.32973         0.66721 
        2.63849        0.389682        0.325957          0.6613 
        2.65073        0.386152        0.322248        0.655574 
        2.66302        0.382624        0.318582        0.649969 
         2.6753        0.379054        0.314977        0.644682 
        2.68756        0.376017        0.311434        0.639547 
        2.69983        0.371569        0.307944        0.634146 
        2.71213        0.366899        0.304499        0.629031 
        2.72441        0.365401        0.301114        0.624024 
        2.73665        0.362227        0.297788        0.619341 
         2.7489        0.360179        0.294514        0.614375 
        2.76118        0.356162        0.291279        0.609095 
        2.77349        0.353954        0.288085        0.604609 
        2.78576        0.351186        0.284952        0.599361 
        2.79802        0.348329        0.281867        0.594361 
        2.81031         0.34539        0.278821        0.590423 
        2.82259        0.343489         0.27582        0.585213 
        2.83483        0.340525        0.272876        0.580716 
         2.8471        0.338373        0.269968        0.576422 
         2.8594        0.336674        0.267094        0.572286 
         2.8717        0.333543        0.264263        0.567924 
        2.88396        0.331427        0.261483        0.563404 
        2.89619         0.32984        0.258749        0.559409 
        2.90847         0.32768        0.256043        0.555388 
        2.92072        0.326153         0.25338        0.550842 
        2.93299        0.323672        0.250754        0.546561 
        2.94526        0.322097        0.248163        0.542671 
        2.95753        0.321325         0.24561        0.538779 
        2.96982        0.319142        0.243088        0.534671 
        2.98209        0.318477        0.240606        0.530639 
        2.99436        0.315626        0.238157        0.526911 
        3.00666        0.315489        0.235738        0.523369 
        3.01894        0.314894        0.233357        0.519497 
        3.03119        0.313669        0.231013        0.515543 
        3.04345        0.312227          0.2287        0.512011 
        3.05573        0.312222        0.226415        0.508712 
          3.068        0.309817        0.224163         0.50503 
        3.08026        0.310171        0.221944        0.501017 
        3.09254        0.309226        0.219751        0.497476 
        3.10483        0.308585        0.217587        0.494309 
         3.1171        0.309125        0.215456        0.491029 
        3.12933        0.308537        0.213359        0.487628 
        3.14159        0.307596        0.211285        0.484233 
