# k  (h/Mpc)    Pcb(k)  (Mpc/h)^3    Pcb_linear(k) (Mpc/h)^3    Pcb_NL(k) (Mpc/h)^3   ShotnoiseSubtracted = false
      0.0156606         7776.76         7792.57         7748.39 
      0.0273761         6724.04         6740.26         6707.66 
      0.0384619         5106.54         5078.97          5057.4 
      0.0498308          3980.7         3995.36         3976.19 
      0.0625568         3359.28         3395.78         3376.62 
      0.0751274         2944.53          2885.2         2856.07 
      0.0867833         2311.47         2322.96          2316.4 
      0.0984825         1902.88         1838.35         1851.72 
       0.111151         1604.34         1535.01         1548.84 
       0.123864          1441.1         1383.37            1395 
       0.135742         1300.36            1244         1255.97 
        0.14762         1112.59         1063.69         1092.86 
       0.160083         925.251         886.649         920.155 
       0.172465         822.159         773.877         815.248 
       0.184281         759.715         713.425         756.926 
       0.196406         695.223         658.847         694.014 
       0.209011         635.193         586.207         624.578 
       0.221538         570.618          512.29         565.894 
       0.233611         524.206         458.367         518.417 
       0.245665         489.323         423.056         476.883 
       0.258103         452.062         393.829         447.391 
       0.270422         417.858         361.884         414.955 
       0.282519         381.799          328.43         384.186 
       0.294636         375.282         299.236         357.977 
       0.306978         332.141         276.844         337.908 
       0.319417         318.554         258.833         317.471 
        0.33169         298.259         241.593         298.193 
       0.343948         284.625          223.85         283.234 
       0.356249         264.917          207.21         269.439 
       0.368458          255.77         193.273         252.981 
        0.38068         243.017         181.618         240.604 
       0.392856         226.907         170.978         230.019 
       0.405069         217.095         160.575          220.16 
       0.417459         206.795         150.501         208.323 
       0.429752         199.047         141.459         199.779 
       0.441978         191.701         133.522         192.906 
       0.454294         178.608         126.315         183.292 
        0.46658         178.795         119.553          177.08 
       0.478753         168.381         113.173         170.466 
       0.490964         163.189         107.181         163.963 
       0.503334         155.015          101.65          158.42 
       0.515665         151.172         96.6066         154.264 
       0.527909         146.463         91.9506         147.534 
       0.540159         141.568         87.5457         143.172 
        0.55248         137.057          83.366          138.23 
       0.564743          133.12         79.4958         134.557 
        0.57686         128.892         75.9388          130.11 
       0.589077         123.154          72.581         126.916 
       0.601441         120.473         69.3883         123.464 
        0.61382         118.451         66.3779          119.65 
       0.626067          113.86         63.5688         116.569 
       0.638306         109.852         60.9235         113.649 
       0.650632         105.968         58.4172         109.651 
       0.662899         105.678         56.0686         107.137 
       0.675076         101.873         53.8675         104.514 
       0.687267         99.5952         51.7819         101.978 
       0.699615         96.5713         49.7805           99.89 
       0.711937         93.6665         47.8886         97.0339 
       0.724148         92.7953         46.1111         95.6651 
       0.736433         89.0846          44.415         93.0663 
       0.748747         87.4149         42.8017         90.9999 
       0.761037         85.4881         41.2724         88.8378 
       0.773197         83.6225         39.8337         87.7304 
       0.785376         81.6512         38.4619         85.4787 
       0.797761         80.8331         37.1335         84.1294 
       0.810096         78.0151         35.8731         82.2081 
       0.822371         76.5325         34.6773         80.5902 
       0.834626         74.7806         33.5383         79.2354 
       0.846916          73.683         32.4477         77.7909 
       0.859215         72.0715         31.4052         76.1918 
       0.871383         71.1028         30.4192         74.9083 
        0.88363         69.1436         29.4698         73.8461 
       0.895928         67.7293         28.5576         72.5209 
       0.908253         66.0784         27.6824         71.2816 
       0.920535         65.7292         26.8471         70.1304 
       0.932774         64.3748         26.0492         68.9226 
        0.94508         63.4861           25.28         67.6735 
       0.957324         61.8863         24.5457          66.782 
        0.96953         61.8518          23.843         65.5711 
       0.981769           59.79         23.1661         64.7891 
       0.994071         59.1048         22.5125         63.8215 
         1.0064         57.8138          21.883         62.8299 
        1.01868         56.9609         21.2796         61.9769 
        1.03092         56.0491         20.7017          61.049 
         1.0432         55.0934         20.1433         60.0588 
        1.05553         53.7208         19.6034          59.582 
        1.06777         53.2678         19.0873         58.6436 
           1.08         52.0277         18.5904         57.7945 
        1.09227         51.3928         18.1096         56.9922 
         1.1046         50.6263         17.6441         56.2177 
         1.1169         50.0418         17.1959         55.4121 
        1.12915         49.1993         16.7655         54.8103 
        1.14142         48.2595          16.349          54.118 
        1.15365         47.5323         15.9479         53.4911 
        1.16585         46.8153         15.5615         52.7246 
        1.17807         46.0648         15.1874         52.0435 
        1.19037         45.9347         14.8231          51.578 
        1.20276         45.1097         14.4684         50.9355 
        1.21504         44.5332         14.1282         50.3673 
        1.22728         43.6604         13.8003         49.7682 
        1.23954         43.1722         13.4821         49.0756 
        1.25184         42.4463         13.1734         48.6291 
        1.26414         41.8337         12.8742         47.9995 
        1.27632         41.4961          12.587         47.5085 
         1.2886         41.0591         12.3066         46.9944 
        1.30093         40.3669         12.0338         46.3891 
        1.31316         39.7448         11.7713         46.0088 
        1.32541         39.4828         11.5165         45.4864 
        1.33772         38.7222         11.2679         45.0088 
        1.35005           38.29         11.0265         44.5668 
        1.36225         37.6623         10.7947         44.1346 
        1.37447         36.7761         10.5691         43.6373 
        1.38676         36.9117         10.3489         43.2539 
        1.39907         36.3189         10.1346         42.8565 
        1.41133         35.5663         9.92736         42.4049 
        1.42358         35.2013         9.72611         41.9623 
        1.43591         34.8016         9.52908         41.6028 
        1.44818          34.439         9.33859         41.1231 
        1.46037         33.9859         9.15446         40.7495 
        1.47263         33.7456         8.97428         40.4254 
        1.48494         33.0786         8.79827         39.9978 
        1.49724         32.9759         8.62714         39.6269 
        1.50952         32.4902         8.46091         39.3078 
        1.52178         31.9991         8.29931         38.9283 
        1.53409         31.7457         8.14129         38.5859 
        1.54637          31.311         7.98772         38.1958 
        1.55858         30.5985         7.83899         37.8697 
        1.57081         30.6873         7.69385          37.576 
        1.58313         30.3076         7.55148         37.2176 
        1.59544          29.743          7.4128         36.9085 
        1.60767         29.4004          7.2785         36.5429 
        1.61994         29.0499         7.14706         36.2592 
        1.63225         28.8976          7.0186         35.9889 
        1.64452         28.4753         6.89366         35.6863 
        1.65676         28.1671         6.77215         35.3625 
          1.669         27.8906         6.65349         35.1084 
        1.68133         27.5513         6.53692         34.7882 
        1.69363         27.1469         6.42349         34.4493 
        1.70585         26.9387         6.31348         34.2682 
        1.71809         26.4945         6.20583         33.9104 
        1.73038         26.3597         6.10035         33.6983 
        1.74268          26.015         5.99726         33.3595 
        1.75493         25.6976         5.89702         33.1274 
        1.76714         25.5447         5.79934         32.8854 
        1.77942         25.2561         5.70338         32.6092 
        1.79173         24.8194         5.60934         32.3535 
        1.80402         24.5672         5.51762         32.1836 
         1.8163         24.4559         5.42801         31.8027 
         1.8286         24.0178         5.34023         31.6198 
         1.8409         23.8154         5.25447         31.3827 
        1.85315         23.5718         5.17088         31.1621 
        1.86537         23.2561         5.08928         30.9256 
        1.87765         23.1277         5.00914         30.6844 
        1.88995         22.8039         4.93053         30.4145 
        1.90221          22.574         4.85389         30.1979 
        1.91445         22.2862           4.779         29.9785 
        1.92674         22.0902         4.70544         29.7557 
        1.93902         21.8311         4.63342         29.5664 
        1.95124          21.497         4.56329            29.4 
         1.9635         21.3788         4.49444         29.1351 
        1.97583         21.1531         4.42657         28.9301 
        1.98812         20.9784         4.36036         28.7416 
        2.00039         20.7451         4.29564         28.5269 
        2.01264         20.4997         4.23229         28.3421 
        2.02492          20.343         4.17013         28.1041 
        2.03717         20.0247         4.10933         27.9224 
        2.04942         19.8677         4.04981         27.7118 
        2.06171          19.727         3.99128         27.5305 
        2.07397         19.5223         3.93403         27.3156 
        2.08629         19.3311         3.87766         27.1212 
        2.09857          19.136         3.82253         26.9526 
        2.11081         18.8962          3.7687         26.7646 
        2.12309         18.7682         3.71578         26.5777 
        2.13538         18.5237         3.66381         26.4006 
        2.14763         18.3545           3.613         26.2245 
        2.15986         18.2114         3.56327         26.0551 
        2.17214         18.0072         3.51427         25.8836 
        2.18443         17.8368         3.46615         25.6907 
        2.19671         17.6411         3.41899         25.5091 
        2.20898         17.4755         3.37277         25.3414 
        2.22126         17.3482         3.32735         25.1863 
        2.23354         17.2464         3.28278         25.0162 
         2.2458         17.0349         3.23911         24.8774 
        2.25807         16.8129         3.19619         24.6664 
        2.27035         16.6755         3.15401         24.5231 
        2.28263         16.5128         3.11262         24.3637 
         2.2949         16.4153         3.07198         24.2175 
        2.30718         16.2604         3.03207         24.0647 
        2.31946         16.1386         2.99284         23.8949 
        2.33169         15.9603         2.95448         23.7409 
        2.34393         15.8125         2.91672         23.6088 
        2.35622         15.6128         2.87951         23.4502 
        2.36847         15.4917         2.84305         23.2893 
        2.38076         15.3294         2.80712         23.1583 
        2.39305         15.2317         2.77181         23.0072 
        2.40534         15.0648         2.73712         22.8339 
        2.41762          14.918         2.70301         22.7277 
        2.42989         14.8001         2.66955         22.5609 
        2.44216         14.6551         2.63665         22.4242 
         2.4544         14.6402         2.60438         22.2706 
        2.46667         14.4407         2.57258         22.1462 
        2.47897         14.2618         2.54123         21.9974 
        2.49124         14.2072          2.5105         21.8628 
        2.50349         14.0342         2.48031         21.7166 
        2.51578         13.9376         2.45053         21.6121 
        2.52805         13.8262          2.4213         21.4699 
        2.54029         13.7314         2.39261         21.3374 
        2.55257         13.6304          2.3643         21.2034 
        2.56487         13.4513          2.3364         21.0775 
        2.57716         13.3687         2.30898         20.9307 
        2.58942         13.2963         2.28207         20.8282 
        2.60167          13.119         2.25561         20.7006 
        2.61395         13.1093         2.22953         20.5728 
        2.62624         13.0044         2.20383         20.4461 
        2.63849         12.8635         2.17862         20.3419 
        2.65073         12.7637         2.15382         20.2061 
        2.66302           12.69         2.12933         20.0961 
         2.6753         12.6319         2.10523          19.967 
        2.68756         12.5187         2.08155          19.858 
        2.69983         12.4171         2.05822         19.7333 
        2.71213         12.3102          2.0352         19.6032 
        2.72441         12.2707         2.01257         19.4993 
        2.73665         12.1809         1.99034         19.3847 
         2.7489         12.1313         1.96846         19.2639 
        2.76118         11.9962         1.94684         19.1581 
        2.77349         11.9329         1.92549         19.0456 
        2.78576          11.832         1.90455         18.9425 
        2.79802         11.7998         1.88393         18.8245 
        2.81031         11.7195         1.86357         18.7118 
        2.82259         11.6536         1.84351          18.611 
        2.83483         11.6033         1.82383         18.5066 
         2.8471         11.5393          1.8044         18.3935 
         2.8594         11.4894         1.78519         18.2818 
         2.8717         11.4266         1.76627         18.1834 
        2.88396           11.35         1.74769         18.0789 
        2.89619         11.3193         1.72941         17.9732 
        2.90847         11.2711         1.71133         17.8797 
        2.92072         11.2268         1.69353         17.7616 
        2.93299          11.135         1.67598          17.671 
        2.94526         11.1187         1.65866          17.578 
        2.95753         11.0698         1.64159         17.4719 
        2.96982         11.0237         1.62474         17.3723 
        2.98209         11.0183         1.60815         17.2754 
        2.99436         10.9856         1.59178         17.1726 
        3.00666         10.9588         1.57561         17.0778 
        3.01894         10.9297          1.5597         16.9965 
        3.03119         10.8924         1.54403          16.896 
        3.04345         10.8276         1.52857          16.789 
        3.05573         10.8451          1.5133            16.7 
          3.068         10.8214         1.49825         16.6161 
        3.08026         10.7998         1.48342         16.5103 
        3.09254         10.8007         1.46876          16.427 
        3.10483         10.7913          1.4543         16.3467 
         3.1171         10.8155         1.44005          16.251 
        3.12933         10.7814         1.42604         16.1597 
        3.14159         10.7467         1.41217         16.0675 
