# k  (h/Mpc)    Pcb(k)  (Mpc/h)^3    Pcb_linear(k) (Mpc/h)^3    Pcb_NL(k) (Mpc/h)^3   ShotnoiseSubtracted = false
      0.0156606         12790.8         12833.4         12750.7 
      0.0273761         11019.9           11098         11020.1 
      0.0384619          8357.8         8361.76         8300.21 
      0.0498308          6489.1         6577.39         6518.09 
      0.0625568         5478.22         5590.12         5535.04 
      0.0751274         4838.26         4749.49         4669.72 
      0.0867833         3774.19          3823.9         3802.09 
      0.0984825         3141.44         3026.15         3054.66 
       0.111151         2663.83         2526.79         2558.21 
       0.123864         2390.78         2277.16         2303.31 
       0.135742         2165.39         2047.74         2074.51 
        0.14762         1866.74         1750.92         1819.99 
       0.160083         1561.68          1459.5         1541.15 
       0.172465         1391.77         1273.86         1376.36 
       0.184281          1277.5         1174.35         1279.99 
       0.196406         1180.03         1084.51         1173.94 
       0.209011         1089.11         964.938         1059.87 
       0.221538         982.176         843.265         974.393 
       0.233611         918.943         754.504         901.927 
       0.245665         846.136         696.378         830.033 
       0.258103         806.705         648.269         780.954 
       0.270422         731.034         595.684         728.415 
       0.282519         676.357         540.616           680.2 
       0.294636         670.173         492.562         638.921 
       0.306978         599.341         455.702         607.604 
       0.319417         578.489         426.055         571.605 
        0.33169         544.729         397.677         538.282 
       0.343948         519.075         368.471         517.257 
       0.356249         486.867         341.081          494.86 
       0.368458         472.336         318.139         467.682 
        0.38068         453.707         298.954         446.946 
       0.392856         426.321          281.44         428.769 
       0.405069           409.1         264.315         414.543 
       0.417459         391.496         247.734         393.785 
       0.429752          379.36         232.849         379.223 
       0.441978         367.009         219.785         367.767 
       0.454294         345.281         207.922         351.138 
        0.46658          341.54         196.791         341.713 
       0.478753         328.382          186.29         329.809 
       0.490964          317.03         176.426         318.408 
       0.503334         299.151         167.322          309.41 
       0.515665          296.82          159.02         302.409 
       0.527909         287.175         151.356         292.571 
       0.540159         279.429         144.105         284.199 
        0.55248         273.921         137.225         275.889 
       0.564743         267.795         130.855         270.115 
        0.57686         257.896             125         261.815 
       0.589077         247.961         119.473         256.141 
       0.601441         244.704         114.217         250.007 
        0.61382         241.725         109.262         244.263 
       0.626067         236.154         104.638         238.577 
       0.638306         225.277         100.284         233.864 
       0.650632         220.023         96.1581         226.602 
       0.662899         219.299         92.2921         223.024 
       0.675076         211.142          88.669         218.183 
       0.687267         205.759         85.2359         213.367 
       0.699615         202.041         81.9416         209.235 
       0.711937           197.7         78.8274          205.19 
       0.724148         193.368         75.9015          202.14 
       0.736433         189.008         73.1096         197.628 
       0.748747          185.06          70.454         193.667 
       0.761037          182.24         67.9367         189.938 
       0.773197         178.781         65.5685         187.695 
       0.785376          176.76         63.3104         183.649 
       0.797761          172.73         61.1238         181.281 
       0.810096          169.37         59.0491         178.002 
       0.822371         163.453         57.0808         175.028 
       0.834626         162.058         55.2059         172.098 
       0.846916         159.845         53.4107         169.558 
       0.859215         158.393         51.6948         166.882 
       0.871383         154.749         50.0717         164.102 
        0.88363         152.391          48.509         162.259 
       0.895928         149.214         47.0073         159.918 
       0.908253         145.158         45.5668          157.02 
       0.920535          144.58         44.1918         155.005 
       0.932774         139.997         42.8785         152.526 
        0.94508         138.953         41.6123         150.731 
       0.957324         137.915         40.4036         148.507 
        0.96953         136.695         39.2469         146.148 
       0.981769         132.414         38.1328          144.84 
       0.994071         131.697         37.0568         142.818 
         1.0064         128.462         36.0207          140.68 
        1.01868         127.099         35.0274         139.123 
        1.03092         124.982         34.0761         137.464 
         1.0432         122.736          33.157         135.675 
        1.05553         120.187         32.2683         134.263 
        1.06777         119.947         31.4187         132.786 
           1.08         117.426         30.6008         131.005 
        1.09227          116.01         29.8094         129.596 
         1.1046         113.985         29.0432         127.991 
         1.1169         112.631         28.3054         126.264 
        1.12915         110.853         27.5969         124.945 
        1.14142         109.146         26.9114         123.363 
        1.15365         107.253         26.2512         122.018 
        1.16585         105.895          25.615         120.528 
        1.17807         104.218         24.9992         119.566 
        1.19037         103.944         24.3997         118.295 
        1.20276         101.641         23.8159         116.869 
        1.21504         100.794         23.2558          115.53 
        1.22728         98.6519         22.7161         114.304 
        1.23954         97.9419         22.1923         113.104 
        1.25184         95.8607         21.6841         111.964 
        1.26414         94.7432         21.1917         110.835 
        1.27632         93.8935          20.719         110.169 
         1.2886         92.2205         20.2574         108.541 
        1.30093         90.6503         19.8083         107.358 
        1.31316         89.9891         19.3762         106.452 
        1.32541         88.9022         18.9568         105.498 
        1.33772          87.665         18.5476           104.4 
        1.35005         86.7692         18.1503         103.319 
        1.36225         85.5306         17.7686         102.343 
        1.37447         83.7083         17.3972         101.244 
        1.38676         83.6137         17.0348         100.136 
        1.39907         81.8295         16.6821         99.3947 
        1.41133         80.5357          16.341         98.6118 
        1.42358           79.66         16.0097         97.4578 
        1.43591         79.0815         15.6854         96.5154 
        1.44818         78.0095         15.3718          95.626 
        1.46037          76.854         15.0688         94.8149 
        1.47263         75.5985         14.7722         94.0591 
        1.48494         75.0537         14.4824         93.1078 
        1.49724         73.7379         14.2007         92.1284 
        1.50952         72.9708         13.9271          91.287 
        1.52178         72.0671         13.6611         90.5585 
        1.53409         71.4846          13.401         89.7695 
        1.54637         69.7163         13.1482         88.9028 
        1.55858         69.1085         12.9034         88.0684 
        1.57081         68.3837         12.6645         87.3795 
        1.58313         67.3142         12.4302         86.6368 
        1.59544         66.5533         12.2019         85.8017 
        1.60767         65.8163         11.9808         85.0709 
        1.61994         64.8979         11.7645         84.4884 
        1.63225         63.9322          11.553         83.5176 
        1.64452          63.229         11.3473         82.9208 
        1.65676         62.2702         11.1473         82.1485 
          1.669         61.8457          10.952         81.4984 
        1.68133         61.1685         10.7601          80.756 
        1.69363         60.1277         10.5734         80.1793 
        1.70585         59.6967         10.3923         79.4488 
        1.71809         58.4302         10.2151         78.8786 
        1.73038         57.8726         10.0415         78.1256 
        1.74268         57.1038         9.87182         77.5075 
        1.75493          56.525         9.70683         76.8283 
        1.76714         55.7783         9.54604         76.1712 
        1.77942         55.4558         9.38808         75.5682 
        1.79173         54.4637         9.23329         74.8752 
        1.80402         53.9137         9.08231         74.3612 
         1.8163         53.2356          8.9348         73.6539 
         1.8286         52.4287         8.79032          73.203 
         1.8409         51.6993         8.64915         72.4963 
        1.85315         51.0951         8.51156          72.056 
        1.86537         50.5491         8.37724         71.4168 
        1.87765          49.977         8.24532         70.7373 
        1.88995         49.3478         8.11593         70.2049 
        1.90221         48.9393         7.98977         69.6391 
        1.91445         48.1542          7.8665         69.1538 
        1.92674         47.6638         7.74541         68.5665 
        1.93902         47.0828         7.62686         67.9867 
        1.95124         46.6978         7.51143         67.5595 
         1.9635         45.8336         7.39809         66.9368 
        1.97583         45.3967         7.28638         66.5004 
        1.98812         44.7003         7.17739         65.9159 
        2.00039         44.3995         7.07086         65.3927 
        2.01264          43.645         6.96659         64.9253 
        2.02492         43.2476         6.86427         64.4381 
        2.03717         42.6259         6.76418           63.88 
        2.04942         42.1075         6.66622         63.4374 
        2.06171         41.6654         6.56986         62.8758 
        2.07397         41.0574         6.47562         62.4667 
        2.08629         40.6206         6.38284         61.9363 
        2.09857         40.2972          6.2921         61.5261 
        2.11081         39.6065          6.2035         61.0018 
        2.12309         39.2359         6.11639         60.5459 
        2.13538         38.7624         6.03083         60.1226 
        2.14763         38.4109         5.94719         59.6645 
        2.15986         38.1697         5.86533         59.1905 
        2.17214         37.4191         5.78469         58.8333 
        2.18443         37.2286         5.70548         58.3107 
        2.19671         36.5618         5.62785         57.8633 
        2.20898         36.1367         5.55176         57.4251 
        2.22126         35.8392           5.477         56.9938 
        2.23354         35.3652         5.40364         56.6344 
         2.2458         35.0826         5.33175         56.1939 
        2.25807         34.4967          5.2611         55.7492 
        2.27035         34.1423         5.19168         55.3562 
        2.28263         33.7169         5.12354         54.9588 
         2.2949          33.328         5.05666          54.566 
        2.30718         33.0398         4.99095         54.1637 
        2.31946         32.6088         4.92638         53.7798 
        2.33169         32.3205         4.86323         53.3642 
        2.34393         31.8366         4.80109         52.9555 
        2.35622         31.4981         4.73984         52.6161 
        2.36847         31.1267         4.67983         52.1964 
        2.38076         30.9247         4.62067         51.8683 
        2.39305         30.5344         4.56256         51.4986 
        2.40534         30.2185         4.50544         51.0562 
        2.41762         29.8355         4.44931         50.7108 
        2.42989         29.4973         4.39422         50.3769 
        2.44216         29.2243         4.34007         50.0104 
         2.4544         28.9274         4.28696         49.6729 
        2.46667         28.4455         4.23461         49.2901 
        2.47897         28.2638         4.18301         48.9665 
        2.49124         27.9711         4.13242         48.6033 
        2.50349         27.6204         4.08273         48.2988 
        2.51578         27.2649         4.03371         47.9627 
        2.52805         27.0507         3.98559         47.6001 
        2.54029         26.8758         3.93837         47.2788 
        2.55257         26.5268         3.89177         46.9537 
        2.56487         26.3076         3.84584         46.6256 
        2.57716         26.0167         3.80071         46.3055 
        2.58942            25.7         3.75641         45.9995 
        2.60167         25.4122         3.71286         45.6472 
        2.61395         25.1902         3.66994         45.3439 
        2.62624         24.9352         3.62763         45.0478 
        2.63849         24.7488         3.58612         44.7331 
        2.65073          24.473         3.54531         44.4057 
        2.66302         24.1469         3.50499         44.1313 
         2.6753         23.9596         3.46532         43.8288 
        2.68756         23.7253         3.42634         43.5422 
        2.69983         23.5571         3.38794         43.2328 
        2.71213         23.2968         3.35004         42.9509 
        2.72441         23.1429          3.3128         42.6388 
        2.73665         22.8756         3.27621         42.3568 
         2.7489         22.6932         3.24019         42.0789 
        2.76118         22.5159          3.2046         41.7682 
        2.77349         22.3565         3.16946         41.5174 
        2.78576         22.1815         3.13499         41.2401 
        2.79802         21.8647         3.10105         40.9613 
        2.81031         21.7622         3.06754         40.7093 
        2.82259         21.6207         3.03453         40.4258 
        2.83483         21.3854         3.00213         40.1466 
         2.8471         21.3198         2.97014         39.8801 
         2.8594         21.0811         2.93852         39.6322 
         2.8717         20.8805         2.90737         39.3617 
        2.88396         20.7424         2.87679          39.092 
        2.89619         20.6739         2.84671          38.844 
        2.90847         20.5024         2.81694         38.5846 
        2.92072         20.3262         2.78765          38.354 
        2.93299         20.2697         2.75876         38.1007 
        2.94526         20.1384         2.73025         37.8509 
        2.95753         19.9867         2.70215         37.6112 
        2.96982         19.9519         2.67441         37.3693 
        2.98209         19.7649          2.6471         37.1329 
        2.99436         19.7416         2.62016         36.8957 
        3.00666         19.5812         2.59355         36.6525 
        3.01894         19.5351         2.56735         36.4052 
        3.03119         19.3766         2.54156         36.1675 
        3.04345         19.3367         2.51612         35.9472 
        3.05573         19.2603         2.49097          35.724 
          3.068         19.2325          2.4662         35.4817 
        3.08026         19.2175         2.44179         35.2587 
        3.09254         19.1047         2.41766         35.0468 
        3.10483         19.0724         2.39386         34.8306 
         3.1171         19.0318         2.37041         34.6101 
        3.12933         18.9921         2.34733         34.3901 
        3.14159         18.9662         2.32452         34.1691 
