# k  (h/Mpc)    Pcb(k)  (Mpc/h)^3    Pcb_linear(k) (Mpc/h)^3    Pcb_NL(k) (Mpc/h)^3   ShotnoiseSubtracted = false
      0.0156606         21588.4         21706.8           21536 
      0.0273761         18503.5         18766.8         18563.6 
      0.0384619         13991.5         14138.2         13958.2 
      0.0498308         10804.7         11120.4         10939.4 
      0.0625568          9128.1         9450.75         9289.62 
      0.0751274         8129.13         8029.33         7802.94 
      0.0867833         6296.76         6464.45         6394.45 
      0.0984825         5320.84         5115.75         5178.29 
       0.111151         4551.38         4271.53         4349.34 
       0.123864         4077.03          3849.5         3912.46 
       0.135742         3717.26         3461.65         3524.79 
        0.14762         3235.98         2959.87         3127.31 
       0.160083         2749.01         2467.22          2673.7 
       0.172465         2451.77         2153.41         2416.31 
       0.184281         2222.03         1985.18         2248.86 
       0.196406         2096.05         1833.31         2071.48 
       0.209011         1960.92         1631.17         1877.85 
       0.221538         1765.49         1425.49         1753.66 
       0.233611          1692.5         1275.44         1643.71 
       0.245665         1534.05         1177.19         1518.14 
       0.258103         1518.67         1095.86         1433.59 
       0.270422         1354.49         1006.97         1347.01 
       0.282519          1279.4         913.877         1275.52 
       0.294636         1256.34         832.643         1208.43 
       0.306978         1147.73         770.334         1158.24 
       0.319417         1124.99         720.218         1092.12 
        0.33169         1057.43         672.246         1034.45 
       0.343948         1014.98         622.875         1002.74 
       0.356249         962.034         576.573         965.731 
       0.368458         924.183         537.792         923.014 
        0.38068         909.213          505.36         888.028 
       0.392856         863.289         475.755         857.197 
       0.405069         819.033         446.806         829.625 
       0.417459         787.704         418.776         800.419 
       0.429752         783.539         393.615         772.555 
       0.441978             756         371.531         753.078 
       0.454294         722.596         351.477         722.527 
        0.46658         702.224         332.661         707.791 
       0.478753          688.73          314.91         686.446 
       0.490964         661.953         298.236         665.579 
       0.503334         633.503         282.846         650.855 
       0.515665         631.252         268.812         636.294 
       0.527909         605.116         255.856         622.909 
       0.540159           590.2         243.599         607.191 
        0.55248         578.392         231.969         591.503 
       0.564743         573.627           221.2          581.51 
        0.57686         554.264         211.302         566.219 
       0.589077         543.769         201.959         553.783 
       0.601441         531.667         193.075         543.026 
        0.61382         517.008         184.699         533.589 
       0.626067         511.307         176.882         523.638 
       0.638306          492.53         169.522         513.093 
       0.650632         487.866         162.548         500.844 
       0.662899         483.733         156.013         494.849 
       0.675076          467.68         149.888         488.015 
       0.687267         454.448         144.085         476.469 
       0.699615         452.428         138.516         468.977 
       0.711937          443.46         133.252         460.217 
       0.724148         428.884         128.306         454.035 
       0.736433          418.79         123.586         445.967 
       0.748747         413.457         119.097         438.101 
       0.761037         405.967         114.842         432.769 
       0.773197         400.039         110.839         425.748 
       0.785376         394.615         107.021         419.599 
       0.797761         382.911         103.325         413.279 
       0.810096         379.129          99.818         408.088 
       0.822371          368.49         96.4908         401.457 
       0.834626         365.144         93.3214         396.725 
       0.846916         359.039         90.2867         390.532 
       0.859215         355.497         87.3861         384.867 
       0.871383         347.229         84.6423         379.787 
        0.88363         343.689         82.0007         375.943 
       0.895928         338.337         79.4623         370.076 
       0.908253         329.875         77.0272         364.052 
       0.920535         324.088         74.7028          360.02 
       0.932774         318.707         72.4829         354.629 
        0.94508         313.895         70.3424         351.042 
       0.957324          311.16         68.2993         346.352 
        0.96953         307.008         66.3439         342.153 
       0.981769         299.337         64.4605         338.389 
       0.994071         298.191         62.6417         334.255 
         1.0064         292.327         60.8902         329.396 
        1.01868         289.034         59.2111         325.195 
        1.03092         280.329         57.6031         322.339 
         1.0432         277.525         56.0493         318.441 
        1.05553         274.396          54.547         314.081 
        1.06777         271.161          53.111         310.595 
           1.08         264.859         51.7282         307.144 
        1.09227         263.781         50.3905         303.451 
         1.1046         258.771         49.0953         300.549 
         1.1169         252.949         47.8481         296.542 
        1.12915         249.596         46.6505         293.626 
        1.14142         244.651         45.4916         290.106 
        1.15365         241.833         44.3756         287.055 
        1.16585         237.503         43.3002         283.793 
        1.17807         235.149         42.2593          280.86 
        1.19037          231.42         41.2458         278.458 
        1.20276         228.304         40.2589         274.816 
        1.21504         223.451         39.3121         271.754 
        1.22728         220.121         38.3999         268.644 
        1.23954         218.893         37.5145         266.154 
        1.25184         213.947         36.6554         263.314 
        1.26414          209.62         35.8229         260.801 
        1.27632         208.186         35.0238         258.473 
         1.2886         206.497         34.2436         255.483 
        1.30093         201.395         33.4845         252.308 
        1.31316         197.175         32.7539         249.778 
        1.32541         196.077         32.0451         247.267 
        1.33772         192.916         31.3533         244.952 
        1.35005         190.466         30.6816         242.192 
        1.36225         186.785         30.0365         239.929 
        1.37447         183.941         29.4087         236.994 
        1.38676         182.085         28.7961         235.301 
        1.39907         179.397         28.1999         232.477 
        1.41133             176         27.6232         230.094 
        1.42358         173.906         27.0632         227.927 
        1.43591         171.701         26.5149         225.823 
        1.44818         168.406         25.9849         223.505 
        1.46037           166.9         25.4726         221.111 
        1.47263         163.675         24.9712         219.115 
        1.48494         162.051         24.4815         216.451 
        1.49724         159.431         24.0053         215.039 
        1.50952         156.477         23.5427          212.65 
        1.52178         155.127         23.0931         210.422 
        1.53409         152.093         22.6534         208.577 
        1.54637         149.904         22.2261         206.855 
        1.55858         148.124         21.8122         204.622 
        1.57081         145.542         21.4084         202.718 
        1.58313         143.611         21.0122         200.652 
        1.59544         140.959         20.6263         198.858 
        1.60767         139.716         20.2526         197.085 
        1.61994          137.27         19.8869         195.182 
        1.63225         135.192         19.5295         193.169 
        1.64452         132.963         19.1818         191.451 
        1.65676         131.195         18.8437         189.799 
          1.669          129.78         18.5135         187.987 
        1.68133         127.204         18.1892         186.272 
        1.69363         125.011         17.8736         184.678 
        1.70585         123.024         17.5675         183.001 
        1.71809         121.443         17.2679         181.024 
        1.73038         120.105         16.9744         179.548 
        1.74268          118.94         16.6875         177.794 
        1.75493         115.934         16.4086         176.337 
        1.76714         115.463         16.1368         174.824 
        1.77942         113.078         15.8698         173.139 
        1.79173         111.276         15.6082         171.581 
        1.80402         110.017         15.3529         170.053 
         1.8163          107.86         15.1036         168.666 
         1.8286         106.503         14.8594         167.033 
         1.8409         105.446         14.6207         165.481 
        1.85315         103.164         14.3881         164.129 
        1.86537         102.334         14.1611         162.761 
        1.87765         101.013         13.9381          161.37 
        1.88995         99.1337         13.7194         159.841 
        1.90221         97.9378         13.5061         158.583 
        1.91445         96.5422         13.2977         157.051 
        1.92674         95.0185          13.093         155.689 
        1.93902         93.7807         12.8926         154.288 
        1.95124         92.5239         12.6975         152.987 
         1.9635         91.0018         12.5059          151.65 
        1.97583         89.5995         12.3171         150.344 
        1.98812         88.3506         12.1328          149.24 
        2.00039         87.3385         11.9527          147.82 
        2.01264         86.2271         11.7765         146.606 
        2.02492         85.1866         11.6035          145.27 
        2.03717         83.7642         11.4343         144.123 
        2.04942         82.8273         11.2687         142.915 
        2.06171         81.2181         11.1058         141.661 
        2.07397          80.345         10.9465         140.564 
        2.08629         79.1885         10.7897         139.338 
        2.09857         78.1658         10.6363         138.217 
        2.11081         76.8479         10.4865         136.942 
        2.12309         75.8432         10.3393         135.922 
        2.13538         74.6899         10.1946         134.725 
        2.14763         73.7165         10.0533         133.642 
        2.15986         72.7797         9.91489         132.453 
        2.17214         71.8315         9.77857         131.414 
        2.18443         70.8708         9.64467           130.5 
        2.19671         69.9216         9.51345         129.369 
        2.20898          69.112         9.38483         128.211 
        2.22126         68.0532         9.25844         127.258 
        2.23354         67.2581         9.13443         126.238 
         2.2458         65.9516         9.01291         125.198 
        2.25807         65.2643         8.89349         124.184 
        2.27035         64.3178         8.77613         123.172 
        2.28263         63.5041         8.66095          122.23 
         2.2949         62.3603         8.54789         121.265 
        2.30718         61.5187         8.43682         120.288 
        2.31946         61.0036         8.32766         119.256 
        2.33169         59.9792         8.22091         118.359 
        2.34393         59.5271         8.11587         117.519 
        2.35622         58.3897         8.01233         116.531 
        2.36847         57.9085         7.91088         115.735 
        2.38076          56.882         7.81089         114.694 
        2.39305         56.2987         7.71266         113.917 
        2.40534         55.4901          7.6161         112.969 
        2.41762         54.8478         7.52122         112.058 
        2.42989         53.9966         7.42809         111.256 
        2.44216         53.4861         7.33655         110.323 
         2.4544         52.6186         7.24677          109.52 
        2.46667         51.9539         7.15828         108.683 
        2.47897         51.4095         7.07106         107.794 
        2.49124         50.8884         6.98553         107.003 
        2.50349         50.1466         6.90154         106.199 
        2.51578         49.6119         6.81868         105.487 
        2.52805         48.9379         6.73733         104.599 
        2.54029         48.4451         6.65751         103.792 
        2.55257         47.7921         6.57874          103.08 
        2.56487         47.5332          6.5011         102.322 
        2.57716         46.8785         6.42481         101.552 
        2.58942         46.1722         6.34993         100.802 
        2.60167         45.6209          6.2763         100.067 
        2.61395         45.2699         6.20374          99.317 
        2.62624         44.5075         6.13222         98.5284 
        2.63849         44.0498         6.06206         97.8322 
        2.65073         43.5231         5.99307         97.1231 
        2.66302         43.1042         5.92491         96.3906 
         2.6753         42.6227         5.85785         95.7224 
        2.68756         42.2421         5.79197         94.9931 
        2.69983         41.6946         5.72705         94.3284 
        2.71213         41.2632         5.66299         93.6537 
        2.72441         40.8523         5.60003         92.9657 
        2.73665         40.3917         5.53818         92.3282 
         2.7489         39.9454         5.47729         91.6782 
        2.76118         39.5768         5.41713         90.9996 
        2.77349         39.1195         5.35774         90.3639 
        2.78576         38.7623         5.29946         89.6943 
        2.79802         38.4303         5.24209         89.1315 
        2.81031         37.8806         5.18543         88.4778 
        2.82259         37.6058         5.12963         87.8216 
        2.83483          37.146         5.07487         87.2551 
         2.8471         36.8536         5.02079         86.6199 
         2.8594         36.4689         4.96734         86.0003 
         2.8717         36.2369         4.91469         85.4462 
        2.88396         35.9168           4.863          84.846 
        2.89619         35.6301         4.81214         84.2096 
        2.90847         35.2863         4.76182         83.5999 
        2.92072         35.0558          4.7123          83.082 
        2.93299         34.9191         4.66346         82.5337 
        2.94526         34.5303         4.61528         81.9529 
        2.95753         34.3054         4.56778         81.3754 
        2.96982         33.9616         4.52088         80.8343 
        2.98209         33.8357         4.47472         80.2984 
        2.99436         33.5326         4.42918         79.7194 
        3.00666         33.4525         4.38419         79.1856 
        3.01894          33.164         4.33991         78.6586 
        3.03119         33.0226         4.29631         78.1518 
        3.04345         32.8593          4.2533         77.6393 
        3.05573          32.641          4.2108         77.1108 
          3.068         32.5083         4.16892         76.6002 
        3.08026         32.3222         4.12765          76.086 
        3.09254         32.2399         4.08687           75.59 
        3.10483         32.2567         4.04663         75.0952 
         3.1171         32.0757         4.00699         74.5933 
        3.12933         31.9003         3.96798         74.0981 
        3.14159         31.8477         3.92942         73.5984 
