# k  (h/Mpc)    Pcb(k)  (Mpc/h)^3    Pcb_linear(k) (Mpc/h)^3    Pcb_NL(k) (Mpc/h)^3   ShotnoiseSubtracted = false
      0.0156606         9462.47         9485.89         9429.29 
      0.0273761         8171.18         8204.27         8157.65 
      0.0384619          6203.2         6181.93         6148.17 
      0.0498308         4828.76         4862.91         4831.61 
      0.0625568         4075.62         4133.09         4103.01 
      0.0751274         3582.87         3511.62         3467.03 
      0.0867833         2805.89          2827.3         2816.24 
      0.0984825         2319.34         2237.48         2255.83 
       0.111151         1959.44         1868.27         1887.71 
       0.123864         1759.75          1683.7         1700.04 
       0.135742         1589.95         1514.08         1530.88 
        0.14762         1364.01         1294.62         1336.61 
       0.160083          1136.3         1079.14         1127.91 
       0.172465         1011.08         941.885         1002.55 
       0.184281         932.424         868.308         931.612 
       0.196406         855.626         801.881             854 
       0.209011         784.689         713.471         769.659 
       0.221538         706.293         623.507         701.772 
       0.233611         653.076         557.877          645.71 
       0.245665         606.868           514.9          593.96 
       0.258103         566.854         479.328         557.924 
       0.270422          520.26         440.447         518.682 
       0.282519         477.223         399.731         481.858 
       0.294636          471.25         364.199         450.577 
       0.306978         418.356         336.946         426.721 
       0.319417         402.029         315.025         401.129 
        0.33169         377.355         294.042         377.147 
       0.343948         359.893         272.447         360.118 
       0.356249         336.048         252.195         343.399 
       0.368458          325.27         235.232         323.315 
        0.38068         310.127         221.046         308.101 
       0.392856         290.111         208.097         294.999 
       0.405069         278.287         195.435         283.736 
       0.417459         265.561         183.174         268.677 
       0.429752         256.015         172.169         258.244 
       0.441978         247.231         162.509         249.853 
       0.454294         230.928         153.737         237.887 
        0.46658         230.613         145.507         230.595 
       0.478753         218.779         137.743         222.219 
       0.490964         211.838          130.45         214.057 
       0.503334         200.423         123.718         207.425 
       0.515665         196.861         117.579         202.327 
       0.527909          190.98         111.913         194.497 
       0.540159         184.983         106.551         188.858 
        0.55248         180.483         101.464         182.769 
       0.564743         175.254         96.7539         178.389 
        0.57686         169.438         92.4247         172.618 
       0.589077           162.3          88.338         168.718 
       0.601441         159.214         84.4521         164.424 
        0.61382         157.296         80.7882         159.863 
       0.626067         152.018         77.3692         155.883 
       0.638306         145.812         74.1497         152.444 
       0.650632         141.117         71.0993         147.295 
       0.662899         141.227         68.2408         144.347 
       0.675076         136.195         65.5619         140.962 
       0.687267         132.807         63.0234         137.793 
       0.699615         129.455         60.5876         134.962 
       0.711937         125.939          58.285         131.741 
       0.724148          124.33         56.1216         129.871 
       0.736433         120.434         54.0572         126.624 
       0.748747         117.832         52.0937         123.948 
       0.761037         115.729         50.2324         121.152 
       0.773197         113.203         48.4813         119.801 
       0.785376         111.238         46.8117         116.874 
       0.797761          109.63          45.195         115.275 
       0.810096         106.092         43.6609         112.802 
       0.822371         103.643         42.2056         110.813 
       0.834626         101.667         40.8193         108.904 
       0.846916         100.596         39.4919          107.14 
       0.859215         98.7503         38.2231         105.146 
       0.871383         97.2422          37.023         103.382 
        0.88363         94.8036         35.8675         102.048 
       0.895928           93.03         34.7573           100.5 
       0.908253         90.6276         33.6921         98.6663 
       0.920535         90.2007         32.6754         97.3279 
       0.932774         88.0607         31.7044         95.5961 
        0.94508         87.1065         30.7682         94.1442 
       0.957324         85.3158         29.8745         92.9129 
        0.96953         85.3675         29.0192         91.3188 
       0.981769         82.5282         28.1954         90.3852 
       0.994071         81.7038         27.3998          89.054 
         1.0064         79.8821         26.6337         87.7569 
        1.01868         79.0981         25.8993         86.6564 
        1.03092         77.5842         25.1959         85.4812 
         1.0432         76.2776         24.5163         84.2695 
        1.05553         74.2931         23.8592         83.5225 
        1.06777         74.1256          23.231         82.4179 
           1.08         72.5977         22.6262         81.3069 
        1.09227         71.4979         22.0411         80.1492 
         1.1046         70.3502         21.4745         79.1895 
         1.1169         69.5478          20.929         78.0539 
        1.12915         68.6348         20.4052         77.2686 
        1.14142         67.3068         19.8983          76.322 
        1.15365         66.0868         19.4102         75.4486 
        1.16585         65.2394         18.9398         74.4794 
        1.17807         64.2413         18.4844          73.681 
        1.19037         64.1482         18.0412         72.9498 
        1.20276         62.8317         17.6095         72.1029 
        1.21504         62.3519         17.1953         71.2322 
        1.22728         61.0133         16.7963          70.514 
        1.23954         60.3804          16.409         69.6141 
        1.25184         59.3766         16.0333         69.0134 
        1.26414          58.423         15.6691         68.2099 
        1.27632         57.9197         15.3196         67.6018 
         1.2886         57.2555         14.9783         66.7604 
        1.30093         56.4737         14.6463         65.9358 
        1.31316         55.6384         14.3267         65.5002 
        1.32541         55.2966         14.0167         64.7625 
        1.33772         54.3258         13.7141          64.087 
        1.35005         53.7924         13.4203         63.4848 
        1.36225         52.8676         13.1381         62.8344 
        1.37447         51.6462         12.8635         62.1794 
        1.38676         51.8116         12.5956         61.5589 
        1.39907         50.9751         12.3348         61.0787 
        1.41133         49.9737         12.0825         60.5701 
        1.42358         49.3984         11.8376         59.8337 
        1.43591         49.0208         11.5978         59.3574 
        1.44818         48.3682          11.366         58.6609 
        1.46037         47.7915         11.1418          58.241 
        1.47263          47.311         10.9225         57.7686 
        1.48494         46.4567         10.7083         57.1534 
        1.49724         46.0459            10.5         56.6253 
        1.50952         45.6778         10.2977            56.1 
        1.52178         44.9894          10.101         55.6602 
        1.53409         44.5978         9.90872         55.1684 
        1.54637          43.779         9.72181         54.6362 
        1.55858         42.9977          9.5408           54.11 
        1.57081         42.9224         9.36414         53.7499 
        1.58313         42.4062         9.19086         53.3008 
        1.59544         41.7116         9.02208         52.7787 
        1.60767         41.1898         8.85862         52.3245 
        1.61994         40.6241         8.69864         51.9037 
        1.63225         40.3539          8.5423         51.4238 
        1.64452         39.9067         8.39023         51.0417 
        1.65676         39.3457         8.24235         50.5696 
          1.669         39.0305         8.09793         50.2274 
        1.68133         38.6808         7.95605         49.7387 
        1.69363          38.018           7.818         49.3605 
        1.70585         37.7871          7.6841         49.0255 
        1.71809         37.1039         7.55308          48.527 
        1.73038         36.9033          7.4247          48.223 
        1.74268         36.3009         7.29923         47.7449 
        1.75493         35.9587         7.17724         47.3949 
        1.76714         35.5514         7.05835         47.0366 
        1.77942         35.2633         6.94155         46.6688 
        1.79173         34.7925          6.8271         46.2661 
        1.80402         34.3978         6.71547         45.9973 
         1.8163         34.0886          6.6064         45.5055 
         1.8286         33.5866         6.49957          45.242 
         1.8409         33.2516         6.39519         44.8262 
        1.85315         32.9036         6.29345         44.5658 
        1.86537         32.4818         6.19414         44.2252 
        1.87765         32.2911          6.0966         43.8544 
        1.88995         31.7887         6.00093         43.4533 
        1.90221         31.5377         5.90764         43.1389 
        1.91445         31.0339          5.8165         42.8621 
        1.92674         30.7771         5.72696         42.5003 
        1.93902         30.4434         5.63931         42.2013 
        1.95124         29.9509         5.55395         41.9327 
         1.9635         29.7089         5.47015         41.5866 
        1.97583         29.4068         5.38755         41.3241 
        1.98812         29.0864         5.30697         40.9933 
        2.00039         28.7336          5.2282         40.6836 
        2.01264         28.3923          5.1511         40.4247 
        2.02492         28.1609         5.07545         40.1105 
        2.03717         27.7874         5.00144         39.8063 
        2.04942         27.5247         4.92901         39.5024 
        2.06171         27.2538         4.85776         39.2361 
        2.07397         26.9844         4.78808         38.9396 
        2.08629         26.6738         4.71948         38.6578 
        2.09857         26.3805         4.65238         38.3988 
        2.11081         26.0758         4.58687         38.1129 
        2.12309          25.874         4.52246         37.8318 
        2.13538         25.4291          4.4592         37.6107 
        2.14763         25.3183         4.39736         37.3203 
        2.15986         25.0065         4.33683         37.0365 
        2.17214         24.7457          4.2772         36.8135 
        2.18443         24.4778         4.21864         36.5071 
        2.19671         24.1676         4.16124          36.268 
        2.20898         23.9394         4.10498         35.9972 
        2.22126         23.8282          4.0497         35.7477 
        2.23354         23.5303         3.99545         35.5443 
         2.2458         23.3125          3.9423         35.2847 
        2.25807         22.9691         3.89006         35.0165 
        2.27035          22.735         3.83873         34.8016 
        2.28263         22.5664         3.78835          34.571 
         2.2949         22.3326         3.73889         34.3327 
        2.30718         22.1339         3.69031         34.0741 
        2.31946         21.9593         3.64257         33.8482 
        2.33169         21.6847         3.59588         33.6215 
        2.34393         21.4547         3.54993         33.3923 
        2.35622         21.2619         3.50464         33.1951 
        2.36847         21.0199         3.46027         32.9359 
        2.38076          20.869         3.41653         32.7527 
        2.39305         20.6022         3.37356         32.5416 
        2.40534         20.4373         3.33133          32.276 
        2.41762         20.2126         3.28982         32.1107 
        2.42989         20.1132         3.24909         31.8516 
        2.44216         19.8016         3.20905         31.6711 
         2.4544         19.7402         3.16978          31.454 
        2.46667         19.5089         3.13107         31.2513 
        2.47897         19.2705         3.09292         31.0358 
        2.49124         19.1812         3.05551         30.8369 
        2.50349         18.9157         3.01877          30.635 
        2.51578         18.7825         2.98253         30.4487 
        2.52805         18.5882         2.94695         30.2411 
        2.54029         18.4385         2.91203         30.0429 
        2.55257         18.3203         2.87758         29.8406 
        2.56487         18.0776         2.84362         29.6606 
        2.57716         17.9922         2.81025         29.4475 
        2.58942         17.8434         2.77749          29.286 
        2.60167         17.6208         2.74529         29.0913 
        2.61395         17.4941         2.71355         28.9014 
        2.62624         17.4153         2.68227         28.7118 
        2.63849           17.21         2.65158         28.5482 
        2.65073         17.0294          2.6214         28.3522 
        2.66302         16.8995         2.59159         28.1863 
         2.6753         16.8278         2.56226         28.0048 
        2.68756         16.6916         2.53344          27.846 
        2.69983         16.5207         2.50504         27.6397 
        2.71213         16.3596         2.47703          27.466 
        2.72441         16.2423         2.44948          27.291 
        2.73665         16.1368         2.42243         27.1198 
         2.7489         16.0321          2.3958         26.9567 
        2.76118         15.9154         2.36948         26.7837 
        2.77349            15.8          2.3435         26.6256 
        2.78576         15.6778         2.31802         26.4732 
        2.79802         15.5796         2.29292         26.2953 
        2.81031         15.4797         2.26814         26.1318 
        2.82259         15.3431         2.24373          25.986 
        2.83483         15.3073         2.21978         25.8194 
         2.8471          15.216         2.19612         25.6433 
         2.8594         15.0661         2.17274          25.483 
         2.8717         15.0161         2.14971         25.3332 
        2.88396         14.9153          2.1271         25.1745 
        2.89619         14.8695         2.10486         25.0232 
        2.90847         14.7489         2.08285         24.8834 
        2.92072         14.6841         2.06119         24.7124 
        2.93299         14.5981         2.03983         24.5832 
        2.94526         14.5445         2.01875         24.4408 
        2.95753         14.5166         1.99797         24.2798 
        2.96982         14.4106         1.97746         24.1364 
        2.98209         14.3351         1.95727         23.9971 
        2.99436         14.3109         1.93735         23.8468 
        3.00666         14.2723         1.91767         23.6979 
        3.01894         14.2055          1.8983         23.5665 
        3.03119         14.1785         1.87923          23.426 
        3.04345         14.1076         1.86042         23.2812 
        3.05573         14.1137         1.84183         23.1453 
          3.068         14.0302         1.82351         23.0082 
        3.08026         14.0239         1.80546         22.8623 
        3.09254         13.9366         1.78762         22.7312 
        3.10483         13.9704         1.77002         22.6047 
         3.1171         14.0183         1.75268         22.4734 
        3.12933         13.9636         1.73562         22.3415 
        3.14159         13.8961         1.71875         22.2003 
