# k  (h/Mpc)    Pcb(k)  (Mpc/h)^3    Pcb_linear(k) (Mpc/h)^3    Pcb_NL(k) (Mpc/h)^3   ShotnoiseSubtracted = false
      0.0156606         16923.2           16997         16876.3 
      0.0273761         14542.9         14696.6         14567.3 
      0.0384619         11014.9         11072.5         10963.1 
      0.0498308         8528.47         8709.33         8601.07 
      0.0625568         7202.05         7401.88         7303.76 
      0.0751274         6389.09         6288.71         6149.14 
      0.0867833         4965.06         5063.11         5021.92 
      0.0984825         4163.84          4006.8         4049.99 
       0.111151         3545.83         3345.61          3395.9 
       0.123864         3179.52         3015.07         3056.32 
       0.135742         2888.64         2711.29         2753.14 
        0.14762         2503.04         2318.29         2428.94 
       0.160083          2107.9         1932.43         2066.12 
       0.172465         1880.06         1686.64          1855.9 
       0.184281         1714.98         1554.88         1726.84 
       0.196406         1599.33         1435.93         1586.41 
       0.209011         1486.18         1277.61            1435 
       0.221538         1340.42         1116.51          1330.5 
       0.233611          1270.2         998.985          1239.7 
       0.245665         1158.61         922.025         1142.41 
       0.258103         1127.97         858.326         1076.78 
       0.270422         1011.13         788.702         1008.08 
       0.282519         945.574         715.791         947.698 
       0.294636         934.817         652.165         894.281 
       0.306978         844.456         603.362          853.99 
       0.319417          820.69         564.109          804.24 
        0.33169         773.126         526.535         759.202 
       0.343948         738.205         487.865         733.499 
       0.356249         695.563           451.6         704.216 
       0.368458         673.199         421.225         668.915 
        0.38068         654.002         395.822         641.356 
       0.392856         617.907         372.634         616.922 
       0.405069          590.06          349.96          597.86 
       0.417459         566.481         328.006         571.819 
       0.429752         555.077         308.298         551.375 
       0.441978         536.382         291.001         536.073 
       0.454294         509.105         275.294         513.155 
        0.46658         497.581         260.556         501.256 
       0.478753         484.107         246.653         484.823 
       0.490964         465.956         233.593         469.181 
       0.503334         441.908         221.538         457.265 
       0.515665          440.82         210.546         447.347 
       0.527909         424.153         200.399         435.502 
       0.540159         413.404         190.799         423.422 
        0.55248         405.222         181.689         411.989 
       0.564743         400.326         173.255         404.485 
        0.57686         384.807         165.502         392.963 
       0.589077          372.85         158.185         384.217 
       0.601441         368.257         151.226         375.755 
        0.61382         360.592         144.665         368.748 
       0.626067         355.058         138.543         360.893 
       0.638306         340.239         132.778         353.989 
       0.650632         335.232         127.316         344.061 
       0.662899         332.321         122.197         339.875 
       0.675076         319.519           117.4         333.708 
       0.687267         311.474         112.854         325.883 
       0.699615         307.217         108.493         320.422 
       0.711937         302.478         104.369          314.67 
       0.724148          292.76         100.495         309.964 
       0.736433         286.261         96.7988         303.788 
       0.748747         281.945         93.2828         298.086 
       0.761037         276.643         89.9498         293.566 
       0.773197         273.144         86.8142         289.507 
       0.785376         269.002         83.8245         284.494 
       0.797761         262.278         80.9294         280.166 
       0.810096         259.434         78.1824         276.298 
       0.822371          249.78         75.5764          271.72 
       0.834626         249.005         73.0939         267.794 
       0.846916         243.562          70.717         263.853 
       0.859215         243.501         68.4451         260.057 
       0.871383         236.856         66.2961          256.14 
        0.88363         235.219          64.227         253.494 
       0.895928         229.825         62.2388         249.486 
       0.908253         223.616         60.3315         245.423 
       0.920535         222.486         58.5109         242.142 
       0.932774         215.659         56.7722         238.801 
        0.94508         213.446         55.0957          236.31 
       0.957324         212.794         53.4954         232.828 
        0.96953         209.698         51.9638         229.566 
       0.981769         203.241         50.4887          227.39 
       0.994071         202.298         49.0641         224.442 
         1.0064         197.763         47.6922         221.061 
        1.01868          195.05         46.3771         218.483 
        1.03092         191.056         45.1176         216.238 
         1.0432         187.479         43.9006          213.57 
        1.05553         184.818         42.7239         210.903 
        1.06777         184.486         41.5991         208.766 
           1.08         179.822         40.5161         206.117 
        1.09227         177.607         39.4683         203.912 
         1.1046         174.896         38.4539         201.734 
         1.1169         171.724          37.477         198.969 
        1.12915         169.201          36.539         197.139 
        1.14142         166.472         35.6313         194.569 
        1.15365         164.158         34.7572         192.526 
        1.16585         161.812         33.9149         190.028 
        1.17807         159.608         33.0996         188.599 
        1.19037         158.249         32.3058         186.699 
        1.20276         155.625         31.5327         184.378 
        1.21504          152.77         30.7912         182.399 
        1.22728         149.789         30.0767         180.088 
        1.23954         149.241         29.3832         178.768 
        1.25184         146.364         28.7103         176.718 
        1.26414          144.01         28.0583         174.867 
        1.27632          143.46         27.4324          173.81 
         1.2886         141.186         26.8213         171.422 
        1.30093         137.151         26.2267         169.568 
        1.31316          136.05         25.6545         167.672 
        1.32541         134.321         25.0993         166.411 
        1.33772         133.043         24.5575         164.612 
        1.35005         131.027         24.0314         162.766 
        1.36225         129.294         23.5261         161.309 
        1.37447         127.174         23.0344         159.451 
        1.38676         125.722         22.5545         157.944 
        1.39907         123.307         22.0875           156.4 
        1.41133         121.523         21.6358         155.074 
        1.42358         119.776         21.1972          153.61 
        1.43591         118.565         20.7678         151.887 
        1.44818         117.363         20.3527          150.61 
        1.46037         115.159         19.9514         149.051 
        1.47263         113.994         19.5587         147.924 
        1.48494         112.258         19.1751          146.22 
        1.49724           110.7         18.8021         144.845 
        1.50952         108.656         18.4398         143.532 
        1.52178         108.114         18.0876         142.091 
        1.53409         106.059         17.7433         140.903 
        1.54637         104.619         17.4086         139.676 
        1.55858         102.832         17.0844         138.252 
        1.57081         101.457         16.7681         137.075 
        1.58313         100.262         16.4578         135.744 
        1.59544         99.0675         16.1556         134.567 
        1.60767         97.7359         15.8629         133.262 
        1.61994         96.0835         15.5764         132.346 
        1.63225         94.8414         15.2964         130.761 
        1.64452         93.1655         15.0241         129.634 
        1.65676         91.8877         14.7593         128.583 
          1.669         91.2788         14.5007         127.539 
        1.68133         89.5444         14.2467         126.333 
        1.69363         88.6601         13.9995         125.263 
        1.70585         87.0762         13.7597         124.119 
        1.71809         85.9088         13.5251          122.98 
        1.73038         85.1938         13.2952         121.914 
        1.74268         83.8988         13.0705         120.828 
        1.75493         82.7722         12.8521         119.748 
        1.76714          81.474         12.6392         118.786 
        1.77942         80.6321           12.43         117.645 
        1.79173         79.2971         12.2251         116.724 
        1.80402         78.6688         12.0252         115.761 
         1.8163          77.222         11.8299         114.607 
         1.8286         76.1351         11.6386         113.692 
         1.8409          75.461         11.4517         112.708 
        1.85315         74.2386         11.2695         111.821 
        1.86537         73.3826         11.0917         110.864 
        1.87765          72.711          10.917         109.843 
        1.88995         71.4826         10.7457         109.003 
        1.90221          70.532         10.5786         108.059 
        1.91445          69.335         10.4154         107.127 
        1.92674         68.4131         10.2551         106.266 
        1.93902         67.5511         10.0981         105.309 
        1.95124          66.973          9.9453         104.532 
         1.9635         65.8939         9.79524         103.497 
        1.97583         65.0082         9.64733         102.794 
        1.98812         64.1752         9.50304         101.896 
        2.00039         63.1662         9.36198          101.05 
        2.01264         62.6602         9.22392         100.198 
        2.02492         61.7078         9.08845         99.3878 
        2.03717         60.7142         8.95593         98.5107 
        2.04942         60.3194         8.82623         97.8218 
        2.06171         59.0978         8.69865         96.9695 
        2.07397         58.4883         8.57387         96.2321 
        2.08629         57.8775         8.45103         95.3925 
        2.09857         56.9828         8.33089         94.6449 
        2.11081          55.996         8.21357         93.7917 
        2.12309          55.624         8.09824         93.1538 
        2.13538         54.7421         7.98495         92.3665 
        2.14763         54.0537         7.87422         91.6324 
        2.15986         53.0269         7.76584         90.8818 
        2.17214         52.6492         7.65906         90.1474 
        2.18443           52.01         7.55419         89.5269 
        2.19671         51.1014         7.45141         88.7559 
        2.20898         50.9062         7.35066          88.052 
        2.22126         50.0551         7.25167         87.3232 
        2.23354         49.3742         7.15454         86.6808 
         2.2458           48.78         7.05936         86.0349 
        2.25807         48.1777         6.96582          85.299 
        2.27035         47.6495          6.8739         84.6306 
        2.28263         46.8473         6.78368         83.9579 
         2.2949          46.474         6.69513          83.316 
        2.30718         45.6367         6.60813         82.7048 
        2.31946         45.1567         6.52264         82.0771 
        2.33169         44.5335         6.43903         81.4377 
        2.34393         43.8453         6.35675         80.8204 
        2.35622         43.5616         6.27565         80.1889 
        2.36847         42.9827          6.1962          79.632 
        2.38076         42.3817         6.11788         78.9576 
        2.39305         41.8671         6.04093          78.401 
        2.40534         41.4176         5.96531          77.756 
        2.41762         41.0053         5.89099         77.1337 
        2.42989         40.4231         5.81805         76.6273 
        2.44216         40.0321         5.74635         76.0219 
         2.4544         39.5252         5.67603          75.442 
        2.46667         39.1139         5.60672          74.848 
        2.47897         38.6393          5.5384         74.3086 
        2.49124          38.108         5.47141         73.7682 
        2.50349         37.6341         5.40563         73.1951 
        2.51578           37.15         5.34073         72.7161 
        2.52805         36.9064         5.27701          72.146 
        2.54029         36.4094         5.21449         71.5799 
        2.55257         35.8557         5.15279         71.0835 
        2.56487         35.5935         5.09198         70.5926 
        2.57716         35.1244         5.03223         70.0937 
        2.58942         34.6776         4.97358         69.5559 
        2.60167         34.2889         4.91591         69.0422 
        2.61395         33.9085         4.85908         68.5479 
        2.62624         33.6711         4.80306         68.0337 
        2.63849         33.3349         4.74811         67.5638 
        2.65073         32.9636         4.69407         67.0488 
        2.66302         32.4949         4.64068         66.5683 
         2.6753         32.1348         4.58816         66.1019 
        2.68756         31.6915         4.53656         65.5968 
        2.69983         31.5214         4.48571         65.1719 
        2.71213         31.1972         4.43554         64.7272 
        2.72441         30.8835         4.38622         64.2468 
        2.73665         30.5365         4.33777         63.7819 
         2.7489         30.4108         4.29008         63.3372 
        2.76118         29.9316         4.24297         62.9031 
        2.77349         29.7985         4.19644         62.4605 
        2.78576         29.5627          4.1508              62 
        2.79802         29.1203         4.10586         61.6047 
        2.81031         28.8572         4.06149         61.1695 
        2.82259         28.7209         4.01778           60.72 
        2.83483          28.367         3.97489         60.3123 
         2.8471         28.0588         3.93253         59.9044 
         2.8594         27.9535         3.89067          59.492 
         2.8717         27.6838         3.84943         59.0817 
        2.88396         27.4297         3.80894         58.6547 
        2.89619         27.1944         3.76911         58.2422 
        2.90847         27.0259         3.72969         57.8633 
        2.92072         26.7887         3.69091         57.4644 
        2.93299         26.6503         3.65266         57.0691 
        2.94526         26.4074         3.61491         56.7007 
        2.95753         26.2631         3.57771         56.3219 
        2.96982          26.173         3.54098         55.9363 
        2.98209         25.9051         3.50483         55.5662 
        2.99436         25.7409         3.46915         55.1759 
        3.00666         25.6554         3.43391         54.8164 
        3.01894         25.4393         3.39923         54.4308 
        3.03119         25.3513         3.36508         54.0771 
        3.04345         25.1809          3.3314         53.7419 
        3.05573         25.1345         3.29811         53.3865 
          3.068         25.0223         3.26531         53.0285 
        3.08026         24.8424         3.23298         52.6718 
        3.09254         24.7639         3.20104         52.3265 
        3.10483         24.7777         3.16952         51.9914 
         3.1171         24.6996         3.13847          51.653 
        3.12933         24.6199         3.10792         51.3092 
        3.14159         24.4973         3.07771         50.9704 
