# k  (h/Mpc)    P(k)  (Mpc/h)^3    P_linear(k)  (Mpc/h)^3     P_NL(k)  ShotnoiseSubtracted = false
      0.0156606         21450.1         21568.4         21398.7 
      0.0273761         18356.8         18616.4         18414.8 
      0.0384619         13868.7         14012.4           13834 
      0.0498308         10705.3         11015.3           10836 
      0.0625568         9040.98         9357.74          9198.2 
      0.0751274         8049.54         7948.27         7724.17 
      0.0867833         6234.67         6398.12         6328.84 
      0.0984825            5268         5062.64         5124.54 
       0.111151         4505.99         4226.78         4303.77 
       0.123864          4036.6         3808.88         3871.18 
       0.135742         3680.26         3424.94         3487.41 
        0.14762         3203.81         2928.36         3094.02 
       0.160083         2721.88         2440.86         2645.14 
       0.172465         2427.66         2130.34         2390.43 
       0.184281         2200.52         1963.87         2224.73 
       0.196406         2075.81         1813.59         2049.21 
       0.209011         1942.24          1613.6         1857.62 
       0.221538          1748.9         1410.11         1734.74 
       0.233611         1676.65         1261.67         1625.96 
       0.245665         1519.85         1164.46         1501.73 
       0.258103         1504.67            1084         1418.08 
       0.270422         1342.35         996.064         1332.43 
       0.282519         1267.95         903.976          1261.7 
       0.294636         1245.36         823.617         1195.33 
       0.306978         1137.76          761.98         1145.67 
       0.319417         1115.38         712.403         1080.27 
        0.33169         1048.59         664.949         1023.22 
       0.343948         1006.56         616.111         991.853 
       0.356249         954.228          570.31         955.241 
       0.368458         916.894         531.948         912.983 
        0.38068         902.118          499.87         878.381 
       0.392856         856.647         470.584         847.881 
       0.405069         812.943         441.948         820.604 
       0.417459         782.021         414.222         791.715 
       0.429752         777.968         389.334         764.153 
       0.441978          750.73         367.489         744.885 
       0.454294         717.726         347.653         714.666 
        0.46658         697.584          329.04         700.088 
       0.478753         684.304         311.481         678.973 
       0.490964         657.885         294.988          658.33 
       0.503334         629.681         279.766         643.768 
       0.515665         627.546         265.884         629.366 
       0.527909         601.707          253.07         616.126 
       0.540159         587.015         240.946         600.576 
        0.55248         575.397         229.442         585.059 
       0.564743         570.813         218.791         575.177 
        0.57686          551.59         209.001          560.05 
       0.589077         541.204         199.759          547.75 
       0.601441         529.362         190.972          537.11 
        0.61382         514.864         182.686         527.775 
       0.626067         509.356         174.955         517.932 
       0.638306         490.715         167.674         507.502 
       0.650632         486.167         160.776         495.385 
       0.662899         482.163         154.312         489.456 
       0.675076         466.246         148.255         482.696 
       0.687267         453.184         142.514         471.276 
       0.699615         451.262         137.006         463.865 
       0.711937         442.472         131.799           455.2 
       0.724148         428.003         126.907         449.085 
       0.736433         418.005         122.239         441.105 
       0.748747         412.781         117.799         433.325 
       0.761037           405.4          113.59          428.05 
       0.773197         399.615          109.63         421.106 
       0.785376          394.28         105.855         415.024 
       0.797761         382.673         102.199         408.773 
       0.810096         379.012         98.7296         403.638 
       0.822371         368.445         95.4386          397.08 
       0.834626         365.212         92.3037         392.399 
       0.846916         359.145         89.3022         386.273 
       0.859215         355.729         86.4331          380.67 
       0.871383         347.523         83.7193         375.646 
        0.88363         344.116         81.1064         371.843 
       0.895928           338.8         78.5957          366.04 
       0.908253         330.374         76.1871         360.082 
       0.920535         324.733         73.8881         356.093 
       0.932774         319.395         71.6923         350.761 
        0.94508         314.664         69.5752         347.214 
       0.957324         312.026         67.5543         342.575 
        0.96953         307.928         65.6203         338.421 
       0.981769         300.313         63.7574         334.698 
       0.994071         299.237         61.9584         330.609 
         1.0064         293.433          60.226         325.803 
        1.01868         290.195         58.5652         321.647 
        1.03092         281.551         56.9748         318.823 
         1.0432         278.821         55.4379         314.968 
        1.05553         275.726          53.952         310.655 
        1.06777         272.565         52.5316         307.207 
           1.08         266.307          51.164         303.793 
        1.09227         265.281         49.8408          300.14 
         1.1046         260.324         48.5597          297.27 
         1.1169         254.531         47.3261         293.307 
        1.12915         251.207         46.1416         290.423 
        1.14142         246.282         44.9953         286.941 
        1.15365         243.544         43.8915         283.923 
        1.16585          239.24         42.8278         280.697 
        1.17807         236.922         41.7983         277.796 
        1.19037         233.254         40.7959          275.42 
        1.20276         230.169         39.8197         271.818 
        1.21504         225.323         38.8832         268.789 
        1.22728         222.026         37.9809         265.713 
        1.23954         220.847         37.1052          263.25 
        1.25184         215.901         36.2555         260.441 
        1.26414         211.595         35.4321         257.955 
        1.27632         210.211         34.6417         255.653 
         1.2886         208.561           33.87         252.696 
        1.30093         203.452         33.1191         249.555 
        1.31316         199.246         32.3965         247.052 
        1.32541          198.19         31.6954         244.569 
        1.33772         195.027         31.0112         242.279 
        1.35005         192.617         30.3469         239.549 
        1.36225         188.957         29.7088         237.311 
        1.37447         186.125         29.0878         234.408 
        1.38676         184.292         28.4819         232.733 
        1.39907         181.601         27.8922          229.94 
        1.41133         178.223         27.3218         227.583 
        1.42358         176.131         26.7679          225.44 
        1.43591         173.958         26.2256         223.359 
        1.44818         170.652         25.7014         221.066 
        1.46037         169.175         25.1946         218.699 
        1.47263         165.942         24.6987         216.725 
        1.48494         164.344         24.2143         214.089 
        1.49724         161.728         23.7433         212.693 
        1.50952         158.748         23.2858          210.33 
        1.52178         157.432         22.8411         208.126 
        1.53409         154.386         22.4062         206.301 
        1.54637         152.207         21.9836         204.598 
        1.55858         150.425         21.5742         202.389 
        1.57081         147.864         21.1748         200.506 
        1.58313         145.926         20.7829         198.463 
        1.59544         143.259         20.4013         196.688 
        1.60767          142.03         20.0316         194.935 
        1.61994         139.586         19.6699         193.053 
        1.63225         137.505         19.3164         191.062 
        1.64452         135.268         18.9725         189.362 
        1.65676         133.487         18.6381         187.728 
          1.669         132.079         18.3115         185.936 
        1.68133         129.496         17.9907         184.239 
        1.69363         127.283         17.6785         182.662 
        1.70585         125.292         17.3758         181.004 
        1.71809         123.723         17.0795         179.049 
        1.73038         122.395         16.7892         177.588 
        1.74268         121.235         16.5054         175.854 
        1.75493         118.173         16.2296         174.413 
        1.76714         117.731         15.9608         172.916 
        1.77942         115.336         15.6966          171.25 
        1.79173         113.519         15.4378         169.708 
        1.80402          112.26         15.1854         168.197 
         1.8163         110.072         14.9388         166.826 
         1.8286         108.714         14.6972          165.21 
         1.8409         107.657         14.4612         163.675 
        1.85315         105.363         14.2311         162.338 
        1.86537         104.522         14.0065         160.985 
        1.87765         103.199          13.786         159.609 
        1.88995         101.292         13.5696         158.097 
        1.90221         100.098         13.3587         156.853 
        1.91445         98.6843         13.1526         155.337 
        1.92674         97.1559         12.9501          153.99 
        1.93902         95.9044         12.7519         152.604 
        1.95124         94.6476         12.5589         151.317 
         1.9635         93.0956         12.3694         149.995 
        1.97583         91.6834         12.1826         148.703 
        1.98812         90.4268         12.0004         147.611 
        2.00039         89.4059         11.8223         146.207 
        2.01264         88.2855          11.648         145.006 
        2.02492         87.2394         11.4769         143.685 
        2.03717         85.7979         11.3095          142.55 
        2.04942         84.8618         11.1458         141.356 
        2.06171          83.221         10.9846         140.115 
        2.07397         82.3411         10.8271          139.03 
        2.08629         81.1743          10.672         137.818 
        2.09857          80.134         10.5202         136.709 
        2.11081         78.8002         10.3721         135.448 
        2.12309         77.7829         10.2264         134.438 
        2.13538         76.6232         10.0834         133.254 
        2.14763          75.629         9.94356         132.183 
        2.15986         74.6787         9.80669         131.008 
        2.17214         73.7189         9.67185          129.98 
        2.18443          72.749         9.53942         129.076 
        2.19671         71.7852         9.40963         127.957 
        2.20898         70.9612         9.28241         126.812 
        2.22126         69.8859          9.1574          125.87 
        2.23354         69.0863         9.03475         124.861 
         2.2458         67.7481         8.91455         123.832 
        2.25807         67.0588         8.79643         122.829 
        2.27035         66.0887         8.68035         121.827 
        2.28263         65.2663         8.56643         120.896 
         2.2949         64.0987          8.4546         119.942 
        2.30718         63.2445         8.34474         118.975 
        2.31946         62.7289         8.23678         117.955 
        2.33169         61.6797          8.1312         117.067 
        2.34393         61.2297          8.0273         116.236 
        2.35622         60.0633         7.92489          115.26 
        2.36847          59.579         7.82455         114.472 
        2.38076         58.5259         7.72565         113.443 
        2.39305         57.9414         7.62849         112.673 
        2.40534         57.1148         7.53299         111.736 
        2.41762          56.449         7.43914         110.835 
        2.42989         55.5892         7.34703         110.041 
        2.44216         55.0601         7.25649         109.119 
         2.4544         54.1835         7.16768         108.325 
        2.46667         53.5114         7.08016         107.497 
        2.47897         52.9498         6.99389         106.618 
        2.49124         52.4182         6.90929         105.835 
        2.50349         51.6703         6.82622          105.04 
        2.51578         51.1152         6.74427         104.336 
        2.52805         50.4366          6.6638         103.457 
        2.54029         49.9328         6.58485         102.659 
        2.55257          49.258         6.50694         101.955 
        2.56487         48.9988         6.43015         101.205 
        2.57716          48.328          6.3547         100.444 
        2.58942         47.6033         6.28063         99.7017 
        2.60167         47.0406         6.20781         98.9748 
        2.61395         46.6882         6.13604         98.2331 
        2.62624          45.903          6.0653         97.4531 
        2.63849         45.4347         5.99591         96.7645 
        2.65073         44.8994         5.92767         96.0632 
        2.66302         44.4656         5.86025         95.3387 
         2.6753         43.9796         5.79392         94.6778 
        2.68756         43.5869         5.72876         93.9564 
        2.69983         43.0244         5.66455         93.2989 
        2.71213         42.5834         5.60119         92.6316 
        2.72441         42.1629         5.53891         91.9511 
        2.73665         41.6893         5.47773         91.3205 
         2.7489         41.2295         5.41751         90.6776 
        2.76118         40.8507         5.35801         90.0065 
        2.77349          40.387         5.29926         89.3777 
        2.78576         40.0183         5.24163         88.7154 
        2.79802         39.6786         5.18488         88.1588 
        2.81031         39.1117         5.12884         87.5122 
        2.82259         38.8346         5.07365         86.8631 
        2.83483         38.3594         5.01948         86.3029 
         2.8471          38.067           4.966         85.6746 
         2.8594         37.6666         4.91313         85.0617 
         2.8717         37.4302         4.86105         84.5136 
        2.88396         37.0966         4.80992           83.92 
        2.89619          36.807         4.75962         83.2906 
        2.90847         36.4525         4.70985         82.6875 
        2.92072         36.2143         4.66087         82.1753 
        2.93299         36.0772         4.61257         81.6329 
        2.94526         35.6743         4.56491         81.0585 
        2.95753         35.4458         4.51793         80.4873 
        2.96982         35.0951         4.47154         79.9521 
        2.98209         34.9586         4.42589         79.4221 
        2.99436         34.6488         4.38084         78.8494 
        3.00666           34.57         4.33634         78.3214 
        3.01894          34.269         4.29255         77.8002 
        3.03119         34.1318         4.24942         77.2989 
        3.04345         33.9599         4.20688          76.792 
        3.05573          33.734         4.16484         76.2693 
          3.068         33.5972         4.12342         75.7642 
        3.08026          33.407         4.08261         75.2557 
        3.09254         33.3219         4.04227          74.765 
        3.10483         33.3379         4.00247         74.2756 
         3.1171         33.1503         3.96326         73.7792 
        3.12933         32.9765         3.92468         73.2894 
        3.14159         32.9215         3.88653         72.7952 
