# k  (h/Mpc)    Pcb(k)  (Mpc/h)^3    Pcb_linear(k) (Mpc/h)^3    Pcb_NL(k) (Mpc/h)^3   ShotnoiseSubtracted = false
      0.0156606         7503.35         7518.05         7475.43 
      0.0273761         6489.13         6502.97         6471.52 
      0.0384619         4928.53         4900.22         4879.41 
      0.0498308         3842.98         3854.78         3836.28 
      0.0625568         3243.08         3276.32         3257.83 
      0.0751274          2841.3          2783.7          2755.6 
      0.0867833          2231.4         2241.25         2234.92 
      0.0984825         1835.79         1773.69         1786.59 
       0.111151         1547.31         1481.02         1494.37 
       0.123864         1389.95         1334.71         1345.93 
       0.135742         1253.96         1200.25         1211.79 
        0.14762         1072.45         1026.28         1054.42 
       0.160083         891.712         855.465         887.792 
       0.172465         792.155          746.66         786.575 
       0.184281         732.227         688.334         730.305 
       0.196406         669.834         635.675         669.605 
       0.209011         611.636          565.59         602.611 
       0.221538         549.264         494.273         545.992 
       0.233611         504.085         442.247         500.184 
       0.245665          470.86         408.177         460.112 
       0.258103         434.261         379.979         431.657 
       0.270422          401.88         349.156         400.361 
       0.282519         367.005         316.879         370.674 
       0.294636         360.412         288.712         345.387 
       0.306978         318.842         267.108         326.024 
       0.319417          305.74          249.73         306.305 
        0.33169         286.144         233.097         287.706 
       0.343948         273.087         215.978         273.273 
       0.356249         254.042         199.923         259.963 
       0.368458         245.165         186.476         244.084 
        0.38068          232.82          175.23         232.142 
       0.392856         217.332         164.965          221.93 
       0.405069         207.842         154.927         212.417 
       0.417459         197.916         145.208         200.996 
       0.429752         190.467         136.484         192.753 
       0.441978         183.342         128.826         186.121 
       0.454294         170.781         121.873         176.846 
        0.46658         170.996         115.348         170.853 
       0.478753         160.863         109.193         164.471 
       0.490964         155.928         103.412         158.197 
       0.503334         148.233         98.0752         152.848 
       0.515665         144.378          93.209         148.838 
       0.527909         139.832         88.7169         142.345 
       0.540159          135.13         84.4669         138.137 
        0.55248         130.611         80.4341         133.369 
       0.564743          126.92            76.7         129.824 
        0.57686         122.912         73.2681         125.534 
       0.589077         117.387         70.0285         122.453 
       0.601441         114.793          66.948         119.122 
        0.61382         112.752         64.0435         115.442 
       0.626067         108.321         61.3332          112.47 
       0.638306         104.601         58.7809         109.652 
       0.650632          100.88         56.3628         105.795 
       0.662899         100.508         54.0967         103.369 
       0.675076         96.8721         51.9731         100.839 
       0.687267         94.7623         49.9608         98.3913 
       0.699615         91.8188         48.0298         96.3771 
       0.711937         89.0087         46.2045         93.6214 
       0.724148         88.2292         44.4894         92.3007 
       0.736433         84.5738          42.853         89.7933 
       0.748747         83.0488         41.2964         87.7995 
       0.761037         81.1589         39.8209         85.7135 
       0.773197         79.3933         38.4328         84.6451 
       0.785376         77.4431         37.1092         82.4725 
       0.797761         76.7036         35.8276         81.1707 
       0.810096         74.0467         34.6115         79.3169 
       0.822371         72.6568         33.4578          77.756 
       0.834626         70.9654         32.3588         76.4488 
       0.846916         69.8653         31.3065         75.0552 
       0.859215         68.2977         30.3008         73.5122 
       0.871383         67.3875         29.3494         72.2739 
        0.88363         65.5361         28.4334         71.2491 
       0.895928         64.1677         27.5532         69.9704 
       0.908253          62.634         26.7089         68.7747 
       0.920535         62.2792         25.9029          67.664 
       0.932774         61.0214         25.1331         66.4987 
        0.94508          60.154          24.391         65.2935 
       0.957324         58.6276         23.6825         64.4334 
        0.96953         58.5414         23.0045         63.2651 
       0.981769         56.6129         22.3514         62.5106 
       0.994071         55.9463         21.7208          61.577 
         1.0064         54.7297         21.1134         60.6203 
        1.01868          53.879         20.5312         59.7972 
        1.03092          53.061         19.9736          58.902 
         1.0432         52.1528         19.4349         57.9467 
        1.05553         50.8763          18.914         57.4866 
        1.06777         50.3723          18.416         56.5812 
           1.08         49.1901         17.9366          55.762 
        1.09227         48.6199         17.4727         54.9878 
         1.1046         47.8988         17.0236         54.2406 
         1.1169         47.3441         16.5911         53.4634 
        1.12915         46.5331         16.1759         52.8827 
        1.14142         45.6374          15.774         52.2147 
        1.15365         44.9742         15.3871           51.61 
        1.16585         44.2928         15.0142         50.8704 
        1.17807         43.5764         14.6532         50.2132 
        1.19037         43.4426         14.3018         49.7641 
        1.20276         42.6846         13.9596         49.1442 
        1.21504         42.0859         13.6313          48.596 
        1.22728          41.289          13.315         48.0179 
        1.23954         40.8283          13.008         47.3497 
        1.25184         40.1328         12.7101         46.9189 
        1.26414         39.5765         12.4215         46.3114 
        1.27632         39.2557         12.1444         45.8377 
         1.2886         38.8391         11.8738         45.3416 
        1.30093         38.1573         11.6106         44.7577 
        1.31316         37.5842         11.3573         44.3907 
        1.32541         37.3261         11.1115         43.8868 
        1.33772          36.608         10.8717         43.4259 
        1.35005         36.1895         10.6387         42.9995 
        1.36225         35.6118          10.415         42.5824 
        1.37447         34.7822         10.1974         42.1026 
        1.38676         34.8956         9.98492         41.7327 
        1.39907          34.331          9.7782         41.3493 
        1.41133         33.6332         9.57823         40.9136 
        1.42358         33.2974         9.38406         40.4866 
        1.43591         32.8938         9.19395         40.1397 
        1.44818         32.5668         9.01017         39.6769 
        1.46037         32.1511         8.83251         39.3164 
        1.47263         31.9153         8.65867         39.0037 
        1.48494         31.3015         8.48885         38.5912 
        1.49724         31.2216         8.32373         38.2333 
        1.50952         30.7242         8.16335         37.9254 
        1.52178         30.2759         8.00744         37.5593 
        1.53409         30.0254         7.85498         37.2289 
        1.54637         29.6396         7.70681         36.8525 
        1.55858         28.9613         7.56331         36.5379 
        1.57081         29.0501         7.42327         36.2545 
        1.58313         28.6874         7.28591         35.9088 
        1.59544         28.1511          7.1521         35.6105 
        1.60767         27.8387         7.02252         35.2578 
        1.61994         27.5011         6.89571          34.984 
        1.63225         27.3734         6.77177         34.7232 
        1.64452         26.9491         6.65122         34.4313 
        1.65676         26.6745         6.53399         34.1188 
          1.669         26.4172          6.4195         33.8737 
        1.68133          26.071         6.30703         33.5648 
        1.69363         25.7129         6.19759         33.2378 
        1.70585         25.5072         6.09145          33.063 
        1.71809         25.0969         5.98758         32.7178 
        1.73038         24.9672         5.88581         32.5132 
        1.74268         24.6616         5.78634         32.1863 
        1.75493         24.3436         5.68964         31.9624 
        1.76714         24.2178         5.59539         31.7289 
        1.77942         23.9482          5.5028         31.4623 
        1.79173         23.5031         5.41207         31.2156 
        1.80402         23.2735         5.32358         31.0517 
         1.8163         23.1792         5.23711         30.6843 
         1.8286          22.774         5.15242         30.5078 
         1.8409         22.5763         5.06968         30.2791 
        1.85315         22.3578         4.98903         30.0662 
        1.86537         22.0552          4.9103          29.838 
        1.87765         21.9278         4.83298         29.6053 
        1.88995         21.6299         4.75714         29.3448 
        1.90221           21.42         4.68319         29.1359 
        1.91445         21.1564         4.61093         28.9242 
        1.92674         20.9694         4.53996         28.7093 
        1.93902          20.721         4.47047         28.5266 
        1.95124         20.4182         4.40281         28.3661 
         1.9635         20.2973         4.33637         28.1105 
        1.97583         20.0882         4.27089         27.9127 
        1.98812         19.9192         4.20701         27.7308 
        2.00039         19.7071         4.14457         27.5236 
        2.01264         19.4815         4.08345         27.3454 
        2.02492         19.3239         4.02348         27.1157 
        2.03717         19.0349         3.96481         26.9405 
        2.04942         18.8844         3.90739         26.7372 
        2.06171         18.7472         3.85091         26.5623 
        2.07397         18.5601         3.79567         26.3549 
        2.08629         18.3852         3.74129         26.1674 
        2.09857         18.2076          3.6881         26.0048 
        2.11081         17.9732         3.63617         25.8233 
        2.12309         17.8466         3.58511          25.643 
        2.13538         17.6263         3.53496         25.4721 
        2.14763         17.4537         3.48593         25.3022 
        2.15986         17.3505         3.43795         25.1388 
        2.17214         17.1446         3.39068         24.9733 
        2.18443         16.9752         3.34425         24.7872 
        2.19671          16.806         3.29875          24.612 
        2.20898         16.6445         3.25415         24.4502 
        2.22126         16.5157         3.21033         24.3006 
        2.23354         16.4324         3.16733         24.1364 
         2.2458          16.223         3.12519         24.0025 
        2.25807         16.0215         3.08378         23.7989 
        2.27035         15.9005         3.04309         23.6606 
        2.28263         15.7359         3.00315         23.5068 
         2.2949         15.6524         2.96395         23.3658 
        2.30718         15.5115         2.92543         23.2184 
        2.31946         15.3854         2.88759         23.0546 
        2.33169         15.2227         2.85057          22.906 
        2.34393         15.0851         2.81415         22.7785 
        2.35622         14.8838         2.77825         22.6255 
        2.36847         14.7841         2.74307         22.4703 
        2.38076         14.6254          2.7084         22.3439 
        2.39305         14.5254         2.67433         22.1981 
        2.40534         14.3806         2.64086         22.0309 
        2.41762         14.2449         2.60795         21.9284 
        2.42989         14.1313         2.57566         21.7675 
        2.44216         14.0007         2.54392         21.6356 
         2.4544         13.9797         2.51279         21.4874 
        2.46667         13.7978         2.48211         21.3674 
        2.47897          13.629         2.45186         21.2238 
        2.49124         13.5745         2.42221         21.0939 
        2.50349          13.418         2.39308         20.9529 
        2.51578         13.3221         2.36435         20.8521 
        2.52805         13.2196         2.33614         20.7149 
        2.54029         13.1361         2.30847          20.587 
        2.55257         13.0453         2.28115         20.4577 
        2.56487         12.8636         2.25423         20.3362 
        2.57716         12.7942         2.22778         20.1946 
        2.58942         12.7187         2.20181         20.0957 
        2.60167         12.5675         2.17629         19.9726 
        2.61395          12.559         2.15112         19.8493 
        2.62624         12.4484         2.12633         19.7271 
        2.63849         12.3202           2.102         19.6265 
        2.65073         12.2278         2.07808         19.4955 
        2.66302         12.1563         2.05444         19.3894 
         2.6753         12.0975         2.03119         19.2648 
        2.68756         12.0005         2.00834         19.1596 
        2.69983         11.9032         1.98583         19.0393 
        2.71213         11.8085         1.96362         18.9137 
        2.72441         11.7659         1.94179         18.8135 
        2.73665         11.6941         1.92034          18.703 
         2.7489         11.6322         1.89923         18.5864 
        2.76118         11.5099         1.87837         18.4843 
        2.77349         11.4504         1.85777         18.3758 
        2.78576         11.3589         1.83757         18.2763 
        2.79802         11.3233         1.81767         18.1625 
        2.81031         11.2522         1.79803         18.0538 
        2.82259          11.209         1.77868         17.9565 
        2.83483         11.1402         1.75969         17.8557 
         2.8471         11.0763         1.74094         17.7466 
         2.8594         11.0429         1.72241         17.6388 
         2.8717         10.9827         1.70415         17.5439 
        2.88396         10.9119         1.68623         17.4431 
        2.89619          10.876         1.66859         17.3411 
        2.90847         10.8299         1.65114         17.2509 
        2.92072          10.796         1.63397          17.137 
        2.93299         10.7113         1.61704         17.0496 
        2.94526         10.6992         1.60033         16.9598 
        2.95753         10.6518         1.58386         16.8575 
        2.96982         10.6073          1.5676         16.7614 
        2.98209         10.6018         1.55159         16.6678 
        2.99436         10.5787          1.5358         16.5686 
        3.00666         10.5467          1.5202         16.4772 
        3.01894         10.5237         1.50485         16.3988 
        3.03119         10.4862         1.48973         16.3018 
        3.04345         10.4225         1.47482         16.1985 
        3.05573         10.4482         1.46008         16.1127 
          3.068         10.4281         1.44556         16.0317 
        3.08026         10.4054         1.43125         15.9296 
        3.09254         10.4086         1.41711         15.8493 
        3.10483         10.3999         1.40315         15.7718 
         3.1171         10.4214         1.38941         15.6794 
        3.12933         10.3966         1.37588         15.5914 
        3.14159         10.3622         1.36251         15.5025 
