# k  (h/Mpc)    P(k)  (Mpc/h)^3    P_linear(k)  (Mpc/h)^3     P_NL(k)  ShotnoiseSubtracted = false
      0.0156606         18751.5         18762.6         18623.4 
      0.0273761         16070.9         16195.7         16039.6 
      0.0384619         12153.3           12191         12056.1 
      0.0498308         9394.44         9583.81         9449.24 
      0.0625568         7931.56         8141.89         8020.97 
      0.0751274         7046.43         6915.69         6744.74 
      0.0867833         5467.25            5567         5515.35 
      0.0984825         4599.23         4405.04         4455.17 
       0.111151         3923.59         3677.79         3737.79 
       0.123864         3516.63         3314.19          3363.1 
       0.135742         3199.45         2980.13         3029.49 
        0.14762         2777.95         2548.05         2679.15 
       0.160083         2347.51         2123.87         2283.72 
       0.172465         2093.86         1853.68         2056.63 
       0.184281         1904.81         1708.84         1913.82 
       0.196406         1784.69         1578.08         1759.98 
       0.209011         1663.24         1404.06         1593.37 
       0.221538         1499.33            1227         1482.15 
       0.233611         1428.13         1097.83         1384.68 
       0.245665         1298.57         1013.25         1277.09 
       0.258103         1274.02          943.24         1204.65 
       0.270422         1138.79         866.721         1129.56 
       0.282519         1069.68         786.592         1065.18 
       0.294636         1055.02         716.668         1006.94 
       0.306978         957.577         663.035         963.132 
       0.319417         933.937         619.897         907.491 
        0.33169         879.193         578.605         857.822 
       0.343948         841.109         536.108         830.143 
       0.356249         794.432         496.256         798.107 
       0.368458         766.821         462.875         760.046 
        0.38068         749.094         434.962         729.787 
       0.392856         709.257         409.479          702.97 
       0.405069         675.503         384.561         681.098 
       0.417459          649.22         360.436         653.823 
       0.429752         640.201          338.78         630.724 
       0.441978         618.144         319.772         613.916 
       0.454294         588.682         302.511         588.222 
        0.46658         573.393         286.315         575.367 
       0.478753         560.105         271.036         557.112 
       0.490964         538.567         256.684          539.61 
       0.503334         512.859         243.439          526.65 
       0.515665         511.708         231.361         515.152 
       0.527909         491.493          220.21         502.766 
       0.540159         478.969          209.66         489.246 
        0.55248         469.537          199.65         476.296 
       0.564743          465.24         190.381         467.991 
        0.57686         447.827         181.863         455.108 
       0.589077         436.075         173.821         444.919 
       0.601441         429.315         166.175         435.622 
        0.61382         418.939         158.965         427.906 
       0.626067         413.413         152.238         419.236 
       0.638306         397.269         145.903         411.068 
       0.650632         392.585           139.9         400.212 
       0.662899         389.056         134.276         395.526 
       0.675076         374.612         129.004         389.107 
       0.687267           364.9         124.009         379.836 
       0.699615         361.103         119.217         373.738 
       0.711937         355.407         114.686         366.961 
       0.724148         343.444         110.429         361.635 
       0.736433         335.553         106.367         354.782 
       0.748747         331.065         102.503         348.296 
       0.761037         324.746         98.8407         343.533 
       0.773197         320.739         95.3951         338.432 
       0.785376         315.766         92.1099         333.094 
       0.797761         307.274         88.9285         327.826 
       0.810096         304.647         85.9101          323.64 
       0.822371         294.227         83.0464         318.298 
       0.834626           292.7         80.3185         314.079 
       0.846916         286.497         77.7067         309.327 
       0.859215         285.893         75.2102         304.909 
       0.871383          278.39         72.8487         300.598 
        0.88363          276.61         70.5752         297.504 
       0.895928         270.868         68.3905         292.772 
       0.908253         263.908         66.2946         288.084 
       0.920535         261.452         64.2941          284.42 
       0.932774          254.88         62.3834         280.416 
        0.94508         251.783         60.5412         277.496 
       0.957324         250.605         58.7828         273.602 
        0.96953         246.912         57.0998         270.047 
       0.981769         239.835         55.4789         267.296 
       0.994071         238.891         53.9134         263.912 
         1.0064         233.698          52.406          260.02 
        1.01868         230.824         50.9608          256.79 
        1.03092         224.854         49.5769         254.358 
         1.0432         221.474         48.2396         251.259 
        1.05553         218.678         46.9466         247.951 
        1.06777          217.73         45.7106         245.366 
           1.08          212.32         44.5206         242.447 
        1.09227         210.093         43.3692         239.641 
         1.1046         206.836         42.2545         237.243 
         1.1169         202.324          41.181         233.998 
        1.12915         199.594         40.1503         231.877 
        1.14142         196.293         39.1529         228.921 
        1.15365         193.548         38.1924         226.509 
        1.16585         190.474         37.2669         223.699 
        1.17807         188.173          36.371         221.791 
        1.19037         186.068         35.4987         219.711 
        1.20276         183.371         34.6493           216.9 
        1.21504         179.469         33.8345         214.548 
        1.22728          176.31         33.0493         211.821 
        1.23954         175.678         32.2872         210.253 
        1.25184         172.187         31.5479         207.889 
        1.26414         169.107         30.8314         205.784 
        1.27632         168.401         30.1437         204.253 
         1.2886         166.643         29.4721         201.654 
        1.30093         161.824         28.8188         199.358 
        1.31316         159.326           28.19         197.125 
        1.32541         157.998         27.5799         195.503 
        1.33772         156.357         26.9846         193.467 
        1.35005         153.824         26.4065         191.297 
        1.36225         151.352         25.8512         189.547 
        1.37447         149.247         25.3109         187.258 
        1.38676         147.403         24.7836         185.704 
        1.39907         144.968         24.2705         183.694 
        1.41133         142.632         23.7742         182.009 
        1.42358         140.824         23.2922         180.298 
        1.43591         139.133         22.8204         178.401 
        1.44818          137.15         22.3642         176.766 
        1.46037          135.19         21.9232         174.913 
        1.47263         133.472         21.4917         173.527 
        1.48494         131.421         21.0702          171.42 
        1.49724         129.612         20.6604         170.045 
        1.50952         127.234         20.2623         168.376 
        1.52178         126.657         19.8753         166.557 
        1.53409         123.881         19.4969         165.189 
        1.54637         122.432         19.1291           163.8 
        1.55858         120.265         18.7729         162.038 
        1.57081         118.595         18.4253         160.661 
        1.58313         117.066         18.0844         159.032 
        1.59544         115.304         17.7523         157.648 
        1.60767          114.23         17.4306         156.164 
        1.61994         112.142         17.1159         154.919 
        1.63225         110.758         16.8082         153.161 
        1.64452         108.691          16.509          151.79 
        1.65676         107.098          16.218         150.532 
          1.669         106.413         15.9339         149.257 
        1.68133         104.076         15.6547         147.881 
        1.69363         102.833         15.3831         146.562 
        1.70585         100.953         15.1196          145.26 
        1.71809         99.7727         14.8618         143.757 
        1.73038         99.0451         14.6092           142.6 
        1.74268         97.8349         14.3623         141.257 
        1.75493         95.6433         14.1223          140.03 
        1.76714         94.6713         13.8883         138.898 
        1.77942         93.2579         13.6585         137.493 
        1.79173         91.9076         13.4333         136.408 
        1.80402          91.145         13.2137          135.22 
         1.8163         89.2234         12.9991         133.966 
         1.8286         88.0132         12.7889         132.786 
         1.8409         87.3831         12.5835         131.587 
        1.85315         85.8253         12.3833         130.539 
        1.86537         84.8223         12.1879          129.45 
        1.87765         84.0218          11.996          128.32 
        1.88995         82.5721         11.8077         127.221 
        1.90221         81.4293         11.6242         126.144 
        1.91445         80.3791         11.4448         124.973 
        1.92674         79.0002         11.2686         123.944 
        1.93902         78.0109         11.0962         122.835 
        1.95124         77.1811         10.9282         121.837 
         1.9635         75.9529         10.7633         120.714 
        1.97583         74.7996         10.6008         119.801 
        1.98812         73.8345         10.4422         118.804 
        2.00039         72.9214         10.2872         117.762 
        2.01264          72.115         10.1355         116.783 
        2.02492         71.2004         9.98669         115.779 
        2.03717         69.9929         9.84107          114.79 
        2.04942         69.6396         9.69854         113.945 
        2.06171         68.0336         9.55836         112.951 
        2.07397          67.273         9.42125         112.054 
        2.08629         66.4893         9.28626         111.078 
        2.09857         65.4609         9.15425         110.193 
        2.11081         64.4367         9.02534         109.177 
        2.12309         63.6575         8.89861          108.43 
        2.13538         62.8628         8.77412         107.486 
        2.14763          62.004         8.65244         106.625 
        2.15986         60.9286         8.53335         105.713 
        2.17214         60.4202         8.41602          104.84 
        2.18443          59.675         8.30078         104.145 
        2.19671         58.5374         8.18784         103.252 
        2.20898         58.2071         8.07714         102.378 
        2.22126         57.3104         7.96837         101.551 
        2.23354         56.6307         7.86164         100.777 
         2.2458           55.75         7.75705         99.9954 
        2.25807         54.9987         7.65427         99.1535 
        2.27035         54.3723         7.55326         98.3488 
        2.28263         53.6153         7.45413         97.5752 
         2.2949         53.0183         7.35682         96.8143 
        2.30718         52.0407         7.26123          96.085 
        2.31946         51.7162         7.16728         95.2942 
        2.33169          50.791         7.07541         94.5634 
        2.34393         50.2569           6.985         93.8592 
        2.35622         49.5632         6.89589         93.1178 
        2.36847         49.1182         6.80858         92.4824 
        2.38076         48.2449         6.72252         91.6492 
        2.39305         47.7018         6.63797         91.0203 
        2.40534         47.1853         6.55487          90.273 
        2.41762         46.6077         6.47321          89.535 
        2.42989         46.0299         6.39306         88.9266 
        2.44216         45.5051         6.31427         88.2011 
         2.4544         44.8907           6.237         87.5335 
        2.46667         44.3722         6.16084         86.8447 
        2.47897         43.8932         6.08577         86.1837 
        2.49124         43.3158         6.01216         85.5705 
        2.50349         43.0053         5.93988         84.8943 
        2.51578         42.2952         5.86856         84.3436 
        2.52805         41.8154         5.79855         83.6487 
        2.54029         41.3957         5.72985          82.976 
        2.55257         40.7891         5.66205         82.4119 
        2.56487         40.4504         5.59523         81.8388 
        2.57716         39.8817         5.52958         81.2368 
        2.58942         39.3328         5.46512         80.6121 
        2.60167          39.034         5.40176         80.0274 
        2.61395         38.4588         5.33931          79.448 
        2.62624          38.213         5.27776         78.8133 
        2.63849         37.7017         5.21737         78.2618 
        2.65073         37.3581         5.15799         77.6823 
        2.66302         36.8607         5.09933         77.1054 
         2.6753         36.4353         5.04162         76.5653 
        2.68756         36.0487         4.98491         75.9885 
        2.69983           35.69         4.92904          75.482 
        2.71213         35.3259         4.87391         74.9503 
        2.72441          34.962         4.81972         74.3961 
        2.73665         34.4605         4.76648         73.8618 
         2.7489         34.3278         4.71408          73.341 
        2.76118         33.8471         4.66231         72.8307 
        2.77349         33.5618         4.61119         72.3064 
        2.78576         33.3027         4.56103         71.7653 
        2.79802         32.9209         4.51165         71.3286 
        2.81031         32.5406         4.46289         70.8048 
        2.82259         32.4722         4.41487         70.2811 
        2.83483         32.0155         4.36773         69.8281 
         2.8471          31.693         4.32119         69.3363 
         2.8594          31.452         4.27519         68.8308 
         2.8717         31.2809         4.22988         68.3707 
        2.88396         30.9172         4.18538         67.8882 
        2.89619         30.7807         4.14161         67.3855 
        2.90847         30.4481          4.0983         66.9219 
        2.92072          30.263         4.05569         66.4902 
        2.93299         30.0791         4.01366         66.0364 
        2.94526         29.7683         3.97218         65.5909 
        2.95753         29.5823         3.93131         65.1396 
        2.96982         29.4393         3.89094         64.6952 
        2.98209         29.1684         3.85121         64.2662 
        2.99436         28.9764         3.81201          63.802 
        3.00666         28.9153         3.77329         63.3857 
        3.01894         28.6525         3.73519         62.9472 
        3.03119         28.5326         3.69766         62.5385 
        3.04345         28.4165         3.66065         62.1444 
        3.05573         28.1548         3.62406         61.7279 
          3.068         28.1605         3.58802         61.3124 
        3.08026         27.9943         3.55251         60.8999 
        3.09254         27.8792         3.51741         60.5003 
        3.10483          27.872         3.48277         60.1091 
         3.1171         27.6625         3.44865         59.7129 
        3.12933         27.6478         3.41508         59.3089 
        3.14159         27.5183         3.38189         58.9067 
