# k  (h/Mpc)    Pcb(k)  (Mpc/h)^3    Pcb_linear(k) (Mpc/h)^3    Pcb_NL(k) (Mpc/h)^3   ShotnoiseSubtracted = false
      0.0156606         239.395          240.19         239.088 
      0.0273761         208.992         207.994         207.583 
      0.0384619         158.676           156.8         156.805 
      0.0498308          125.06         123.375         123.468 
      0.0625568         105.596         104.875         104.836 
      0.0751274         90.0824         89.1132         88.9811 
      0.0867833         72.3451         71.7512         71.7401 
      0.0984825         57.7685         56.7848          56.879 
       0.111151         48.2463         47.4161         47.4987 
       0.123864         43.3061         42.7326         42.7606 
       0.135742         38.8497          38.428         38.4411 
        0.14762          33.125         32.8584         32.9398 
       0.160083           27.62         27.3897         27.5008 
       0.172465         24.1404         23.9062         24.0343 
       0.184281         22.2877         22.0388         22.1651 
       0.196406         20.4512         20.3529         20.4398 
       0.209011         18.2584          18.109         18.2148 
       0.221538           16.04         15.8256         15.9841 
       0.233611         14.3484         14.1599          14.336 
       0.245665         13.3249         13.0691         13.2222 
       0.258103         12.2076         12.1662         12.3158 
       0.270422         11.3177         11.1794         11.3221 
       0.282519         10.2763         10.1459         10.3039 
       0.294636         9.46383         9.24409         9.41156 
       0.306978         8.60255         8.55235         8.72421 
       0.319417         8.10993         7.99596         8.16213 
        0.33169         7.55418         7.46338         7.62287 
       0.343948         7.04507         6.91527         7.07372 
       0.356249         6.47309         6.40123         6.58443 
       0.368458         6.07462         5.97068         6.13188 
        0.38068         5.67725         5.61062         5.77101 
       0.392856          5.3509         5.28194         5.44381 
       0.405069         5.04973         4.96055         5.11301 
       0.417459         4.66715         4.64936         4.81058 
       0.429752         4.41878         4.37001         4.52836 
       0.441978         4.18954         4.12484         4.29294 
       0.454294         3.94038         3.90219         4.06074 
        0.46658         3.76559         3.69329         3.84792 
       0.478753         3.55184         3.49622         3.64966 
       0.490964         3.38697          3.3111         3.47433 
       0.503334         3.22324         3.14023         3.29245 
       0.515665         3.03713         2.98443         3.14496 
       0.527909         2.91258         2.84059         2.98842 
       0.540159         2.75663         2.70451         2.84971 
        0.55248         2.61321         2.57539         2.71402 
       0.564743         2.52608         2.45583         2.60522 
        0.57686         2.40956         2.34595         2.48913 
       0.589077          2.2789         2.24222         2.39062 
       0.601441         2.19259         2.14359         2.28841 
        0.61382         2.09855         2.05059         2.18991 
       0.626067           2.002         1.96381         2.10165 
       0.638306         1.92744         1.88209         2.01703 
       0.650632         1.86123         1.80466         1.94171 
       0.662899         1.78704         1.73211         1.86418 
       0.675076         1.69871         1.66411         1.79588 
       0.687267         1.63074         1.59968         1.72471 
       0.699615         1.58754         1.53785         1.66157 
       0.711937         1.52066         1.47941         1.60624 
       0.724148         1.47431         1.42449         1.54834 
       0.736433         1.41052          1.3721         1.49081 
       0.748747         1.36128         1.32226         1.44542 
       0.761037         1.30901         1.27501         1.39407 
       0.773197         1.26234         1.23057         1.35121 
       0.785376           1.218         1.18819         1.30541 
       0.797761         1.17737         1.14715         1.26011 
       0.810096         1.14952         1.10822         1.22501 
       0.822371         1.11206         1.07128         1.18271 
       0.834626         1.07727         1.03609         1.14524 
       0.846916         1.04189          1.0024          1.1146 
       0.859215          1.0002        0.970192         1.08207 
       0.871383        0.970627         0.93973         1.04844 
        0.88363         0.94159        0.910402         1.01824 
       0.895928        0.916654         0.88222        0.987635 
       0.908253        0.890156        0.855184        0.959978 
       0.920535          0.8637        0.829378         0.93134 
       0.932774        0.836226        0.804731         0.90366 
        0.94508        0.814157        0.780968        0.879786 
       0.957324        0.792783        0.758284        0.858361 
        0.96953        0.765709        0.736575         0.83469 
       0.981769        0.743958        0.715665        0.810145 
       0.994071        0.724751        0.695471        0.792293 
         1.0064        0.703954        0.676025        0.770311 
        1.01868        0.685993        0.657383        0.750806 
        1.03092        0.670923        0.639531        0.730142 
         1.0432        0.653847         0.62228        0.712521 
        1.05553        0.633335        0.605602        0.696107 
        1.06777        0.616345        0.589658        0.679255 
           1.08        0.604704        0.574306        0.662021 
        1.09227        0.585455        0.559454        0.645636 
         1.1046        0.571491        0.545074        0.631404 
         1.1169        0.557367        0.531227        0.616341 
        1.12915        0.542554        0.517931        0.602016 
        1.14142        0.532844        0.505065        0.588081 
        1.15365        0.519811        0.492675        0.575196 
        1.16585        0.506358        0.480736        0.561683 
        1.17807        0.497392        0.469179        0.550044 
        1.19037        0.480635        0.457927        0.537002 
        1.20276        0.472225        0.446969        0.524268 
        1.21504        0.462798        0.436458        0.515361 
        1.22728        0.453824         0.42633        0.502276 
        1.23954        0.442237          0.4165        0.493538 
        1.25184        0.434618        0.406962        0.481761 
        1.26414        0.424476         0.39772        0.471568 
        1.27632        0.412075        0.388848        0.462215 
         1.2886        0.402071        0.380185        0.451895 
        1.30093        0.393758        0.371757        0.444402 
        1.31316         0.38393        0.363646        0.434826 
        1.32541        0.376853        0.355777        0.426773 
        1.33772        0.369663        0.348097        0.418316 
        1.35005        0.364191        0.340639        0.410376 
        1.36225        0.356143        0.333477        0.401836 
        1.37447        0.349395        0.326507        0.394979 
        1.38676        0.342955        0.319705        0.386657 
        1.39907        0.335706        0.313086        0.379937 
        1.41133        0.327702        0.306683        0.372787 
        1.42358        0.323162        0.300466        0.365015 
        1.43591        0.316815        0.294379        0.359813 
        1.44818        0.310346        0.288495        0.353298 
        1.46037        0.304385        0.282806        0.346018 
        1.47263        0.298422         0.27724        0.340399 
        1.48494        0.292806        0.271803        0.334638 
        1.49724        0.287363        0.266516        0.328814 
        1.50952        0.281562        0.261381        0.321919 
        1.52178        0.277082        0.256388        0.316809 
        1.53409        0.272626        0.251507         0.31149 
        1.54637        0.266581        0.246763        0.305848 
        1.55858        0.262603        0.242168        0.300814 
        1.57081         0.25796        0.237684        0.295496 
        1.58313        0.254146        0.233286        0.291213 
        1.59544        0.249912        0.229002        0.285989 
        1.60767        0.245531        0.224853        0.281387 
        1.61994        0.240015        0.220792        0.277213 
        1.63225        0.235617        0.216824        0.272818 
        1.64452        0.233115        0.212964        0.268047 
        1.65676        0.229795         0.20921        0.263974 
          1.669        0.225967        0.205544        0.259536 
        1.68133        0.221436        0.201943        0.255799 
        1.69363        0.217598        0.198439         0.25179 
        1.70585        0.214038        0.195041        0.247909 
        1.71809        0.210633        0.191715        0.244002 
        1.73038        0.207832        0.188456         0.24041 
        1.74268        0.203506        0.185272        0.236467 
        1.75493        0.202322        0.182175        0.233457 
        1.76714        0.198114        0.179157        0.229796 
        1.77942        0.195721        0.176193         0.22645 
        1.79173        0.192763        0.173288        0.222735 
        1.80402        0.189241        0.170454        0.219718 
         1.8163        0.186772        0.167686         0.21604 
         1.8286        0.183832        0.164974        0.213848 
         1.8409        0.180915        0.162325        0.210305 
        1.85315         0.17894        0.159743        0.207278 
        1.86537        0.175081        0.157222        0.204439 
        1.87765        0.172708        0.154746        0.201525 
        1.88995        0.171341        0.152318         0.19894 
        1.90221        0.169111         0.14995        0.196003 
        1.91445        0.165676        0.147636        0.193429 
        1.92674        0.163376        0.145364        0.190796 
        1.93902        0.160961        0.143139        0.187984 
        1.95124        0.158628        0.140972        0.185476 
         1.9635        0.156626        0.138845        0.182921 
        1.97583        0.154941        0.136749        0.180388 
        1.98812        0.152529        0.134703        0.178423 
        2.00039        0.151202        0.132704        0.175759 
        2.01264        0.148813        0.130747        0.173598 
        2.02492        0.147435        0.128827        0.171328 
        2.03717        0.144599        0.126948        0.169126 
        2.04942        0.143166         0.12511        0.166841 
        2.06171        0.141072        0.123301        0.164705 
        2.07397        0.138888        0.121533        0.162716 
        2.08629        0.137464        0.119791        0.160563 
        2.09857        0.135901        0.118088        0.158609 
        2.11081        0.134352        0.116426        0.156386 
        2.12309         0.13213        0.114791        0.154798 
        2.13538        0.130784        0.113185        0.152733 
        2.14763        0.129305        0.111615        0.150953 
        2.15986        0.127495        0.110079         0.14918 
        2.17214        0.125986        0.108565         0.14728 
        2.18443        0.124969        0.107079        0.145434 
        2.19671        0.123088        0.105622        0.143856 
        2.20898        0.121887        0.104194        0.141985 
        2.22126        0.120078        0.102791         0.14043 
        2.23354        0.118674        0.101414         0.13886 
         2.2458        0.117584        0.100065        0.136869 
        2.25807        0.116286        0.098739        0.135565 
        2.27035        0.114844        0.097436        0.133935 
        2.28263        0.113456       0.0961572        0.132468 
         2.2949        0.112456        0.094902        0.130813 
        2.30718        0.110908       0.0936689        0.129383 
        2.31946        0.110038        0.092457        0.127961 
        2.33169        0.108319       0.0912718        0.126454 
        2.34393        0.107811       0.0901056        0.125183 
        2.35622        0.106597        0.088956        0.123632 
        2.36847        0.105498       0.0878297        0.122304 
        2.38076        0.104186       0.0867196        0.120985 
        2.39305        0.103339       0.0856289        0.119648 
        2.40534        0.102071        0.084557        0.118363 
        2.41762        0.101016       0.0835035        0.117053 
        2.42989        0.100029       0.0824696        0.115733 
        2.44216       0.0991293       0.0814533         0.11455 
         2.4544       0.0980539       0.0804565        0.113374 
        2.46667        0.097018        0.079474        0.112059 
        2.47897       0.0957283       0.0785057        0.110892 
        2.49124       0.0951687       0.0775561        0.109736 
        2.50349       0.0941135       0.0766236        0.108543 
        2.51578       0.0930531       0.0757037        0.107407 
        2.52805       0.0927172       0.0748005        0.106327 
        2.54029       0.0916239       0.0739143         0.10526 
        2.55257       0.0909477       0.0730397         0.10421 
        2.56487       0.0900807       0.0721777        0.103123 
        2.57716       0.0894046       0.0713308        0.102054 
        2.58942       0.0883466       0.0704994        0.100976 
        2.60167        0.087461        0.069682       0.0999707 
        2.61395       0.0867587       0.0688764       0.0990107 
        2.62624       0.0864191       0.0680824       0.0980302 
        2.63849       0.0853177       0.0673034       0.0970519 
        2.65073       0.0846197       0.0665375       0.0960619 
        2.66302       0.0840969       0.0657807       0.0950992 
         2.6753       0.0833965       0.0650362       0.0941838 
        2.68756       0.0829354       0.0643047       0.0932846 
        2.69983        0.081954        0.063584       0.0922596 
        2.71213       0.0813288       0.0628728       0.0914521 
        2.72441       0.0807045       0.0621737       0.0906319 
        2.73665        0.079975        0.061487       0.0897367 
         2.7489       0.0797102        0.060811       0.0888723 
        2.76118       0.0790416       0.0601431       0.0880339 
        2.77349        0.078367       0.0594837       0.0872367 
        2.78576       0.0780082       0.0588368       0.0864519 
        2.79802        0.077275       0.0581997       0.0854965 
        2.81031       0.0766555       0.0575707       0.0847909 
        2.82259       0.0761503       0.0569512        0.083959 
        2.83483       0.0757524       0.0563432       0.0831506 
         2.8471        0.075227       0.0557428       0.0825002 
         2.8594       0.0750794       0.0551494       0.0817512 
         2.8717       0.0742962       0.0545648        0.080954 
        2.88396        0.074001       0.0539909        0.080259 
        2.89619       0.0734312       0.0534263       0.0795584 
        2.90847       0.0730234       0.0528676       0.0788347 
        2.92072       0.0725021       0.0523178       0.0780734 
        2.93299       0.0721966       0.0517756       0.0773747 
        2.94526       0.0719115       0.0512406       0.0767306 
        2.95753       0.0713567       0.0507133       0.0760562 
        2.96982       0.0711018       0.0501926       0.0753398 
        2.98209       0.0704894       0.0496802       0.0746633 
        2.99436        0.070407       0.0491745       0.0740134 
        3.00666       0.0700892        0.048675        0.073362 
        3.01894       0.0698233       0.0481834       0.0727719 
        3.03119       0.0696106       0.0476993       0.0721423 
        3.04345       0.0691321       0.0472219       0.0715268 
        3.05573       0.0692016       0.0467499       0.0709355 
          3.068       0.0688455        0.046285       0.0702887 
        3.08026       0.0685659       0.0458269       0.0697153 
        3.09254       0.0684699       0.0453741       0.0691375 
        3.10483       0.0682246       0.0449273       0.0685615 
         3.1171       0.0681457       0.0444872         0.06796 
        3.12933       0.0678181       0.0440541       0.0673389 
        3.14159        0.067541       0.0436259       0.0668417 
