# k  (h/Mpc)    Pcb(k)  (Mpc/h)^3    Pcb_linear(k) (Mpc/h)^3    Pcb_NL(k) (Mpc/h)^3   ShotnoiseSubtracted = false
      0.0156606         2213.24         2214.57         2203.86 
      0.0273761         1924.22         1916.44         1911.53 
      0.0384619         1462.14         1444.39         1443.07 
      0.0498308         1146.97         1136.36         1135.92 
      0.0625568         967.761         965.895          964.58 
      0.0751274         835.817         820.698         818.078 
      0.0867833         664.113         660.785         660.489 
      0.0984825         537.057         522.945         524.718 
       0.111151         449.558         436.661         438.361 
       0.123864         403.789         393.527         394.737 
       0.135742          362.64         353.883         355.051 
        0.14762         308.073         302.591         305.444 
       0.160083         255.901         252.229         255.517 
       0.172465         225.182         220.149         224.072 
       0.184281         208.723         202.953         207.104 
       0.196406         190.443         187.427         190.587 
       0.209011         171.336         166.763         170.379 
       0.221538         151.886         145.735         150.812 
       0.233611         136.651         130.396         136.028 
       0.245665          128.21         120.351          125.35 
       0.258103         115.562         112.036          117.01 
       0.270422          108.45         102.948         107.759 
       0.282519         98.3761         93.4316         98.5954 
       0.294636         93.2472         85.1267         90.5708 
       0.306978         82.6987         78.7566          84.374 
       0.319417         78.8013         73.6329         79.0721 
        0.33169         73.2317         68.7285         73.9821 
       0.343948         69.3469          63.681          68.991 
       0.356249         63.5417         58.9473         64.8236 
       0.368458         60.4864         54.9825         60.3492 
        0.38068         56.5976         51.6667         56.9944 
       0.392856         52.9797           48.64         54.0169 
       0.405069         50.0846         45.6804         50.8635 
       0.417459         46.6955         42.8147         48.0876 
       0.429752         44.6551         40.2423         45.5003 
       0.441978         42.4774         37.9845         43.4622 
       0.454294         39.5493         35.9342          41.124 
        0.46658         39.0247         34.0105         39.1546 
       0.478753         36.3184         32.1957          37.348 
       0.490964         35.0213          30.491          35.771 
       0.503334         33.5179         28.9176         34.0079 
       0.515665         31.7335         27.4828         32.7805 
       0.527909         30.3637         26.1582         31.0661 
       0.540159         29.0125         24.9051         29.8004 
        0.55248         27.1163         23.7161         28.4963 
       0.564743         26.7335         22.6151         27.5237 
        0.57686         25.7774         21.6032         26.4206 
       0.589077         24.2392          20.648         25.5246 
       0.601441         23.3332         19.7397           24.55 
        0.61382         22.4838         18.8833         23.5469 
       0.626067         21.5727         18.0842         22.7609 
       0.638306         20.8216         17.3316         21.9001 
       0.650632         20.2592         16.6186         21.1912 
       0.662899         19.3165         15.9505         20.4181 
       0.675076         18.4136         15.3243         19.7343 
       0.687267         18.0752          14.731          19.048 
       0.699615         17.4767         14.1617         18.4681 
       0.711937         16.5655         13.6234         17.8768 
       0.724148         16.4474         13.1178         17.3639 
       0.736433         15.4996         12.6353         16.7826 
       0.748747         15.1594         12.1763         16.3148 
       0.761037         14.7912         11.7412         15.8472 
       0.773197         14.2039          11.332         15.4182 
       0.785376         13.6888         10.9417         14.9736 
       0.797761         13.3399         10.5638          14.534 
       0.810096         13.0025         10.2052         14.1855 
       0.822371         12.6504         9.86507         13.7451 
       0.834626          12.237         9.54103         13.4125 
       0.846916         11.8338         9.23078         13.0575 
       0.859215         11.3953         8.93422         12.7358 
       0.871383         11.1514          8.6537         12.4388 
        0.88363         10.8609         8.38363         12.1158 
       0.895928         10.6426         8.12411         11.7963 
       0.908253         10.3418         7.87515         11.5282 
       0.920535         10.0081         7.63751         11.2382 
       0.932774         9.83473         7.41054         10.9322 
        0.94508         9.49888         7.19171         10.7219 
       0.957324         9.30102         6.98282         10.5024 
        0.96953         8.97146          6.7829         10.2525 
       0.981769          8.8603         6.59035         10.0103 
       0.994071         8.64454         6.40439         9.79933 
         1.0064          8.3478         6.22532         9.59381 
        1.01868         8.17174         6.05366         9.38897 
        1.03092         8.01847         5.88926         9.17812 
         1.0432         7.72217          5.7304         8.98905 
        1.05553         7.59521         5.57681          8.8291 
        1.06777         7.36732         5.42999         8.64344 
           1.08         7.24048         5.28862         8.46953 
        1.09227         7.07441         5.15185         8.29864 
         1.1046         6.91923         5.01943         8.12654 
         1.1169         6.69606         4.89192         7.97461 
        1.12915          6.6743         4.76948         7.85285 
        1.14142          6.4208         4.65099         7.67967 
        1.15365         6.31902          4.5369         7.54083 
        1.16585         6.23134         4.42695         7.42117 
        1.17807         6.06268         4.32053         7.26451 
        1.19037         5.92182         4.21692         7.13864 
        1.20276         5.78533         4.11601         7.00354 
        1.21504         5.68099         4.01922         6.89813 
        1.22728         5.54046         3.92595         6.76295 
        1.23954         5.45015         3.83542         6.67078 
        1.25184         5.32979         3.74759         6.54549 
        1.26414         5.26043         3.66249         6.42441 
        1.27632         5.09923         3.58079         6.33391 
         1.2886         5.03762         3.50102         6.22711 
        1.30093         4.92775          3.4234         6.14291 
        1.31316         4.79975         3.34871         6.03314 
        1.32541         4.73312         3.27624         5.95136 
        1.33772         4.64541         3.20552         5.84517 
        1.35005         4.56993         3.13685           5.762 
        1.36225         4.47856         3.07089         5.66335 
        1.37447         4.39254         3.00671          5.5921 
        1.38676         4.30234         2.94407         5.50385 
        1.39907         4.21703         2.88312         5.42903 
        1.41133         4.15329         2.82416         5.34652 
        1.42358         4.07944          2.7669          5.2638 
        1.43591         4.02257         2.71085         5.20326 
        1.44818         3.91901         2.65666         5.12582 
        1.46037         3.84523         2.60428         5.05045 
        1.47263         3.78951         2.55302         4.98494 
        1.48494         3.73734         2.50295         4.91472 
        1.49724         3.66356         2.45427           4.846 
        1.50952           3.644         2.40698         4.78322 
        1.52178         3.55015           2.361         4.72324 
        1.53409         3.47774         2.31605         4.64981 
        1.54637         3.43168         2.27236         4.59262 
        1.55858         3.37846         2.23005         4.52396 
        1.57081           3.315         2.18876          4.4814 
        1.58313          3.2589         2.14826         4.41921 
        1.59544         3.20846         2.10881         4.36909 
        1.60767         3.16855          2.0706          4.3096 
        1.61994         3.10459         2.03321         4.26207 
        1.63225         3.05366         1.99667         4.20813 
        1.64452         3.00461         1.96112         4.15352 
        1.65676         2.95244         1.92656         4.10632 
          1.669         2.92085          1.8928         4.05752 
        1.68133         2.84578         1.85964         4.01249 
        1.69363         2.83943         1.82737         3.96649 
        1.70585         2.79152         1.79607         3.91685 
        1.71809         2.75739         1.76545         3.87491 
        1.73038         2.70837         1.73544         3.82752 
        1.74268         2.65936         1.70611         3.78646 
        1.75493         2.62875          1.6776         3.74465 
        1.76714         2.59844         1.64981         3.69754 
        1.77942         2.55576         1.62251         3.66096 
        1.79173          2.5215         1.59576          3.6166 
        1.80402         2.48354         1.56966         3.57972 
         1.8163         2.46228         1.54417         3.54357 
         1.8286         2.41449          1.5192         3.51056 
         1.8409         2.37811          1.4948         3.47266 
        1.85315         2.35218         1.47102         3.42703 
        1.86537          2.3227         1.44781         3.39942 
        1.87765         2.28858         1.42501         3.36322 
        1.88995         2.25276         1.40265         3.32965 
        1.90221         2.22372         1.38085         3.29401 
        1.91445         2.19985         1.35954         3.26765 
        1.92674          2.1779         1.33861         3.22747 
        1.93902          2.1368         1.31812         3.19186 
        1.95124         2.10729         1.29817         3.16656 
         1.9635         2.09184         1.27859         3.13349 
        1.97583         2.05171         1.25928         3.10386 
        1.98812         2.02817         1.24044         3.07497 
        2.00039         2.00334         1.22203         3.04307 
        2.01264         1.97219         1.20401         3.02122 
        2.02492          1.9541         1.18633         2.99179 
        2.03717         1.93315         1.16903         2.96089 
        2.04942         1.90508          1.1521         2.93213 
        2.06171         1.87838         1.13545         2.90404 
        2.07397         1.85874         1.11916         2.87957 
        2.08629         1.84069         1.10312         2.85694 
        2.09857         1.81677         1.08744         2.82906 
        2.11081          1.7932         1.07213         2.80273 
        2.12309         1.77733         1.05707           2.781 
        2.13538         1.74968         1.04229         2.75522 
        2.14763         1.74099         1.02783          2.7304 
        2.15986         1.71806         1.01369         2.70977 
        2.17214         1.68733        0.999748         2.68049 
        2.18443         1.67829        0.986059         2.66052 
        2.19671         1.65832        0.972642         2.63868 
        2.20898          1.6381        0.959492         2.61729 
        2.22126         1.62153        0.946571         2.59571 
        2.23354         1.60264        0.933892         2.57337 
         2.2458         1.59187        0.921468         2.54949 
        2.25807         1.56685        0.909258          2.5296 
        2.27035         1.55067         0.89726         2.51107 
        2.28263         1.52899        0.885484         2.49089 
         2.2949         1.52152        0.873925         2.47092 
        2.30718          1.5039        0.862569         2.45213 
        2.31946         1.48267        0.851409         2.43212 
        2.33169         1.47171        0.840495         2.41318 
        2.34393         1.46371        0.829756         2.39506 
        2.35622         1.44194         0.81917         2.37635 
        2.36847         1.42966        0.808798         2.35672 
        2.38076          1.4099        0.798575         2.33837 
        2.39305         1.39815        0.788532         2.31874 
        2.40534         1.38629         0.77866         2.30397 
        2.41762         1.36909        0.768959         2.28646 
        2.42989         1.35791        0.759438         2.27053 
        2.44216         1.34765         0.75008         2.25274 
         2.4544         1.33643          0.7409         2.23776 
        2.46667         1.31911        0.731853         2.22093 
        2.47897         1.30928        0.722936         2.20277 
        2.49124         1.29385        0.714191         2.18816 
        2.50349          1.2839        0.705605         2.17113 
        2.51578          1.2722        0.697133         2.15375 
        2.52805         1.25699        0.688816         2.14003 
        2.54029          1.2508        0.680655         2.12461 
        2.55257         1.23558        0.672602         2.10947 
        2.56487         1.22499        0.664663         2.09586 
        2.57716         1.21953        0.656864          2.0801 
        2.58942         1.20993        0.649208         2.06625 
        2.60167         1.19918        0.641681         2.05149 
        2.61395         1.18474        0.634262         2.03891 
        2.62624           1.178        0.626951         2.02438 
        2.63849         1.16874        0.619777         2.01011 
        2.65073         1.15898        0.612724         1.99651 
        2.66302         1.14956        0.605755         1.98315 
         2.6753         1.14725        0.598899         1.97045 
        2.68756         1.13396        0.592163         1.95818 
        2.69983         1.12563        0.585526         1.94469 
        2.71213         1.11547        0.578977         1.93236 
        2.72441         1.10837         0.57254         1.91953 
        2.73665         1.10127        0.566216          1.9087 
         2.7489         1.09377        0.559991         1.89741 
        2.76118           1.085         0.55384          1.8831 
        2.77349         1.08154        0.547768         1.87149 
        2.78576         1.07588         0.54181         1.85988 
        2.79802         1.06902        0.535944         1.84725 
        2.81031         1.05965        0.530152         1.83636 
        2.82259         1.05264        0.524447         1.82411 
        2.83483         1.04953        0.518848         1.81346 
         2.8471         1.04363        0.513319         1.80194 
         2.8594         1.03777        0.507855         1.79115 
         2.8717         1.03388        0.502471         1.78124 
        2.88396         1.02619        0.497186         1.77017 
        2.89619         1.02182        0.491987           1.759 
        2.90847         1.01639        0.486842         1.74847 
        2.92072         1.01431        0.481779         1.73846 
        2.93299         1.01009        0.476786         1.72748 
        2.94526         1.00811         0.47186         1.71761 
        2.95753         1.00321        0.467004         1.70788 
        2.96982        0.999526        0.462208         1.69743 
        2.98209        0.997331         0.45749         1.68776 
        2.99436        0.994792        0.452833           1.678 
        3.00666        0.994139        0.448234         1.66813 
        3.01894         0.99049        0.443707         1.65898 
        3.03119         0.98847        0.439249         1.64928 
        3.04345        0.985284        0.434852         1.64001 
        3.05573        0.984145        0.430506         1.63155 
          3.068        0.982742        0.426225         1.62231 
        3.08026        0.981442        0.422006         1.61279 
        3.09254        0.983224        0.417836         1.60367 
        3.10483        0.983699        0.413722         1.59521 
         3.1171         0.98431        0.409669         1.58658 
        3.12933        0.983862        0.405682         1.57745 
        3.14159        0.983208        0.401738         1.56888 
