# k  (h/Mpc)    Pcb(k)  (Mpc/h)^3    Pcb_linear(k) (Mpc/h)^3    Pcb_NL(k) (Mpc/h)^3   ShotnoiseSubtracted = false
      0.0156606         2137.36          2138.6         2128.25 
      0.0273761         1858.47         1850.74         1845.99 
      0.0384619         1412.17         1394.89         1393.61 
      0.0498308         1107.92         1097.42            1097 
      0.0625568         934.819         932.802         931.532 
      0.0751274         807.117         792.582         790.052 
      0.0867833         641.473         638.149         637.863 
      0.0984825         518.576         505.031         506.744 
       0.111151         434.043         421.703         423.346 
       0.123864         389.848         380.047         381.216 
       0.135742         350.095         341.762         342.889 
        0.14762         297.408         292.227         294.982 
       0.160083         247.054          243.59         246.765 
       0.172465          217.35         212.609         216.398 
       0.184281         201.455         196.001          200.01 
       0.196406         183.822         181.007         184.059 
       0.209011         165.335         161.051         164.544 
       0.221538         146.523         140.744         145.646 
       0.233611         131.793          125.93         131.369 
       0.245665          123.63         116.228         121.057 
       0.258103         111.439         108.199         113.002 
       0.270422          104.57         99.4224         104.069 
       0.282519         94.8531         90.2316         95.2184 
       0.294636         89.8335         82.2111         87.4687 
       0.306978         79.6999         76.0591         81.4841 
       0.319417         75.9277          71.111         76.3639 
        0.33169         70.5589         66.3745         71.4482 
       0.343948         66.7899         61.4999          66.628 
       0.356249         61.1867         56.9284         62.6034 
       0.368458         58.2238         53.0993         58.2822 
        0.38068         54.4657         49.8971         55.0424 
       0.392856         50.9937         46.9741         52.1669 
       0.405069         48.2021         44.1158         49.1214 
       0.417459         44.9134         41.3483         46.4406 
       0.429752         42.9413          38.864         43.9419 
       0.441978         40.8415         36.6836         41.9736 
       0.454294         38.0308         34.7035         39.7155 
        0.46658          37.499         32.8457         37.8135 
       0.478753          34.903          31.093         36.0689 
       0.490964         33.6478         29.4467         34.5458 
       0.503334         32.1965         27.9271         32.8431 
       0.515665         30.4691         26.5415         31.6578 
       0.527909         29.1544         25.2623          30.002 
       0.540159         27.8447         24.0521         28.7798 
        0.55248         26.0256         22.9038         27.5203 
       0.564743         25.6532         21.8405          26.581 
        0.57686         24.7266         20.8633         25.5157 
       0.589077         23.2469         19.9408         24.6504 
       0.601441         22.3712         19.0636         23.7092 
        0.61382         21.5511         18.2365         22.7404 
       0.626067         20.6757         17.4648         21.9813 
       0.638306         19.9513          16.738         21.1501 
       0.650632         19.4127         16.0494         20.4654 
       0.662899         18.5017         15.4042         19.7188 
       0.675076         17.6334         14.7995         19.0584 
       0.687267         17.2985         14.2265         18.3956 
       0.699615          16.728         13.6766         17.8355 
       0.711937         15.8536         13.1568         17.2646 
       0.724148         15.7354         12.6685         16.7692 
       0.736433         14.8299         12.2025         16.2078 
       0.748747         14.4957         11.7593          15.756 
       0.761037          14.143         11.3391         15.3045 
       0.773197          13.573         10.9438         14.8902 
       0.785376          13.084          10.567         14.4607 
       0.797761         12.7438          10.202         14.0362 
       0.810096         12.4178         9.85571         13.6996 
       0.822371          12.083         9.52719         13.2743 
       0.834626         11.6857         9.21425         12.9531 
       0.846916          11.297         8.91462         12.6103 
       0.859215          10.877         8.62822         12.2996 
       0.871383         10.6388         8.35732         12.0128 
        0.88363         10.3618         8.09649         11.7009 
       0.895928         10.1516         7.84586         11.3923 
       0.908253         9.86121         7.60542         11.1334 
       0.920535         9.54029         7.37592         10.8533 
       0.932774         9.37175         7.15673         10.5578 
        0.94508         9.05175         6.94539         10.3546 
       0.957324         8.85891         6.74366         10.1427 
        0.96953         8.54546         6.55059         9.90137 
       0.981769          8.4322         6.36463          9.6674 
       0.994071         8.23038         6.18504          9.4637 
         1.0064         7.94602         6.01211         9.26523 
        1.01868         7.77438         5.84632          9.0674 
        1.03092         7.62665         5.68755         8.86377 
         1.0432         7.34445         5.53414         8.68118 
        1.05553         7.22269         5.38581          8.5267 
        1.06777         7.00442         5.24401          8.3474 
           1.08         6.88434         5.10749         8.17945 
        1.09227         6.72241          4.9754         8.01441 
         1.1046         6.57234         4.84752         7.84821 
         1.1169          6.3595         4.72437         7.70148 
        1.12915         6.33721         4.60613         7.58389 
        1.14142         6.09723          4.4917         7.41665 
        1.15365         5.99641         4.38151         7.28256 
        1.16585         5.91235         4.27533         7.16699 
        1.17807         5.75478         4.17255          7.0157 
        1.19037         5.61447         4.07249         6.89415 
        1.20276           5.487         3.97504         6.76367 
        1.21504         5.38464         3.88156         6.66187 
        1.22728         5.25187         3.79148         6.53132 
        1.23954         5.16512         3.70406         6.44231 
        1.25184         5.05048         3.61924         6.32131 
        1.26414         4.98357         3.53705         6.20438 
        1.27632         4.82904         3.45815         6.11698 
         1.2886         4.77059         3.38111         6.01383 
        1.30093         4.66426         3.30615         5.93252 
        1.31316         4.54152         3.23402         5.82651 
        1.32541         4.47843         3.16403         5.74753 
        1.33772         4.39606         3.09573         5.64497 
        1.35005         4.32202         3.02941         5.56465 
        1.36225         4.23555         2.96571         5.46938 
        1.37447         4.15288         2.90373         5.40057 
        1.38676         4.06652         2.84324         5.31534 
        1.39907         3.98478         2.78437         5.24309 
        1.41133         3.92352         2.72743         5.16341 
        1.42358         3.85533         2.67214         5.08352 
        1.43591          3.7996         2.61801         5.02505 
        1.44818         3.70111         2.56567         4.95026 
        1.46037         3.63053         2.51508         4.87747 
        1.47263         3.57651         2.46558         4.81421 
        1.48494         3.52602         2.41723         4.74639 
        1.49724         3.45604         2.37021         4.68002 
        1.50952         3.43767         2.32454         4.61939 
        1.52178          3.3479         2.28014         4.56147 
        1.53409         3.27923         2.23673         4.49055 
        1.54637         3.23451         2.19454         4.43532 
        1.55858          3.1832         2.15367         4.36901 
        1.57081         3.12436          2.1138         4.32791 
        1.58313         3.06933         2.07468         4.26785 
        1.59544         3.02238         2.03658         4.21945 
        1.60767         2.98387         1.99968           4.162 
        1.61994         2.92251         1.96357          4.1161 
        1.63225          2.8755         1.92828           4.064 
        1.64452         2.82937         1.89395         4.01126 
        1.65676         2.77819         1.86057         3.96568 
          1.669          2.7476         1.82797         3.91855 
        1.68133         2.67712         1.79595         3.87507 
        1.69363         2.67101         1.76478         3.83064 
        1.70585         2.62571         1.73456         3.78269 
        1.71809         2.59247         1.70498          3.7422 
        1.73038         2.54541           1.676         3.69642 
        1.74268         2.49908         1.64768         3.65677 
        1.75493         2.46999         1.62014          3.6164 
        1.76714         2.44072          1.5933          3.5709 
        1.77942         2.40043         1.56694         3.53558 
        1.79173         2.36772          1.5411         3.49273 
        1.80402         2.33174          1.5159         3.45711 
         1.8163         2.31073         1.49128         3.42221 
         1.8286         2.26525         1.46717         3.39033 
         1.8409         2.23234         1.44361         3.35372 
        1.85315         2.20686         1.42064         3.30966 
        1.86537         2.17791         1.39822         3.28299 
        1.87765         2.14703          1.3762         3.24803 
        1.88995         2.11238         1.35461         3.21561 
        1.90221         2.08522         1.33355         3.18119 
        1.91445         2.06199         1.31298         3.15573 
        1.92674         2.04044         1.29277         3.11693 
        1.93902         2.00196         1.27298         3.08254 
        1.95124         1.97393         1.25371         3.05811 
         1.9635         1.95796          1.2348         3.02617 
        1.97583         1.92086         1.21615         2.99755 
        1.98812         1.89908         1.19796         2.96965 
        2.00039         1.87481         1.18018         2.93885 
        2.01264         1.84511         1.16277         2.91774 
        2.02492         1.82839          1.1457         2.88932 
        2.03717         1.80945         1.12899         2.85948 
        2.04942         1.78165         1.11264          2.8317 
        2.06171         1.75664         1.09656         2.80457 
        2.07397          1.7376         1.08083         2.78095 
        2.08629         1.72052         1.06534         2.75909 
        2.09857         1.69773          1.0502         2.73217 
        2.11081         1.67597         1.03541         2.70674 
        2.12309         1.66045         1.02087         2.68575 
        2.13538         1.63443         1.00659         2.66086 
        2.14763         1.62597         0.99263         2.63689 
        2.15986         1.60423        0.978967         2.61696 
        2.17214         1.57512        0.965507         2.58869 
        2.18443         1.56596        0.952286          2.5694 
        2.19671         1.54778         0.93933          2.5483 
        2.20898          1.5283         0.92663         2.52765 
        2.22126          1.5124        0.914151         2.50681 
        2.23354         1.49452        0.901907         2.48523 
         2.2458         1.48397        0.889908         2.46217 
        2.25807          1.4606        0.878116         2.44296 
        2.27035         1.44586        0.866529         2.42506 
        2.28263          1.4249        0.855156         2.40558 
         2.2949         1.41709        0.843993         2.38629 
        2.30718         1.40104        0.833026         2.36815 
        2.31946         1.38092        0.822249         2.34882 
        2.33169         1.37038        0.811709         2.33053 
        2.34393         1.36299        0.801337         2.31303 
        2.35622         1.34167        0.791114         2.29496 
        2.36847         1.33106        0.781097           2.276 
        2.38076         1.31126        0.771224         2.25828 
        2.39305         1.30089        0.761525         2.23932 
        2.40534         1.28956        0.751991         2.22506 
        2.41762         1.27324        0.742623         2.20815 
        2.42989         1.26237        0.733428         2.19277 
        2.44216           1.253        0.724389         2.17558 
         2.4544         1.24213        0.715525         2.16112 
        2.46667         1.22562        0.706787         2.14487 
        2.47897         1.21628        0.698175         2.12733 
        2.49124         1.20177         0.68973         2.11321 
        2.50349         1.19211        0.681438         2.09677 
        2.51578         1.18155        0.673256         2.07999 
        2.52805         1.16674        0.665224         2.06674 
        2.54029         1.16062        0.657342         2.05184 
        2.55257          1.1464        0.649565         2.03722 
        2.56487          1.1362        0.641899         2.02408 
        2.57716          1.1311        0.634367         2.00886 
        2.58942         1.12251        0.626973         1.99548 
        2.60167         1.11212        0.619704         1.98123 
        2.61395         1.09887        0.612539         1.96908 
        2.62624         1.09195        0.605478         1.95505 
        2.63849         1.08312         0.59855         1.94126 
        2.65073         1.07386        0.591738         1.92813 
        2.66302         1.06524        0.585008         1.91523 
         2.6753         1.06268        0.578387         1.90296 
        2.68756         1.05043        0.571882         1.89111 
        2.69983         1.04247        0.565472         1.87809 
        2.71213         1.03262        0.559147         1.86617 
        2.72441         1.02603         0.55293         1.85378 
        2.73665         1.01972        0.546823         1.84332 
         2.7489         1.01212        0.540811         1.83242 
        2.76118         1.00392        0.534872         1.81861 
        2.77349         1.00023        0.529007          1.8074 
        2.78576        0.994771        0.523253         1.79618 
        2.79802        0.988147        0.517588         1.78398 
        2.81031        0.980165        0.511994         1.77347 
        2.82259        0.973267        0.506485         1.76164 
        2.83483        0.970103        0.501077         1.75135 
         2.8471        0.964573        0.495738         1.74022 
         2.8594        0.958929        0.490461          1.7298 
         2.8717        0.955242        0.485262         1.72023 
        2.88396        0.947599        0.480158         1.70954 
        2.89619        0.943732        0.475136         1.69875 
        2.90847        0.938733        0.470168         1.68858 
        2.92072        0.936756        0.465279         1.67892 
        2.93299        0.931651        0.460457         1.66832 
        2.94526        0.930507        0.455699         1.65878 
        2.95753        0.925896        0.451009         1.64939 
        2.96982        0.922448        0.446378         1.63929 
        2.98209        0.919918        0.441821         1.62995 
        2.99436        0.917779        0.437324         1.62053 
        3.00666         0.91674        0.432882         1.61099 
        3.01894        0.913579         0.42851         1.60216 
        3.03119        0.911226        0.424205         1.59279 
        3.04345        0.908484        0.419959         1.58384 
        3.05573        0.907506        0.415762         1.57567 
          3.068        0.905586        0.411627         1.56675 
        3.08026        0.905391        0.407552         1.55755 
        3.09254        0.906014        0.403526         1.54874 
        3.10483        0.906108        0.399552         1.54058 
         3.1171        0.906783        0.395638         1.53224 
        3.12933        0.906297        0.391787         1.52343 
        3.14159        0.905693        0.387979         1.51515 
