# k  (h/Mpc)    Pcb(k)  (Mpc/h)^3    Pcb_linear(k) (Mpc/h)^3    Pcb_NL(k) (Mpc/h)^3   ShotnoiseSubtracted = false
      0.0156606         238.987         239.781         238.687 
      0.0273761         208.636          207.64         207.245 
      0.0384619         158.406         156.533         156.566 
      0.0498308         124.848         123.165         123.279 
      0.0625568         105.417         104.696         104.669 
      0.0751274         89.9289         88.9615         88.8543 
      0.0867833         72.2222         71.6291         71.6192 
      0.0984825         57.6701         56.6882         56.7612 
       0.111151         48.1641         47.3354          47.396 
       0.123864         43.2324         42.6599          42.666 
       0.135742         38.7835         38.3626         38.3516 
        0.14762         33.0686         32.8024         32.8374 
       0.160083         27.5731         27.3431          27.405 
       0.172465         24.0993         23.8655         23.9345 
       0.184281         22.2498         22.0013         22.0625 
       0.196406         20.4164         20.3183         20.3544 
       0.209011         18.2273         18.0782         18.1266 
       0.221538         16.0127         15.7987         15.8787 
       0.233611         14.3239         14.1358         14.2256 
       0.245665         13.3021         13.0468         13.1227 
       0.258103         12.1868         12.1455         12.2176 
       0.270422         11.2983         11.1604         11.2287 
       0.282519         10.2587         10.1287         10.2067 
       0.294636         9.44758         9.22836         9.31201 
       0.306978         8.58787          8.5378         8.62337 
       0.319417         8.09605         7.98236         8.06448 
        0.33169         7.54125         7.45068          7.5289 
       0.343948         7.03298          6.9035         6.98113 
       0.356249         6.46201         6.39034         6.48212 
       0.368458         6.06419         5.96052         6.04016 
        0.38068         5.66751         5.60107          5.6802 
       0.392856         5.34173         5.27295         5.35275 
       0.405069         5.04108         4.95211         5.02669 
       0.417459         4.65916         4.64145          4.7215 
       0.429752          4.4112         4.36258         4.44087 
       0.441978         4.18235         4.11782         4.20167 
       0.454294         3.93362         3.89555         3.97431 
        0.46658         3.75909         3.68701         3.76343 
       0.478753         3.54574         3.49027         3.56578 
       0.490964         3.38112         3.30547         3.38702 
       0.503334         3.21768         3.13489         3.21004 
       0.515665          3.0319         2.97935         3.05904 
       0.527909         2.90756         2.83576         2.90892 
       0.540159         2.75188         2.69991         2.77146 
        0.55248         2.60871         2.57101          2.6386 
       0.564743         2.52169         2.45165           2.526 
        0.57686         2.40538         2.34196         2.41254 
       0.589077         2.27497          2.2384         2.31231 
       0.601441         2.18881         2.13994         2.21169 
        0.61382         2.09493          2.0471         2.11595 
       0.626067         1.99854         1.96047         2.02833 
       0.638306          1.9241         1.87889         1.94537 
       0.650632           1.858         1.80159         1.86935 
       0.662899         1.78394         1.72916           1.794 
       0.675076         1.69576         1.66128         1.72649 
       0.687267         1.62792         1.59696           1.658 
       0.699615         1.58477         1.53524         1.59554 
       0.711937         1.51802         1.47689         1.53959 
       0.724148         1.47175         1.42207         1.48279 
       0.736433         1.40807         1.36976         1.42745 
       0.748747         1.35891         1.32001         1.38104 
       0.761037         1.30673         1.27285         1.33107 
       0.773197         1.26015         1.22847         1.28786 
       0.785376         1.21588         1.18617         1.24367 
       0.797761         1.17532          1.1452         1.20009 
       0.810096         1.14751         1.10633         1.16362 
       0.822371         1.11012         1.06945         1.12348 
       0.834626         1.07538         1.03432         1.08694 
       0.846916         1.04008         1.00069         1.05625 
       0.859215        0.998456        0.968541         1.02385 
       0.871383        0.968937        0.938131        0.990848 
        0.88363        0.939938        0.908853        0.961602 
       0.895928        0.915049        0.880719         0.93209 
       0.908253        0.888595        0.853729        0.904957 
       0.920535        0.862183        0.827967        0.877485 
       0.932774        0.834764        0.803362        0.851286 
        0.94508        0.812729        0.779639        0.827159 
       0.957324        0.791389        0.756994        0.805625 
        0.96953        0.764362        0.735321        0.782741 
       0.981769        0.742655        0.714447         0.75966 
       0.994071        0.723477        0.694288        0.741611 
         1.0064        0.702716        0.674875        0.720193 
        1.01868        0.684787        0.656265        0.701687 
        1.03092        0.669738        0.638443         0.68192 
         1.0432        0.652701        0.621222        0.664487 
        1.05553         0.63222        0.604571        0.648243 
        1.06777         0.61526        0.588654        0.631554 
           1.08        0.603637        0.573329        0.615474 
        1.09227        0.584426        0.558502         0.59974 
         1.1046        0.570486        0.544147        0.585519 
         1.1169        0.556382        0.530323        0.571328 
        1.12915        0.541594         0.51705        0.557275 
        1.14142        0.531904        0.504205        0.544168 
        1.15365        0.518891        0.491837        0.531179 
        1.16585        0.505461        0.479918        0.518332 
        1.17807        0.496508         0.46838        0.507207 
        1.19037        0.479786        0.457148        0.494808 
        1.20276        0.471388        0.446209        0.482687 
        1.21504        0.461977        0.435716        0.473645 
        1.22728        0.453017        0.425604        0.461528 
        1.23954         0.44145        0.415791        0.452288 
        1.25184        0.433845         0.40627        0.441739 
        1.26414        0.423719        0.397043        0.432233 
        1.27632        0.411342        0.388187        0.422517 
         1.2886        0.401356        0.379539         0.41316 
        1.30093        0.393057        0.371125        0.405634 
        1.31316        0.383251        0.363028        0.396534 
        1.32541        0.376184        0.355171        0.388824 
        1.33772        0.369002        0.347505        0.380692 
        1.35005        0.363543         0.34006        0.372956 
        1.36225        0.355509        0.332909         0.36509 
        1.37447        0.348773        0.325951        0.358314 
        1.38676        0.342343        0.319161        0.350689 
        1.39907        0.335107        0.312553        0.343821 
        1.41133        0.327118        0.306161        0.337349 
        1.42358        0.322584        0.299955        0.330119 
        1.43591        0.316248        0.293878        0.324339 
        1.44818         0.30979        0.288004        0.318472 
        1.46037        0.303841        0.282325        0.311788 
        1.47263        0.297889        0.276768        0.306235 
        1.48494        0.292279         0.27134        0.300896 
        1.49724        0.286846        0.266062        0.295359 
        1.50952        0.281056        0.260936        0.288921 
        1.52178        0.276584        0.255952        0.283895 
        1.53409        0.272137        0.251079        0.279065 
        1.54637        0.266106        0.246343        0.273739 
        1.55858        0.262131        0.241756        0.268859 
        1.57081        0.257495         0.23728        0.264012 
        1.58313         0.25369        0.232889        0.259526 
        1.59544        0.249462        0.228612        0.254893 
        1.60767        0.245088         0.22447        0.250528 
        1.61994        0.239584        0.220416        0.246569 
        1.63225        0.235193        0.216455        0.242271 
        1.64452        0.232694        0.212602        0.237941 
        1.65676        0.229381        0.208854         0.23406 
          1.669        0.225558        0.205195        0.230041 
        1.68133        0.221035          0.2016        0.226296 
        1.69363        0.217205        0.198102        0.222789 
        1.70585        0.213651        0.194709        0.218707 
        1.71809        0.210252        0.191389        0.215278 
        1.73038        0.207455        0.188136        0.212005 
        1.74268        0.203136        0.184956        0.208203 
        1.75493        0.201955        0.181865        0.205306 
        1.76714        0.197756        0.178853        0.202043 
        1.77942        0.195366        0.175893         0.19889 
        1.79173        0.192414        0.172993        0.195388 
        1.80402        0.188898        0.170164         0.19274 
         1.8163        0.186433        0.167401         0.18918 
         1.8286        0.183499        0.164694        0.186917 
         1.8409        0.180585        0.162049        0.183728 
        1.85315        0.178615        0.159471        0.180972 
        1.86537        0.174764        0.156954        0.178187 
        1.87765        0.172394        0.154483        0.175749 
        1.88995         0.17103        0.152059        0.173099 
        1.90221        0.168804        0.149695        0.170473 
        1.91445        0.165375        0.147385        0.168075 
        1.92674         0.16308        0.145116        0.165499 
        1.93902         0.16067        0.142895        0.163047 
        1.95124        0.158341        0.140733        0.160681 
         1.9635         0.15634        0.138609        0.158353 
        1.97583        0.154661        0.136516        0.156131 
        1.98812        0.152251        0.134474         0.15391 
        2.00039        0.150925        0.132478        0.151726 
        2.01264        0.148541        0.130525        0.149687 
        2.02492        0.147166        0.128608        0.147517 
        2.03717        0.144334        0.126732        0.145463 
        2.04942        0.142906        0.124897        0.143467 
        2.06171        0.140813        0.123092        0.141442 
        2.07397        0.138633        0.121326        0.139585 
        2.08629        0.137212        0.119588         0.13765 
        2.09857        0.135652        0.117888        0.135812 
        2.11081        0.134105        0.116227        0.133785 
        2.12309        0.131888        0.114595        0.132245 
        2.13538        0.130544        0.112992        0.130422 
        2.14763        0.129067        0.111425        0.128751 
        2.15986        0.127259        0.109892         0.12711 
        2.17214        0.125756        0.108381        0.125398 
        2.18443         0.12474        0.106897        0.123829 
        2.19671        0.122861        0.105442        0.122267 
        2.20898        0.121663        0.104017        0.120612 
        2.22126        0.119856        0.102616        0.119148 
        2.23354        0.118455        0.101241        0.117642 
         2.2458        0.117367       0.0998946        0.115942 
        2.25807        0.116072        0.098571        0.114645 
        2.27035        0.114632       0.0972702        0.113252 
        2.28263        0.113247       0.0959936        0.111851 
         2.2949        0.112248       0.0947405        0.110262 
        2.30718        0.110703       0.0935095        0.109004 
        2.31946        0.109835       0.0922997        0.107707 
        2.33169        0.108119       0.0911165        0.106392 
        2.34393        0.107612       0.0899523        0.105173 
        2.35622          0.1064       0.0888047        0.103876 
        2.36847        0.105302       0.0876803         0.10265 
        2.38076        0.103993        0.086572        0.101438 
        2.39305        0.103148       0.0854832        0.100185 
        2.40534        0.101882       0.0844131       0.0989594 
        2.41762        0.100828       0.0833614       0.0977977 
        2.42989       0.0998432       0.0823293        0.096629 
        2.44216       0.0989455       0.0813147       0.0955771 
         2.4544       0.0978722       0.0803196       0.0944826 
        2.46667        0.096838       0.0793388       0.0933523 
        2.47897       0.0955513       0.0783721       0.0922232 
        2.49124       0.0949909       0.0774241       0.0912041 
        2.50349       0.0939381       0.0764933       0.0901029 
        2.51578       0.0928791       0.0755749        0.089057 
        2.52805       0.0925454       0.0746732       0.0881124 
        2.54029       0.0914521       0.0737885       0.0871709 
        2.55257       0.0907777       0.0729155       0.0861913 
        2.56487       0.0899132       0.0720549       0.0852191 
        2.57716       0.0892381       0.0712094       0.0842393 
        2.58942       0.0881822       0.0703794       0.0833039 
        2.60167       0.0872973       0.0695635       0.0824115 
        2.61395       0.0865959       0.0687592       0.0814651 
        2.62624       0.0862565       0.0679665       0.0806425 
        2.63849       0.0851575       0.0671889        0.079745 
        2.65073       0.0844614       0.0664242       0.0789109 
        2.66302       0.0839391       0.0656688       0.0780037 
         2.6753       0.0832408       0.0649255       0.0771766 
        2.68756       0.0827797       0.0641953       0.0763768 
        2.69983       0.0817998       0.0634758       0.0754961 
        2.71213       0.0811761       0.0627658       0.0747411 
        2.72441       0.0805526        0.062068       0.0739753 
        2.73665       0.0798252       0.0613824       0.0732163 
         2.7489       0.0795589       0.0607076       0.0724626 
        2.76118       0.0788935       0.0600408       0.0716743 
        2.77349       0.0782197       0.0593825       0.0709786 
        2.78576       0.0778608       0.0587366        0.070281 
        2.79802       0.0771293       0.0581007       0.0694504 
        2.81031       0.0765107       0.0574728        0.068769 
        2.82259       0.0760053       0.0568543       0.0681061 
        2.83483       0.0756088       0.0562473         0.06736 
         2.8471       0.0750859        0.055648        0.066747 
         2.8594       0.0749359       0.0550556       0.0661027 
         2.8717       0.0741545        0.054472       0.0653785 
        2.88396       0.0738599       0.0538991       0.0647436 
        2.89619       0.0732916       0.0533354       0.0641205 
        2.90847        0.072884       0.0527776        0.063459 
        2.92072       0.0723651       0.0522288       0.0628291 
        2.93299       0.0720585       0.0516875       0.0622244 
        2.94526       0.0717749       0.0511534       0.0616186 
        2.95753         0.07122        0.050627       0.0609995 
        2.96982       0.0709647       0.0501072       0.0603821 
        2.98209       0.0703547       0.0495956       0.0598192 
        2.99436       0.0702725       0.0490908       0.0592745 
        3.00666       0.0699538       0.0485922       0.0586488 
        3.01894       0.0696886       0.0481014       0.0581048 
        3.03119       0.0694767       0.0476182       0.0575825 
        3.04345       0.0689983       0.0471415       0.0570351 
        3.05573       0.0690673       0.0466704       0.0564855 
          3.068       0.0687113       0.0462063       0.0559525 
        3.08026       0.0684328       0.0457489       0.0554583 
        3.09254       0.0683372       0.0452969       0.0549317 
        3.10483       0.0680926       0.0448509       0.0544223 
         3.1171       0.0680131       0.0444115       0.0539114 
        3.12933       0.0676865       0.0439792       0.0533716 
        3.14159       0.0674089       0.0435517        0.052915 
