# k  (h/Mpc)    Pcb(k)  (Mpc/h)^3    Pcb_linear(k) (Mpc/h)^3    Pcb_NL(k) (Mpc/h)^3   ShotnoiseSubtracted = false
      0.0156606         88.6619         89.8112          89.399 
      0.0273761         77.4553         77.7983         77.6445 
      0.0384619         58.7929         58.6544         58.6563 
      0.0498308         46.3678         46.1523         46.1872 
      0.0625568         39.1596         39.2322         39.2175 
      0.0751274         33.3319         33.3362         33.2868 
      0.0867833         26.8241         26.8415         26.8373 
      0.0984825         21.3861         21.2428          21.278 
       0.111151         17.8533          17.738         17.7689 
       0.123864         16.0305         15.9859         15.9964 
       0.135742         14.3806         14.3756         14.3805 
        0.14762         12.2807         12.2921         12.3226 
       0.160083         10.2477         10.2463         10.2879 
       0.172465         8.95735         8.94318         8.99111 
       0.184281         8.26041         8.24459         8.29183 
       0.196406         7.58774         7.61389         7.64638 
       0.209011          6.7683         6.77447         6.81406 
       0.221538         5.93362         5.92029         5.97956 
       0.233611         5.31744         5.29714         5.36304 
       0.245665         4.92482         4.88907         4.94634 
       0.258103         4.53463         4.55131         4.60726 
       0.270422          4.1928         4.18214         4.23554 
       0.282519          3.8065         3.79554         3.85465 
       0.294636          3.4933         3.45817         3.52081 
       0.306978         3.19582         3.19939         3.26368 
       0.319417         3.00624         2.99125         3.05341 
        0.33169         2.80283         2.79201         2.85167 
       0.343948         2.60623         2.58696         2.64624 
       0.356249         2.40103         2.39467          2.4632 
       0.368458         2.24629          2.2336         2.29391 
        0.38068         2.10666          2.0989         2.15891 
       0.392856         1.98338         1.97594          2.0365 
       0.405069         1.87258         1.85571         1.91275 
       0.417459         1.73608          1.7393         1.79961 
       0.429752         1.64038          1.6348         1.69403 
       0.441978         1.55315         1.54308         1.60597 
       0.454294          1.4658         1.45979          1.5191 
        0.46658         1.39444         1.38164         1.43949 
       0.478753         1.32022         1.30792         1.36532 
       0.490964         1.25485         1.23867         1.29973 
       0.503334         1.19282         1.17475         1.23169 
       0.515665         1.12781         1.11646         1.17651 
       0.527909         1.08065         1.06265         1.11795 
       0.540159         1.02464         1.01174         1.06606 
        0.55248        0.972008        0.963441          1.0153 
       0.564743        0.936191        0.918714        0.974598 
        0.57686        0.893052        0.877607        0.931171 
       0.589077        0.847892        0.838802        0.894317 
       0.601441        0.817138        0.801904        0.856082 
        0.61382        0.780636        0.767114        0.819236 
       0.626067        0.745824         0.73465        0.786217 
       0.638306        0.717298        0.704079        0.754559 
       0.650632        0.690197        0.675115        0.726382 
       0.662899        0.664049        0.647972        0.697382 
       0.675076        0.632516        0.622535        0.671829 
       0.687267        0.608113        0.598432        0.645206 
       0.699615        0.590023        0.575303        0.621586 
       0.711937        0.566328        0.553439        0.600884 
       0.724148         0.54842        0.532896        0.579226 
       0.736433        0.526266        0.513294        0.557703 
       0.748747        0.507537         0.49465        0.540724 
       0.761037        0.488481        0.476976        0.521515 
       0.773197        0.472129        0.460349         0.50548 
       0.785376        0.454694        0.444496        0.488348 
       0.797761        0.440215        0.429144        0.471401 
       0.810096        0.428838        0.414578        0.458271 
       0.822371         0.41473        0.400759        0.442446 
       0.834626        0.401579        0.387595        0.428427 
       0.846916        0.389089        0.374991        0.416965 
       0.859215        0.373849        0.362944        0.404796 
       0.871383        0.363943        0.351548        0.392217 
        0.88363        0.352317        0.340577         0.38092 
       0.895928        0.343273        0.330034        0.369469 
       0.908253        0.333118         0.31992        0.359123 
       0.920535        0.323483        0.310266         0.34841 
       0.932774        0.313968        0.301046        0.338055 
        0.94508        0.305007        0.292156        0.329123 
       0.957324        0.296968         0.28367        0.321108 
        0.96953        0.287218        0.275549        0.312253 
       0.981769        0.279486        0.267727        0.303071 
       0.994071        0.272466        0.260172        0.296393 
         1.0064        0.264617        0.252898         0.28817 
        1.01868        0.258197        0.245924        0.280873 
        1.03092         0.25223        0.239245        0.273142 
         1.0432        0.246074        0.232792         0.26655 
        1.05553         0.23873        0.226552         0.26041 
        1.06777        0.232192        0.220588        0.254106 
           1.08        0.227584        0.214845        0.247659 
        1.09227        0.221119        0.209289        0.241529 
         1.1046         0.21575        0.203909        0.236205 
         1.1169        0.210443        0.198729         0.23057 
        1.12915        0.204843        0.193755        0.225211 
        1.14142        0.201364        0.188942        0.219998 
        1.15365         0.19652        0.184307        0.215178 
        1.16585         0.19151        0.179841        0.210123 
        1.17807        0.187986        0.175517        0.205769 
        1.19037        0.182626        0.171308         0.20089 
        1.20276        0.179403        0.167209        0.196126 
        1.21504        0.175255        0.163277        0.192794 
        1.22728        0.171848        0.159488        0.187899 
        1.23954        0.168136         0.15581         0.18463 
        1.25184        0.164704        0.152242        0.180225 
        1.26414        0.161092        0.148785        0.176411 
        1.27632        0.156832        0.145466        0.172912 
         1.2886        0.153292        0.142225        0.169052 
        1.30093        0.150233        0.139072        0.166249 
        1.31316        0.146698        0.136038        0.162666 
        1.32541         0.14403        0.133094        0.159653 
        1.33772        0.141263        0.130221         0.15649 
        1.35005        0.139076        0.127431         0.15352 
        1.36225        0.136146        0.124752        0.150325 
        1.37447         0.13352        0.122145         0.14776 
        1.38676        0.131292          0.1196        0.144647 
        1.39907        0.128822        0.117124        0.142132 
        1.41133         0.12582        0.114729        0.139458 
        1.42358        0.123721        0.112403         0.13655 
        1.43591        0.121704        0.110126        0.134604 
        1.44818        0.119301        0.107924        0.132167 
        1.46037        0.116979        0.105796        0.129444 
        1.47263        0.114899        0.103714        0.127341 
        1.48494        0.112631         0.10168        0.125186 
        1.49724        0.110482       0.0997022        0.123008 
        1.50952        0.108713       0.0977811        0.120428 
        1.52178        0.106966       0.0959135        0.118517 
        1.53409         0.10542       0.0940874        0.116527 
        1.54637        0.103387       0.0923126        0.114416 
        1.55858        0.101344       0.0905938        0.112533 
        1.57081       0.0998015       0.0889164        0.110544 
        1.58313       0.0983779        0.087271        0.108941 
        1.59544       0.0969861       0.0856683        0.106987 
        1.60767       0.0954242       0.0841162        0.105266 
        1.61994       0.0933653       0.0825972        0.103704 
        1.63225        0.091589       0.0811126         0.10206 
        1.64452       0.0905917       0.0796687        0.100275 
        1.65676       0.0894722       0.0782645       0.0987514 
          1.669       0.0880163       0.0768932       0.0970909 
        1.68133       0.0863283        0.075546       0.0956933 
        1.69363       0.0848562       0.0742351       0.0941934 
        1.70585       0.0836273       0.0729637       0.0927416 
        1.71809       0.0823415       0.0717196         0.09128 
        1.73038       0.0811588       0.0705006       0.0899364 
        1.74268       0.0795654       0.0693092       0.0884611 
        1.75493        0.079021       0.0681508       0.0873352 
        1.76714       0.0776537       0.0670219       0.0859656 
        1.77942        0.076731       0.0659129       0.0847139 
        1.79173       0.0757037       0.0648261       0.0833242 
        1.80402       0.0744388       0.0637661       0.0821954 
         1.8163       0.0733883       0.0627305       0.0808197 
         1.8286       0.0723072       0.0617161       0.0799994 
         1.8409       0.0711345        0.060725       0.0786741 
        1.85315       0.0704562        0.059759       0.0775415 
        1.86537       0.0690575       0.0588159       0.0764796 
        1.87765       0.0683557       0.0578897       0.0753895 
        1.88995       0.0675474       0.0569813       0.0744224 
        1.90221       0.0667911       0.0560955       0.0733239 
        1.91445       0.0655936       0.0552301       0.0723607 
        1.92674       0.0648631       0.0543799       0.0713757 
        1.93902       0.0638681       0.0535476       0.0703237 
        1.95124       0.0631469       0.0527371       0.0693858 
         1.9635       0.0622355       0.0519414       0.0684299 
        1.97583       0.0616142        0.051157       0.0674824 
        1.98812       0.0607174       0.0503919       0.0667471 
        2.00039       0.0600326       0.0496439       0.0657504 
        2.01264       0.0592746       0.0489118        0.064942 
        2.02492       0.0587198       0.0481935       0.0640931 
        2.03717       0.0577138       0.0474908       0.0632691 
        2.04942        0.057287        0.046803       0.0624145 
        2.06171       0.0564003       0.0461265       0.0616152 
        2.07397       0.0555943       0.0454648       0.0608713 
        2.08629       0.0549912       0.0448134       0.0600657 
        2.09857       0.0544446       0.0441763       0.0593349 
        2.11081       0.0538864       0.0435542       0.0585033 
        2.12309       0.0530865       0.0429427       0.0579093 
        2.13538       0.0525904       0.0423419       0.0571365 
        2.14763       0.0520046       0.0417547       0.0564708 
        2.15986       0.0514548         0.04118       0.0558075 
        2.17214       0.0507502       0.0406138       0.0550967 
        2.18443       0.0503862       0.0400577        0.054406 
        2.19671       0.0496761       0.0395127       0.0538159 
        2.20898        0.049272       0.0389785       0.0531159 
        2.22126       0.0485079       0.0384536       0.0525341 
        2.23354       0.0480765       0.0379385       0.0519469 
         2.2458       0.0475848       0.0374338       0.0512022 
        2.25807       0.0470339       0.0369378       0.0507144 
        2.27035       0.0466326       0.0364503       0.0501044 
        2.28263       0.0460116       0.0359719       0.0495556 
         2.2949       0.0456573       0.0355024       0.0489366 
        2.30718       0.0451588       0.0350411       0.0484014 
        2.31946       0.0447693       0.0345877       0.0478697 
        2.33169       0.0440417       0.0341443       0.0473059 
        2.34393        0.043988       0.0337081       0.0468305 
        2.35622       0.0433644        0.033278       0.0462502 
        2.36847       0.0430802       0.0328567       0.0457535 
        2.38076       0.0424904       0.0324414       0.0452597 
        2.39305       0.0423024       0.0320334       0.0447598 
        2.40534       0.0418073       0.0316324       0.0442791 
        2.41762       0.0413396       0.0312383       0.0437889 
        2.42989       0.0409735       0.0308515       0.0432952 
        2.44216       0.0406479       0.0304713       0.0428527 
         2.4544       0.0402295       0.0300984       0.0424127 
        2.46667       0.0399637       0.0297309       0.0419206 
        2.47897       0.0394085       0.0293686        0.041484 
        2.49124       0.0391316       0.0290134       0.0410516 
        2.50349       0.0387305       0.0286645       0.0406054 
        2.51578       0.0383876       0.0283204       0.0401803 
        2.52805       0.0382124       0.0279825       0.0397764 
        2.54029       0.0377422        0.027651       0.0393771 
        2.55257        0.037449       0.0273238       0.0389844 
        2.56487       0.0371738       0.0270013       0.0385777 
        2.57716       0.0369736       0.0266845       0.0381778 
        2.58942       0.0365176       0.0263735       0.0377748 
        2.60167       0.0361981       0.0260677       0.0373986 
        2.61395       0.0359402       0.0257663       0.0370394 
        2.62624        0.035818       0.0254693       0.0366726 
        2.63849       0.0354172       0.0251779       0.0363067 
        2.65073       0.0350295       0.0248913       0.0359363 
        2.66302       0.0349048       0.0246082       0.0355761 
         2.6753       0.0346282       0.0243297       0.0352337 
        2.68756       0.0344567       0.0240561       0.0348973 
        2.69983       0.0341059       0.0237865       0.0345139 
        2.71213       0.0338583       0.0235204       0.0342118 
        2.72441       0.0335522       0.0232589        0.033905 
        2.73665       0.0333945        0.023002       0.0335701 
         2.7489       0.0331475       0.0227491       0.0332467 
        2.76118       0.0329816       0.0224993       0.0329331 
        2.77349       0.0326435       0.0222526       0.0326348 
        2.78576       0.0325376       0.0220105       0.0323412 
        2.79802       0.0323131       0.0217722       0.0319838 
        2.81031       0.0320718       0.0215369       0.0317199 
        2.82259       0.0317785       0.0213052       0.0314087 
        2.83483        0.031528       0.0210777       0.0311062 
         2.8471       0.0314756       0.0208531       0.0308629 
         2.8594       0.0312639       0.0206311       0.0305827 
         2.8717       0.0310335       0.0204124       0.0302845 
        2.88396       0.0309724       0.0201977       0.0300245 
        2.89619       0.0307054       0.0199865       0.0297624 
        2.90847        0.030589       0.0197775       0.0294917 
        2.92072       0.0303689       0.0195718       0.0292069 
        2.93299       0.0301965        0.019369       0.0289455 
        2.94526       0.0300894       0.0191689       0.0287045 
        2.95753       0.0298695       0.0189716       0.0284523 
        2.96982       0.0297333       0.0187768       0.0281843 
        2.98209       0.0295404       0.0185851       0.0279312 
        2.99436        0.029474       0.0183959       0.0276881 
        3.00666       0.0293187       0.0182091       0.0274444 
        3.01894       0.0292484       0.0180252       0.0272236 
        3.03119       0.0291249       0.0178441       0.0269881 
        3.04345       0.0289727       0.0176655       0.0267578 
        3.05573       0.0289212       0.0174889       0.0265366 
          3.068       0.0287384        0.017315       0.0262947 
        3.08026       0.0286315       0.0171436       0.0260801 
        3.09254       0.0285843       0.0169742        0.025864 
        3.10483       0.0284895       0.0168071       0.0256485 
         3.1171        0.028444       0.0166424       0.0254235 
        3.12933       0.0282246       0.0164804       0.0251912 
        3.14159        0.028133       0.0163203       0.0250052 
