# k  (h/Mpc)    P(k)  (Mpc/h)^3    P_linear(k)  (Mpc/h)^3     P_NL(k)  ShotnoiseSubtracted = false
      0.0156606           13789           13704         13613.4 
      0.0273761           11853         11831.1         11742.8 
      0.0384619          8978.9         8906.62         8835.36 
      0.0498308         6962.61         7002.35         6933.16 
      0.0625568         5876.24         5949.18          5885.4 
      0.0751274         5195.06         5053.42          4961.6 
      0.0867833         4047.64         4068.02         4042.31 
      0.0984825         3375.46         3219.01         3250.51 
       0.111151         2865.26         2687.61         2722.79 
       0.123864         2570.83         2421.94         2451.11 
       0.135742         2330.17         2177.83         2207.63 
        0.14762         2011.57          1862.1         1939.62 
       0.160083         1685.44         1552.12          1644.3 
       0.172465         1502.51         1354.67         1470.67 
       0.184281          1376.9         1248.83         1367.91 
       0.196406         1274.82         1153.27         1254.98 
       0.209011         1178.75          1026.1         1133.59 
       0.221538         1063.26         896.707         1044.64 
       0.233611         998.247         802.313         968.695 
       0.245665         916.673         740.499         891.714 
       0.258103         879.135         689.336         839.388 
       0.270422         793.989         633.416         783.699 
       0.282519         736.691         574.857          733.08 
       0.294636         729.901         523.756         689.477 
       0.306978         654.414          484.56          656.45 
       0.319417         632.659         453.034         617.714 
        0.33169         596.023         422.858         582.034 
       0.343948         568.039         391.801         560.229 
       0.356249         533.421         362.676         536.496 
       0.368458         517.474          338.28         507.658 
        0.38068         498.411         317.882         485.578 
       0.392856         469.037         299.258         466.129 
       0.405069         449.675         281.047         451.133 
       0.417459         430.705         263.417         429.198 
       0.429752          418.35          247.59         413.491 
       0.441978         404.702         233.698         401.268 
       0.454294         381.673         221.083         383.419 
        0.46658         376.229         209.247         373.527 
       0.478753         363.025         198.081         360.703 
       0.490964         350.173         187.593          348.47 
       0.503334         330.599         177.913         338.882 
       0.515665         328.727         169.085         331.356 
       0.527909         317.574         160.936         321.138 
       0.540159         309.297         153.225         311.991 
        0.55248         303.245          145.91         303.105 
       0.564743         297.321         139.136         297.009 
        0.57686         286.048         132.911          288.06 
       0.589077         275.435         127.034         281.795 
       0.601441         272.187         121.446         275.165 
        0.61382         268.345         116.177         269.224 
       0.626067         262.845          111.26         263.095 
       0.638306         250.837          106.63         257.999 
       0.650632         245.613         102.243         250.184 
       0.662899         244.336         98.1328         246.547 
       0.675076         235.084         94.2803         241.387 
       0.687267         229.153         90.6299         235.986 
       0.699615         225.273         87.1271         231.582 
       0.711937         220.928         83.8158         227.268 
       0.724148         215.388         80.7047         223.858 
       0.736433         210.693         77.7361         219.013 
       0.748747         206.598         74.9124         214.704 
       0.761037         203.288         72.2358          210.81 
       0.773197          199.84         69.7177         208.225 
       0.785376         197.459         67.3168         203.967 
       0.797761         192.788         64.9917          201.25 
       0.810096         189.593         62.7857         197.863 
       0.822371         182.608         60.6929         194.567 
       0.834626         181.589         58.6993         191.403 
       0.846916         178.592         56.7905         188.613 
       0.859215         177.592          54.966         185.744 
       0.871383         173.132         53.2401         182.698 
        0.88363         170.998         51.5785         180.723 
       0.895928         167.231         49.9819         178.049 
       0.908253         162.628         48.4502         174.908 
       0.920535         162.068         46.9881         172.615 
       0.932774         156.696         45.5918          170.01 
        0.94508         155.468         44.2454         168.123 
       0.957324         154.775         42.9603         165.585 
        0.96953         152.986         41.7304         163.022 
       0.981769         148.233         40.5457         161.572 
       0.994071         147.513         39.4016          159.37 
         1.0064         143.913         38.2999         156.952 
        1.01868         142.189         37.2438         155.238 
        1.03092          139.89         36.2324         153.451 
         1.0432         137.246          35.255         151.486 
        1.05553         134.707         34.3101         149.823 
        1.06777         134.474         33.4068         148.243 
           1.08         131.407         32.5371         146.255 
        1.09227          129.96         31.6956         144.775 
         1.1046         127.743         30.8809         143.016 
         1.1169         126.145         30.0964         141.088 
        1.12915         124.096         29.3432         139.643 
        1.14142         122.192         28.6142         137.849 
        1.15365         120.367         27.9123          136.38 
        1.16585          118.71         27.2358         134.662 
        1.17807         116.892         26.5811         133.666 
        1.19037          116.45         25.9436          132.24 
        1.20276         113.941         25.3228         130.635 
        1.21504         112.761         24.7273         129.186 
        1.22728         110.453         24.1535         127.731 
        1.23954         109.714         23.5966         126.513 
        1.25184         107.366         23.0562         125.166 
        1.26414          106.06         22.5326          123.89 
        1.27632         105.302           22.03         123.226 
         1.2886         103.339         21.5392         121.394 
        1.30093         101.179         21.0617         120.092 
        1.31316         100.732         20.6022         118.967 
        1.32541         99.3116         20.1563         117.989 
        1.33772         98.1174         19.7212         116.743 
        1.35005         96.9656         19.2987         115.491 
        1.36225         95.6906         18.8929         114.437 
        1.37447         93.7216         18.4981         113.201 
        1.38676         93.4142         18.1127         111.972 
        1.39907         91.3104         17.7377         111.089 
        1.41133         90.0145          17.375           110.2 
        1.42358          88.939         17.0227         109.006 
        1.43591         88.3407         16.6779         107.866 
        1.44818         87.2516         16.3445         106.944 
        1.46037         85.7558         16.0222         105.952 
        1.47263         84.3869         15.7069         105.128 
        1.48494         83.8254         15.3988         104.044 
        1.49724         82.3728         15.0993          102.94 
        1.50952          81.247         14.8084         102.034 
        1.52178         80.3716         14.5255         101.173 
        1.53409         79.6334          14.249         100.285 
        1.54637         77.7747         13.9802         99.3425 
        1.55858         77.0362         13.7199         98.4112 
        1.57081         76.0325         13.4658         97.5923 
        1.58313          74.989         13.2167          96.736 
        1.59544         74.1895         12.9739         95.8369 
        1.60767          73.176         12.7389         94.9808 
        1.61994         72.2211         12.5088         94.3609 
        1.63225         71.1169          12.284         93.2393 
        1.64452         70.2568         12.0653         92.5474 
        1.65676         69.2111         11.8527         91.7195 
          1.669         68.7256          11.645         90.9797 
        1.68133         67.9217          11.441         90.1382 
        1.69363         66.9131         11.2424         89.4699 
        1.70585         66.2412         11.0499         88.6321 
        1.71809         64.9507         10.8615         88.0032 
        1.73038         64.2434         10.6769         87.1345 
        1.74268         63.3181         10.4964         86.4523 
        1.75493         62.7723          10.321         85.6767 
        1.76714         61.7902         10.1501         84.9528 
        1.77942         61.4324         9.98209         84.2451 
        1.79173         60.3533         9.81751         83.4978 
        1.80402           59.69         9.65698         82.8964 
         1.8163         58.9622         9.50014         82.0857 
         1.8286          58.079         9.34651         81.5544 
         1.8409         57.1967         9.19641            80.8 
        1.85315          56.461         9.05012         80.2685 
        1.86537         55.9031          8.9073         79.5412 
        1.87765         55.2026         8.76704         78.7786 
        1.88995         54.5081         8.62946         78.2105 
        1.90221         54.0049         8.49532         77.5634 
        1.91445         53.0672         8.36424         76.9877 
        1.92674          52.571         8.23549         76.3513 
        1.93902           51.91         8.10944         75.6848 
        1.95124         51.5054          7.9867         75.1982 
         1.9635         50.5231         7.86619          74.477 
        1.97583         50.0304         7.74741         73.9896 
        1.98812          49.349         7.63153         73.3295 
        2.00039         48.8049         7.51826         72.7502 
        2.01264         48.0813         7.40739         72.1901 
        2.02492         47.5325          7.2986         71.6488 
        2.03717          46.896         7.19217         71.0155 
        2.04942         46.2894         7.08801          70.534 
        2.06171         45.7236         6.98556         69.9061 
        2.07397         45.1003         6.88536         69.4342 
        2.08629         44.6045         6.78671         68.8263 
        2.09857         44.2293         6.69022         68.3533 
        2.11081         43.3157         6.59601         67.7584 
        2.12309          42.989         6.50339         67.2641 
        2.13538         42.4668         6.41242          66.757 
        2.14763          42.051         6.32349         66.2502 
        2.15986         41.6305         6.23645         65.7231 
        2.17214         40.9133          6.1507         65.2956 
        2.18443         40.7081         6.06648         64.7392 
        2.19671         39.9457         5.98394         64.2162 
        2.20898         39.5767         5.90304         63.7286 
        2.22126         39.1267         5.82355          63.236 
        2.23354         38.5969         5.74554         62.8188 
         2.2458          38.257          5.6691         62.3383 
        2.25807         37.7796         5.59399         61.8295 
        2.27035         37.3023         5.52017         61.3784 
        2.28263         36.8204         5.44772         60.9197 
         2.2949         36.3118         5.37661         60.4813 
        2.30718         36.0053         5.30674         60.0408 
        2.31946         35.4936         5.23809         59.6123 
        2.33169         35.1454         5.17094         59.1446 
        2.34393          34.606         5.10487         58.6941 
        2.35622         34.3017         5.03974         58.2797 
        2.36847         33.8615         4.97593         57.8355 
        2.38076         33.6381         4.91304         57.4402 
        2.39305         33.2043         4.85125         57.0232 
        2.40534         32.8372         4.79052         56.5384 
        2.41762         32.4466         4.73083         56.1347 
        2.42989         31.9859         4.67226         55.7722 
        2.44216         31.7537         4.61468         55.3498 
         2.4544         31.4524         4.55821         54.9663 
        2.46667         30.8962         4.50255         54.5301 
        2.47897         30.6738         4.44768         54.1617 
        2.49124         30.2946         4.39389         53.7634 
        2.50349         29.9365         4.34106         53.4062 
        2.51578         29.5974         4.28894         53.0324 
        2.52805         29.4087         4.23777         52.6269 
        2.54029         29.1331         4.18756         52.2637 
        2.55257          28.745         4.13801         51.9028 
        2.56487          28.455         4.08918         51.5356 
        2.57716         28.1841          4.0412         51.1937 
        2.58942          27.801         3.99409         50.8241 
        2.60167         27.4822         3.94778         50.4299 
        2.61395         27.2465         3.90214         50.0971 
        2.62624         26.9993         3.85716          49.753 
        2.63849          26.769         3.81303         49.4032 
        2.65073         26.4546         3.76963         49.0372 
        2.66302         26.1461         3.72676         48.7247 
         2.6753         25.8941         3.68458         48.3839 
        2.68756         25.6035         3.64314         48.0474 
        2.69983         25.4111         3.60231         47.7171 
        2.71213         25.0559         3.56201         47.4021 
        2.72441         24.9621         3.52241         47.0523 
        2.73665         24.6918          3.4835         46.7343 
         2.7489         24.5162         3.44521         46.4226 
        2.76118         24.2664         3.40737         46.0833 
        2.77349         24.0611         3.37001         45.7964 
        2.78576         23.8811         3.33335         45.4763 
        2.79802         23.5778         3.29726         45.1665 
        2.81031         23.4077         3.26163         44.8781 
        2.82259         23.2245         3.22653         44.5592 
        2.83483         22.9789         3.19208         44.2542 
         2.8471         22.8715         3.15807         43.9627 
         2.8594         22.6241         3.12445         43.6842 
         2.8717         22.3976         3.09133         43.3816 
        2.88396         22.3179         3.05882          43.078 
        2.89619         22.1661         3.02683          42.797 
        2.90847         21.9893         2.99518         42.5091 
        2.92072         21.8427         2.96403         42.2446 
        2.93299         21.7508         2.93331         41.9542 
        2.94526          21.593           2.903          41.684 
        2.95753          21.408         2.87313         41.4238 
        2.96982         21.3944         2.84362         41.1475 
        2.98209          21.184          2.8146         40.8797 
        2.99436         21.0789         2.78595         40.6149 
        3.00666         20.9586         2.75765         40.3476 
        3.01894         20.8973          2.7298         40.0712 
        3.03119           20.72         2.70237         39.8053 
        3.04345         20.6272         2.67532         39.5572 
        3.05573         20.5551         2.64859         39.3087 
          3.068         20.5244         2.62224         39.0467 
        3.08026         20.5044         2.59629         38.7928 
        3.09254         20.3743         2.57064         38.5541 
        3.10483          20.374         2.54533         38.3133 
         3.1171         20.2845         2.52039         38.0662 
        3.12933         20.2773         2.49586         37.8229 
        3.14159         20.2585          2.4716         37.5775 
