# k  (h/Mpc)    Pcb(k)  (Mpc/h)^3    Pcb_linear(k) (Mpc/h)^3    Pcb_NL(k) (Mpc/h)^3   ShotnoiseSubtracted = false
      0.0156606         5076.67         5083.35         5056.56 
      0.0273761         4399.66         4397.66         4381.38 
      0.0384619          3342.9         3314.02         3305.38 
      0.0498308         2612.79         2607.08          2600.3 
      0.0625568         2204.55          2215.9          2208.2 
      0.0751274         1921.25         1882.75         1870.28 
      0.0867833         1515.37         1515.87         1513.61 
      0.0984825         1238.28         1199.65         1206.47 
       0.111151         1040.49          1001.7         1008.55 
       0.123864         934.786         902.748         908.381 
       0.135742          841.67         811.803          817.56 
        0.14762         717.158         694.137         707.733 
       0.160083         595.452         578.606         594.043 
       0.172465         527.293         505.015         523.829 
       0.184281         488.463         465.566         485.522 
       0.196406         445.691          429.95         445.678 
       0.209011         404.492         382.547         400.048 
       0.221538         361.615          334.31         358.776 
       0.233611          328.77         299.122         326.423 
       0.245665         308.588         276.078         300.442 
       0.258103         280.512         257.005         281.276 
       0.270422         262.052         236.158         259.986 
       0.282519         238.324         214.327         239.495 
       0.294636         231.303         195.276          221.83 
       0.306978         204.112         180.663         208.216 
       0.319417         195.318          168.91         195.448 
        0.33169         182.076         157.659         183.297 
       0.343948         173.666         146.081         172.617 
       0.356249          160.54         135.222         163.518 
       0.368458         154.183         126.127          152.86 
        0.38068         145.602          118.52         144.956 
       0.392856         135.767         111.577         138.154 
       0.405069         129.103         104.788         131.161 
       0.417459         122.297         98.2145          124.14 
       0.429752         117.466         92.3134         118.434 
       0.441978         112.436         87.1342         113.941 
       0.454294          104.59          82.431         107.976 
        0.46658         104.583         78.0181         103.688 
       0.478753         97.5482          73.855          99.553 
       0.490964         94.5511         69.9446         95.5991 
       0.503334         90.4634         66.3351         91.7539 
       0.515665         87.0428         63.0438         89.0753 
       0.527909         83.7591         60.0054         84.6094 
       0.540159         80.7748         57.1308         81.8661 
        0.55248         76.6187         54.4032         78.7465 
       0.564743         75.0396         51.8776         76.3441 
        0.57686         72.7104         49.5564         73.7114 
       0.589077         69.0145         47.3652         71.6006 
       0.601441         67.1673         45.2816          69.344 
        0.61382         65.3021         43.3171         66.8902 
       0.626067         62.5871         41.4839         65.0836 
       0.638306         60.7216         39.7577         63.0315 
       0.650632         58.6891         38.1221          60.877 
       0.662899            57.5         36.5894         59.1331 
       0.675076         55.1647          35.153         57.5146 
       0.687267         54.3607          33.792          55.902 
       0.699615         52.4259          32.486          54.662 
       0.711937          50.358         31.2513         52.8229 
       0.724148         50.0931         30.0913         51.8949 
       0.736433         47.4221         28.9845         50.3666 
       0.748747         46.8053         27.9317         49.0907 
       0.761037         45.5096         26.9337         47.9398 
       0.773197         44.4536         25.9948         47.0108 
       0.785376         42.9181         25.0996         45.7934 
       0.797761         42.4125         24.2327          44.868 
       0.810096         41.3039         23.4102         43.7692 
       0.822371         40.3631         22.6298          42.703 
       0.834626         39.2538         21.8865         41.9756 
       0.846916         38.3269         21.1748         41.0157 
       0.859215         37.1713         20.4945         40.1173 
       0.871383         36.6604         19.8511         39.3905 
        0.88363          35.729         19.2315         38.6844 
       0.895928         34.9127         18.6362         37.7808 
       0.908253         34.2022         18.0651         37.1775 
       0.920535         33.6283           17.52         36.4117 
       0.932774         33.0426         16.9993         35.7219 
        0.94508         32.3627         16.4973         34.9924 
       0.957324         31.6554         16.0181         34.4146 
        0.96953         31.0451         15.5596         33.7407 
       0.981769         30.4068         15.1178         33.2475 
       0.994071         29.7663         14.6913           32.64 
         1.0064         29.1108         14.2805         32.0917 
        1.01868         28.5209         13.8867         31.5919 
        1.03092          28.294         13.5096         31.0266 
         1.0432         27.5645         13.1452         30.4392 
        1.05553          27.038         12.7929         30.1563 
        1.06777         26.3686          12.456         29.5264 
           1.08         25.8106         12.1318         29.0718 
        1.09227         25.4867          11.818         28.7122 
         1.1046         25.1147         11.5143         28.1956 
         1.1169         24.6994         11.2217         27.7838 
        1.12915         24.4005         10.9409         27.3953 
        1.14142         23.6915         10.6691         26.9727 
        1.15365         23.4749         10.4074          26.603 
        1.16585         23.1656         10.1552         26.2512 
        1.17807         22.6414         9.91102         25.7819 
        1.19037          22.452         9.67334         25.5632 
        1.20276          22.116         9.44187           25.16 
        1.21504         21.6694         9.21983         24.8796 
        1.22728         21.2587         9.00587           24.51 
        1.23954         20.9942         8.79822         24.1557 
        1.25184         20.5966         8.59674         23.8749 
        1.26414           20.35         8.40151         23.5337 
        1.27632         20.0685          8.2141         23.2334 
         1.2886         19.8516         8.03111         22.9697 
        1.30093         19.3744         7.85307         22.7299 
        1.31316         19.1672         7.68173         22.4078 
        1.32541         18.9404         7.51549         22.1868 
        1.33772         18.5981         7.35326         21.9083 
        1.35005         18.3562         7.19573         21.6745 
        1.36225         18.1093         7.04442         21.4064 
        1.37447         17.7443         6.89719         21.1385 
        1.38676         17.5583         6.75351         20.9293 
        1.39907         17.2923         6.61368         20.6897 
        1.41133         17.0302         6.47843         20.4484 
        1.42358         16.8288          6.3471         20.2098 
        1.43591         16.5711         6.21852         20.0348 
        1.44818         16.3524         6.09421         19.8221 
        1.46037         16.2565         5.97405         19.5655 
        1.47263         15.9592         5.85647         19.4129 
        1.48494         15.8317         5.74161         19.1604 
        1.49724         15.6159         5.62993         19.0017 
        1.50952         15.3751         5.52145         18.8233 
        1.52178         15.1856         5.41599         18.5976 
        1.53409         14.9134         5.31287         18.4179 
        1.54637         14.8817         5.21266         18.1986 
        1.55858          14.619          5.1156         18.0469 
        1.57081         14.4074         5.02088         17.8871 
        1.58313         14.2944         4.92797         17.7091 
        1.59544         14.0482         4.83747         17.5552 
        1.60767         13.9143         4.74983         17.3652 
        1.61994         13.6683         4.66405         17.2225 
        1.63225         13.6077         4.58022         17.0841 
        1.64452         13.4198         4.49869          16.935 
        1.65676         13.2489          4.4194         16.7544 
          1.669         13.1393         4.34196         16.6006 
        1.68133         12.8864         4.26589         16.4477 
        1.69363         12.7461         4.19187         16.2714 
        1.70585         12.5986         4.12008           16.18 
        1.71809         12.4707         4.04982         16.0282 
        1.73038         12.3322         3.98099         15.9059 
        1.74268          12.221         3.91371         15.7467 
        1.75493         12.0045          3.8483         15.6079 
        1.76714         12.0163         3.78456         15.4878 
        1.77942         11.8613         3.72193         15.3348 
        1.79173         11.6218         3.66056         15.2297 
        1.80402         11.5539         3.60071         15.1112 
         1.8163         11.4253         3.54223         14.9851 
         1.8286         11.2607         3.48495         14.8686 
         1.8409          11.152         3.42898         14.7492 
        1.85315         11.0431         3.37443         14.6202 
        1.86537         10.9378         3.32118          14.514 
        1.87765         10.8448         3.26888         14.3987 
        1.88995         10.6528         3.21759         14.2909 
        1.90221         10.6074         3.16757         14.1579 
        1.91445         10.4752          3.1187         14.0722 
        1.92674         10.3625         3.07069          13.952 
        1.93902         10.2648         3.02369         13.8677 
        1.95124         10.1344         2.97793         13.7593 
         1.9635         10.0352           2.933         13.6464 
        1.97583         9.94954         2.88871         13.5259 
        1.98812         9.87172          2.8455          13.426 
        2.00039         9.78783         2.80326         13.3452 
        2.01264          9.6858         2.76193         13.2539 
        2.02492         9.60298         2.72136         13.1404 
        2.03717         9.45642         2.68168         13.0501 
        2.04942         9.35705         2.64284          12.957 
        2.06171         9.32842         2.60464         12.8679 
        2.07397         9.21181         2.56728         12.7828 
        2.08629         9.13185          2.5305         12.7002 
        2.09857         9.05022         2.49452         12.6014 
        2.11081         8.96908          2.4594         12.5305 
        2.12309         8.85055         2.42486         12.4185 
        2.13538         8.77146         2.39094         12.3412 
        2.14763         8.69077         2.35778         12.2607 
        2.15986         8.65304         2.32533         12.1861 
        2.17214         8.56733         2.29336         12.0825 
        2.18443         8.45391         2.26196         12.0152 
        2.19671         8.43064         2.23118         11.9344 
        2.20898         8.30832         2.20101         11.8589 
        2.22126          8.2167         2.17137         11.7758 
        2.23354         8.18527         2.14229         11.6896 
         2.2458         8.08746         2.11379         11.6272 
        2.25807         8.02101         2.08578         11.5392 
        2.27035         7.96176         2.05826         11.4697 
        2.28263         7.89428         2.03124         11.3915 
         2.2949         7.80286         2.00473          11.325 
        2.30718         7.74746         1.97868         11.2664 
        2.31946         7.68812         1.95308         11.1899 
        2.33169         7.62124         1.92804          11.121 
        2.34393         7.56651         1.90341         11.0448 
        2.35622          7.5137         1.87912         10.9802 
        2.36847         7.44401         1.85533         10.9093 
        2.38076         7.38369         1.83188          10.844 
        2.39305         7.28844         1.80884         10.7664 
        2.40534         7.25182          1.7862         10.6971 
        2.41762         7.20128         1.76394         10.6494 
        2.42989         7.15719          1.7421         10.5853 
        2.44216         7.09369         1.72063         10.5129 
         2.4544         7.02975         1.69958          10.452 
        2.46667         7.01726         1.67882         10.3904 
        2.47897         6.95583         1.65837         10.3183 
        2.49124         6.87273         1.63831         10.2591 
        2.50349         6.83784         1.61861         10.2087 
        2.51578         6.78126         1.59918         10.1517 
        2.52805         6.74368          1.5801         10.0925 
        2.54029          6.6775         1.56138         10.0349 
        2.55257          6.6639          1.5429         9.97528 
        2.56487         6.58669          1.5247         9.90772 
        2.57716         6.54782          1.5068         9.85917 
        2.58942          6.5257         1.48924         9.80425 
        2.60167         6.47514         1.47198         9.74523 
        2.61395         6.41583         1.45496         9.69263 
        2.62624         6.39101         1.43818         9.63661 
        2.63849         6.36864         1.42173         9.58447 
        2.65073         6.31324         1.40555          9.5243 
        2.66302         6.27121         1.38956         9.46853 
         2.6753         6.23413         1.37384         9.41687 
        2.68756         6.20464         1.35838         9.37351 
        2.69983         6.16114         1.34316         9.31186 
        2.71213         6.12529         1.32814         9.26023 
        2.72441         6.08522         1.31337           9.212 
        2.73665         6.07442         1.29886         9.15665 
         2.7489         6.04978         1.28458         9.10905 
        2.76118         5.99145         1.27047         9.06827 
        2.77349         5.96811         1.25654         9.01285 
        2.78576         5.95217         1.24288         8.96505 
        2.79802         5.90777         1.22942         8.91671 
        2.81031         5.89147         1.21613         8.87251 
        2.82259           5.852         1.20305         8.82497 
        2.83483         5.83449          1.1902         8.77542 
         2.8471          5.8197         1.17752         8.73323 
         2.8594         5.81282         1.16499         8.68815 
         2.8717         5.76546         1.15264         8.63485 
        2.88396         5.74309         1.14051         8.59229 
        2.89619          5.7079         1.12859         8.55364 
        2.90847         5.70633         1.11678         8.50214 
        2.92072         5.70904         1.10517         8.45686 
        2.93299         5.69363         1.09372         8.41966 
        2.94526         5.67248         1.08242         8.37224 
        2.95753          5.6536         1.07128         8.32681 
        2.96982         5.63179         1.06028         8.28683 
        2.98209         5.62502         1.04945         8.23872 
        2.99436         5.62045         1.03877         8.19816 
        3.00666         5.62785         1.02822         8.16096 
        3.01894         5.59521         1.01784         8.11418 
        3.03119         5.60054         1.00761         8.07411 
        3.04345         5.59744        0.997523         8.03468 
        3.05573         5.58705        0.987554         7.99102 
          3.068         5.58333        0.977733         7.95447 
        3.08026         5.60851        0.968055          7.9166 
        3.09254         5.59902         0.95849          7.8743 
        3.10483         5.58583        0.949052         7.83771 
         3.1171         5.59838        0.939755         7.80138 
        3.12933          5.6044        0.930607           7.758 
        3.14159         5.59077        0.921562         7.72048 
