# k  (h/Mpc)    P(k)  (Mpc/h)^3    P_linear(k)  (Mpc/h)^3     P_NL(k)  ShotnoiseSubtracted = false
      0.0156606         17757.2         17781.8         17652.7 
      0.0273761         15227.5         15349.5         15207.9 
      0.0384619         11519.7         11554.3         11433.1 
      0.0498308         8910.12         9083.34         8963.01 
      0.0625568         7522.21          7716.8         7608.26 
      0.0751274         6677.13         6554.66         6400.79 
      0.0867833          5184.6         5276.41         5230.42 
      0.0984825         4354.41         4175.12          4221.4 
       0.111151         3711.26         3485.83         3540.48 
       0.123864         3327.15         3141.22         3185.89 
       0.135742         3024.79          2824.6          2869.8 
        0.14762         2623.64         2415.08         2534.92 
       0.160083         2213.18         2013.04         2158.52 
       0.172465         1974.04         1756.95         1941.42 
       0.184281          1798.4         1619.67          1806.5 
       0.196406         1680.94         1495.73         1660.41 
       0.209011         1564.31          1330.8         1502.58 
       0.221538         1410.65         1162.97         1395.51 
       0.233611         1340.19         1040.55         1302.07 
       0.245665         1220.51         960.378         1200.37 
       0.258103         1192.88         894.022         1131.85 
       0.270422         1067.77         821.496         1060.49 
       0.282519         1000.74         745.548         998.532 
       0.294636         988.377         679.273         943.122 
       0.306978         894.918         628.439         901.387 
       0.319417         871.273         587.551         849.095 
        0.33169         820.582         548.414         802.077 
       0.343948         784.243         508.135          775.61 
       0.356249         739.836         470.362         745.182 
       0.368458         715.224         438.723         708.739 
        0.38068         696.745         412.267         680.041 
       0.392856         659.002         388.113         654.589 
       0.405069         628.555         364.495          634.34 
       0.417459         603.834          341.63         607.833 
       0.429752         593.511         321.103         586.236 
       0.441978         573.312         303.087         570.295 
       0.454294          545.12         286.727         546.179 
        0.46658         531.829         271.376         533.898 
       0.478753         518.531         256.894         516.677 
       0.490964         498.869         243.291         500.234 
       0.503334         474.065         230.738          487.88 
       0.515665         473.036         219.289          477.28 
       0.527909         454.786          208.72         465.244 
       0.540159         443.252          198.72         452.518 
        0.55248         434.531         189.232         440.433 
       0.564743         430.025         180.448         432.603 
        0.57686         413.586         172.374         420.493 
       0.589077         401.702         164.752          411.09 
       0.601441         396.266         157.504         402.269 
        0.61382         387.354         150.671         394.992 
       0.626067         381.876         144.295          386.78 
       0.638306         366.485          138.29         379.324 
       0.650632         361.671         132.601          368.99 
       0.662899         358.467          127.27         364.618 
       0.675076         344.843         122.273         358.357 
       0.687267         336.113         117.539         349.868 
       0.699615         332.025         112.996         344.151 
       0.711937         326.974         108.702         337.953 
       0.724148         316.161         104.667         332.961 
       0.736433         309.048         100.817         326.495 
       0.748747         304.705         97.1548         320.449 
       0.761037         298.915         93.6835         315.845 
       0.773197         295.286         90.4177         311.314 
       0.785376         290.708         87.3039         306.185 
       0.797761         283.228         84.2885         301.399 
       0.810096         280.558         81.4276         297.426 
       0.822371         270.481         78.7133         292.506 
       0.834626         269.446         76.1278         288.459 
       0.846916         263.568         73.6522         284.158 
       0.859215         263.424          71.286         280.093 
       0.871383         256.341         69.0477          276.01 
        0.88363         254.746         66.8928         273.165 
       0.895928         249.126         64.8221         268.818 
       0.908253         242.584         62.8356         264.495 
       0.920535         240.941         60.9394         261.026 
       0.932774          234.16         59.1285         257.407 
        0.94508         231.597         57.3824         254.724 
       0.957324         230.739         55.7157         251.061 
        0.96953         227.359         54.1206         247.676 
       0.981769         220.568         52.5842         245.243 
       0.994071         219.648         51.1004         242.101 
         1.0064         214.813         49.6716         238.495 
        1.01868         211.997         48.3019         235.616 
        1.03092         207.151         46.9901         233.295 
         1.0432         203.601         45.7226         230.437 
        1.05553         200.908         44.4971         227.473 
        1.06777         200.377         43.3256         225.142 
           1.08         195.364         42.1977         222.376 
        1.09227         193.031         41.1064         219.892 
         1.1046         190.149         40.0498         217.629 
         1.1169         186.345         39.0323         214.643 
        1.12915         183.727         38.0554         212.703 
        1.14142         180.779           37.11         209.953 
        1.15365         178.229         36.1997         207.744 
        1.16585         175.604         35.3224         205.097 
        1.17807         173.344         34.4733         203.459 
        1.19037         171.658         33.6465          201.48 
        1.20276         169.039         32.8414         198.939 
        1.21504         165.648         32.0691         196.796 
        1.22728         162.559         31.3249         194.279 
        1.23954         162.044         30.6026         192.881 
        1.25184         158.931         29.9018          190.68 
        1.26414         156.254         29.2227          188.71 
        1.27632         155.666         28.5709         187.438 
         1.2886         153.616         27.9344          184.96 
        1.30093         149.149         27.3151         182.914 
        1.31316          147.41         26.7192         180.846 
        1.32541         145.884         26.1409         179.439 
        1.33772         144.489         25.5766         177.525 
        1.35005         142.192         25.0287         175.532 
        1.36225         140.143         24.5024         173.944 
        1.37447         138.077         23.9903         171.885 
        1.38676         136.368         23.4905         170.363 
        1.39907         133.964         23.0042         168.606 
        1.41133         131.947         22.5337         167.123 
        1.42358         130.155         22.0769         165.555 
        1.43591         128.681         21.6297         163.744 
        1.44818         127.183         21.1973          162.31 
        1.46037         125.042         20.7794         160.618 
        1.47263         123.717         20.3704         159.381 
        1.48494         121.748         19.9709         157.489 
        1.49724         120.096         19.5824         156.116 
        1.50952         117.889         19.2051         154.643 
        1.52178         117.391         18.8383         153.022 
        1.53409         114.925         18.4796         151.762 
        1.54637         113.533          18.131         150.466 
        1.55858         111.481         17.7934         148.882 
        1.57081         110.021          17.464         147.626 
        1.58313         108.679         17.1408         146.152 
        1.59544         107.262          16.826         144.889 
        1.60767         106.029         16.5212         143.498 
        1.61994         104.177         16.2228         142.438 
        1.63225         102.885         15.9312         140.772 
        1.64452         100.987         15.6476         139.526 
        1.65676          99.532         15.3718         138.391 
          1.669         98.9427         15.1025         137.249 
        1.68133         96.8574         14.8379         135.967 
        1.69363         95.8944         14.5804         134.777 
        1.70585         94.1194         14.3307         133.565 
        1.71809         92.9698         14.0864         132.248 
        1.73038         92.2565         13.8469         131.155 
        1.74268         90.9939         13.6129         129.947 
        1.75493         89.3901         13.3854         128.799 
        1.76714         88.1832         13.1637         127.767 
        1.77942         87.1048         12.9459         126.499 
        1.79173         85.7818         12.7324         125.517 
        1.80402         85.1116         12.5242         124.447 
         1.8163         83.4039         12.3208         123.246 
         1.8286         82.2459         12.1216         122.205 
         1.8409         81.6093         11.9269          121.13 
        1.85315         80.2694         11.7372         120.168 
        1.86537         79.3052          11.552         119.155 
        1.87765           78.61         11.3701          118.09 
        1.88995         77.2774         11.1916         117.132 
        1.90221         76.2356         11.0177         116.124 
        1.91445         75.1052         10.8477         115.078 
        1.92674         73.9182         10.6807         114.147 
        1.93902          73.024         10.5172         113.122 
        1.95124         72.3323          10.358         112.242 
         1.9635         71.2165         10.2017         111.168 
        1.97583         70.1636         10.0477         110.373 
        1.98812           69.25         9.89741         109.427 
        2.00039         68.3044          9.7505         108.495 
        2.01264         67.6882         9.60671         107.585 
        2.02492         66.7135         9.46562         106.686 
        2.03717         65.6031          9.3276         105.754 
        2.04942         65.2969         9.19251         105.003 
        2.06171          63.849         9.05964         104.085 
        2.07397         63.1585         8.92969         103.273 
        2.08629         62.4343         8.80174         102.371 
        2.09857         61.4679         8.67661         101.562 
        2.11081         60.5256         8.55443         100.633 
        2.12309          59.958         8.43431         99.9529 
        2.13538         59.1048         8.31632         99.0928 
        2.14763         58.2931         8.20099         98.2989 
        2.15986         57.2264         8.08811         97.4761 
        2.17214         56.8271          7.9769         96.6707 
        2.18443         56.1278         7.86768         96.0271 
        2.19671         55.1008         7.76063         95.2015 
        2.20898         54.8755         7.65571         94.4207 
        2.22126         53.9969         7.55261         93.6444 
        2.23354         53.2991         7.45145         92.9428 
         2.2458         52.5889         7.35231         92.2365 
        2.25807         51.8764         7.25489          91.452 
        2.27035         51.3448         7.15916         90.7214 
        2.28263         50.5432          7.0652         90.0032 
         2.2949         50.0957         6.97297         89.3054 
        2.30718         49.1342         6.88236         88.6423 
        2.31946          48.744         6.79332         87.9413 
        2.33169         47.9604         6.70624         87.2625 
        2.34393         47.3415         6.62055         86.6051 
        2.35622         46.9063         6.53609         85.9249 
        2.36847         46.3545         6.45333         85.3359 
        2.38076         45.6025         6.37176         84.5853 
        2.39305         45.0796         6.29163         83.9971 
        2.40534         44.6091         6.21286          83.307 
        2.41762         44.1069         6.13546         82.6297 
        2.42989         43.5876         6.05949         82.0831 
        2.44216         43.0938         5.98482         81.4214 
         2.4544         42.5392         5.91158         80.7989 
        2.46667         42.0643         5.83939         80.1625 
        2.47897          41.589         5.76824         79.5719 
        2.49124         41.0236         5.69847         78.9987 
        2.50349         40.6342         5.62996         78.3746 
        2.51578         40.0501         5.56236         77.8672 
        2.52805         39.6515           5.496          77.241 
        2.54029         39.2027         5.43088         76.6232 
        2.55257         38.6155         5.36663         76.0984 
        2.56487         38.2964         5.30329         75.5714 
        2.57716         37.7985         5.24106         75.0266 
        2.58942         37.2886         5.17997           74.45 
        2.60167         36.9808         5.11992         73.9057 
        2.61395          36.468         5.06072         73.3712 
        2.62624         36.2625         5.00238         72.8014 
        2.63849         35.8261         4.94515         72.2958 
        2.65073         35.4527         4.88887         71.7531 
        2.66302         34.9469         4.83327          71.229 
         2.6753         34.5419         4.77856         70.7273 
        2.68756          34.141         4.72482         70.1897 
        2.69983          33.901         4.67186         69.7309 
        2.71213         33.5401         4.61961          69.247 
        2.72441         33.1732         4.56824         68.7335 
        2.73665         32.7444         4.51779         68.2352 
         2.7489         32.6711         4.46812         67.7567 
        2.76118         32.1644         4.41904         67.2919 
        2.77349         31.9706         4.37059         66.8091 
        2.78576         31.7126         4.32306          66.314 
        2.79802         31.2924         4.27625         65.9022 
        2.81031         30.9618         4.23003         65.4228 
        2.82259         30.8818         4.18452         64.9407 
        2.83483         30.4548         4.13984         64.5156 
         2.8471         30.1247         4.09573         64.0712 
         2.8594         29.9775         4.05213         63.6121 
         2.8717         29.7611         4.00918         63.1808 
        2.88396         29.4469         3.96701          62.731 
        2.89619          29.257         3.92552          62.274 
        2.90847         29.0234         3.88447         61.8587 
        2.92072         28.7899         3.84408         61.4464 
        2.93299         28.6127         3.80424         61.0243 
        2.94526         28.3543         3.76493         60.6212 
        2.95753         28.1932         3.72618         60.2105 
        2.96982         28.0925         3.68792         59.7979 
        2.98209          27.799         3.65027            59.4 
        2.99436         27.6532         3.61312         58.9768 
        3.00666           27.54         3.57642         58.5935 
        3.01894         27.3192          3.5403         58.1856 
        3.03119         27.1901         3.50473         57.8064 
        3.04345         27.0272         3.46965         57.4448 
        3.05573         26.9081         3.43497         57.0631 
          3.068         26.8679         3.40081         56.6789 
        3.08026         26.6816         3.36715         56.2973 
        3.09254         26.5711         3.33388         55.9256 
        3.10483          26.581         3.30105         55.5659 
         3.1171         26.4224         3.26872         55.2036 
        3.12933         26.3999          3.2369         54.8317 
        3.14159         26.2621         3.20544         54.4643 
