# k  (h/Mpc)    P(k)  (Mpc/h)^3    P_linear(k)  (Mpc/h)^3     P_NL(k)  ShotnoiseSubtracted = false
      0.0156606         23152.6         23309.4         23119.6 
      0.0273761         19796.7         20118.3           19886 
      0.0384619         14947.9         15142.6         14934.5 
      0.0498308         11529.5         11903.5         11693.6 
      0.0625568          9739.7         10112.1         9926.36 
      0.0751274         8682.81         8588.91         8328.84 
      0.0867833         6718.98         6913.76          6832.6 
      0.0984825         5693.03         5470.62         5540.42 
       0.111151         4877.82         4567.38         4656.23 
       0.123864         4368.77         4115.79         4187.43 
       0.135742         3988.54          3700.9          3772.5 
        0.14762         3477.48          3164.3          3353.2 
       0.160083         2965.17         2637.52         2871.84 
       0.172465         2644.62         2301.97         2600.65 
       0.184281         2392.33         2122.09         2420.52 
       0.196406         2266.56          1959.7         2231.94 
       0.209011         2126.07          1743.6         2024.99 
       0.221538         1912.88         1523.71         1894.96 
       0.233611         1840.51         1363.31         1779.24 
       0.245665         1666.54         1258.27         1644.88 
       0.258103         1657.71         1171.33         1554.31 
       0.270422         1478.89          1076.3         1462.18 
       0.282519         1401.34         976.798         1387.87 
       0.294636         1372.48         889.964         1316.44 
       0.306978         1258.89         823.362         1263.25 
       0.319417         1238.13         769.791         1191.64 
        0.33169            1163         718.514         1130.16 
       0.343948         1119.16         665.741         1096.36 
       0.356249         1063.76         616.251         1056.95 
       0.368458          1019.1         574.798         1012.34 
        0.38068         1006.58         540.136         975.166 
       0.392856         957.751         508.491         942.551 
       0.405069         907.073         477.548         911.425 
       0.417459         872.867         447.589         881.855 
       0.429752         872.675         420.696         851.422 
       0.441978          842.21         397.091          830.62 
       0.454294         806.805         375.657         797.682 
        0.46658         784.338         355.545         781.927 
       0.478753         770.918         336.572         759.112 
       0.490964         742.161          318.75         736.452 
       0.503334         711.615         302.302         720.972 
       0.515665         708.652         287.302         704.554 
       0.527909         678.989         273.455         690.837 
       0.540159         663.732         260.354         674.214 
        0.55248         650.319         247.924         657.141 
       0.564743         644.766         236.415           646.1 
        0.57686          625.08         225.836         629.546 
       0.589077         616.226          215.85         616.117 
       0.601441         600.237         206.355         604.604 
        0.61382         583.175         197.402          593.96 
       0.626067          577.88         189.048         583.479 
       0.638306         557.253         181.181         571.591 
       0.650632         552.248         173.727         558.836 
       0.662899         548.099         166.742         551.887 
       0.675076         531.849         160.197           544.9 
       0.687267         516.424         153.994          532.29 
       0.699615         516.198         148.042         523.903 
       0.711937          504.41         142.416         513.962 
       0.724148         488.793         137.129          507.48 
       0.736433         477.755         132.085         498.745 
       0.748747         471.944         127.287         490.152 
       0.761037         463.959         122.739         484.476 
       0.773197         456.375         118.461         476.254 
       0.785376         451.555         114.381         469.571 
       0.797761         438.218         110.431         463.046 
       0.810096         432.453         106.682         457.053 
       0.822371         422.289         103.126         449.768 
       0.834626         417.829         99.7388         444.778 
       0.846916          412.45         96.4955         437.835 
       0.859215         406.632         93.3953         431.391 
       0.871383          398.14         90.4629          425.84 
        0.88363         392.927         87.6396         421.577 
       0.895928         388.147         84.9267         415.128 
       0.908253         378.829          82.324         408.256 
       0.920535         370.486         79.8398         404.162 
       0.932774         365.789         77.4672         397.929 
        0.94508         360.351         75.1795         394.081 
       0.957324         355.892         72.9959         388.855 
        0.96953         351.576          70.906         384.169 
       0.981769         343.607         68.8931         379.882 
       0.994071         342.439         66.9492         375.334 
         1.0064         336.364         65.0772         369.901 
        1.01868         332.397         63.2827         365.273 
        1.03092         322.913         61.5641         362.114 
         1.0432         319.996         59.9035         357.745 
        1.05553         316.972         58.2979         352.799 
        1.06777         312.348          56.763         348.745 
           1.08         305.433         55.2852         344.932 
        1.09227         305.198         53.8555          340.82 
         1.1046         298.913         52.4712          337.68 
         1.1169          293.11         51.1382         333.246 
        1.12915         288.798         49.8583          329.75 
        1.14142         283.091         48.6197         325.954 
        1.15365         280.036          47.427         322.552 
        1.16585         275.622         46.2776         318.993 
        1.17807         273.023         45.1651         315.403 
        1.19037         267.801          44.082         312.743 
        1.20276         265.114         43.0271         308.687 
        1.21504         259.824         42.0153         305.212 
        1.22728         256.102         41.0403         302.085 
        1.23954         254.578          40.094         298.848 
        1.25184         248.806         39.1759         295.735 
        1.26414         244.154         38.2861         292.955 
        1.27632         241.733         37.4321         290.219 
         1.2886         239.309         36.5982         286.978 
        1.30093          234.43         35.7869         283.286 
        1.31316         229.652         35.0061         280.715 
        1.32541         228.556         34.2485         277.594 
        1.33772         224.281         33.5092         275.154 
        1.35005         221.806         32.7913         272.038 
        1.36225         217.725         32.1018         269.502 
        1.37447         214.261         31.4309         266.289 
        1.38676         212.313         30.7761         264.409 
        1.39907         209.286         30.1389          261.15 
        1.41133         205.326         29.5226         258.395 
        1.42358         202.819         28.9241         255.977 
        1.43591          200.12         28.3381         253.731 
        1.44818         196.352         27.7716         250.999 
        1.46037         194.866         27.2241         248.313 
        1.47263         191.194         26.6882         245.873 
        1.48494         189.844         26.1648         242.975 
        1.49724         186.251         25.6559         241.493 
        1.50952         183.203         25.1615         238.579 
        1.52178         180.845         24.6809          236.35 
        1.53409         177.944          24.211         234.107 
        1.54637         175.125         23.7543         232.178 
        1.55858         173.296          23.312         229.745 
        1.57081         170.388         22.8804         227.437 
        1.58313         168.334          22.457         225.139 
        1.59544         165.221         22.0446         223.144 
        1.60767         163.826         21.6452         221.171 
        1.61994         161.032         21.2543         218.893 
        1.63225         158.456         20.8723          216.69 
        1.64452         155.996         20.5007         214.776 
        1.65676         154.144         20.1394         212.956 
          1.669         152.337         19.7865         210.768 
        1.68133         149.385         19.4399         208.842 
        1.69363         146.881         19.1025         207.147 
        1.70585           144.7         18.7754          205.17 
        1.71809         142.841         18.4552         202.997 
        1.73038         140.891         18.1415         201.273 
        1.74268         139.713          17.835         199.309 
        1.75493         136.816         17.5369         197.714 
        1.76714         136.018         17.2464         195.962 
        1.77942         133.287          16.961         194.189 
        1.79173          131.51         16.6814         192.298 
        1.80402          129.59         16.4086         190.593 
         1.8163         127.433         16.1421         189.091 
         1.8286         125.646         15.8811         187.231 
         1.8409         124.038          15.626         185.498 
        1.85315         121.846         15.3774         183.969 
        1.86537         120.526         15.1348         182.401 
        1.87765          119.08         14.8964         180.836 
        1.88995         117.053         14.6627         179.107 
        1.90221          115.59         14.4348         177.718 
        1.91445         113.825          14.212         176.032 
        1.92674         111.977         13.9933         174.449 
        1.93902         110.719         13.7791         172.878 
        1.95124           109.2         13.5705         171.434 
         1.9635         107.439         13.3658         169.945 
        1.97583          105.84          13.164         168.415 
        1.98812          104.35         12.9671         167.256 
        2.00039         103.206         12.7746         165.627 
        2.01264         101.958         12.5862         164.261 
        2.02492         100.346         12.4014         162.751 
        2.03717         98.9711         12.2205         161.484 
        2.04942         97.6993         12.0435         160.078 
        2.06171         96.0832         11.8695         158.639 
        2.07397         94.8457         11.6992         157.455 
        2.08629         93.4443         11.5316         156.081 
        2.09857         92.3944         11.3676          154.84 
        2.11081         90.9435         11.2076         153.413 
        2.12309         89.8044         11.0502         152.225 
        2.13538         88.3679         10.8956          150.91 
        2.14763         87.0971         10.7445         149.672 
        2.15986          86.248         10.5966         148.334 
        2.17214         85.0253         10.4509         147.226 
        2.18443         84.0619         10.3078         146.138 
        2.19671         82.9954         10.1676         144.858 
        2.20898         81.8072         10.0301         143.557 
        2.22126         80.6961         9.89503         142.511 
        2.23354         79.6653         9.76249         141.394 
         2.2458         78.1232         9.63261         140.168 
        2.25807         77.5048         9.50498         139.064 
        2.27035         76.3854         9.37955         137.944 
        2.28263         75.4555         9.25645         136.895 
         2.2949         74.0751         9.13562         135.813 
        2.30718         73.0162         9.01691         134.688 
        2.31946         72.3085         8.90025         133.539 
        2.33169         71.1959         8.78617         132.542 
        2.34393           70.52          8.6739         131.623 
        2.35622         69.4329         8.56324         130.481 
        2.36847         68.6271         8.45482         129.567 
        2.38076         67.4372         8.34795         128.458 
        2.39305         66.8522         8.24296         127.552 
        2.40534         65.7982         8.13977         126.488 
        2.41762          65.217         8.03836         125.494 
        2.42989         64.1319         7.93883         124.569 
        2.44216          63.571           7.841         123.536 
         2.4544         62.6754         7.74504         122.656 
        2.46667         61.6992         7.65047          121.72 
        2.47897         61.2105         7.55724         120.701 
        2.49124         60.4098         7.46584         119.797 
        2.50349         59.3433         7.37608         118.919 
        2.51578         58.9699         7.28752         118.096 
        2.52805         57.9859         7.20057         117.127 
        2.54029         57.4404         7.11526         116.246 
        2.55257         56.7391         7.03108          115.43 
        2.56487         56.2941         6.94809         114.569 
        2.57716         55.6751         6.86657         113.712 
        2.58942         54.7973         6.78653         112.881 
        2.60167           54.19         6.70785          112.07 
        2.61395         53.7855         6.63029         111.213 
        2.62624         52.9613         6.55386         110.335 
        2.63849         52.3685         6.47887         109.579 
        2.65073         51.6452         6.40514         108.757 
        2.66302         51.2341         6.33229         107.984 
         2.6753          50.502         6.26062         107.215 
        2.68756         50.1758         6.19021         106.407 
        2.69983         49.5822         6.12083         105.641 
        2.71213         49.0208         6.05236         104.889 
        2.72441         48.5624         5.98507         104.118 
        2.73665         48.0126         5.91896         103.404 
         2.7489         47.5309         5.85389          102.68 
        2.76118          47.089          5.7896         101.914 
        2.77349         46.6122         5.72612         101.213 
        2.78576         46.1433         5.66384          100.48 
        2.79802         45.7493         5.60252         99.8271 
        2.81031         45.2185         5.54197         99.1073 
        2.82259         44.7339         5.48233         98.3677 
        2.83483         44.2908          5.4238         97.7245 
         2.8471         43.8082         5.36601          97.018 
         2.8594         43.4233         5.30888         96.3369 
         2.8717         43.1315         5.25261         95.7132 
        2.88396         42.6854         5.19736         95.0487 
        2.89619         42.3792         5.14301         94.3525 
        2.90847         41.9683         5.08923         93.6624 
        2.92072          41.624         5.03631         93.0899 
        2.93299         41.4089         4.98411         92.4673 
        2.94526         41.0469         4.93261         91.8075 
        2.95753         40.7694         4.88185         91.1787 
        2.96982         40.3388         4.83172           90.58 
        2.98209         40.1255         4.78239         89.9618 
        2.99436         39.9116         4.73371         89.3265 
        3.00666         39.6866         4.68563          88.727 
        3.01894         39.4604         4.63831         88.1411 
        3.03119         39.1762         4.59171         87.5791 
        3.04345         38.9122         4.54575          87.005 
        3.05573            38.9         4.50032         86.4137 
          3.068         38.5906         4.45556         85.8475 
        3.08026         38.3772         4.41146         85.2753 
        3.09254         38.3555         4.36787         84.7207 
        3.10483         38.2468         4.32487         84.1682 
         3.1171         38.0869          4.2825          83.605 
        3.12933         37.8459         4.24081         83.0498 
        3.14159         37.8226         4.19959         82.5014 
