# k  (h/Mpc)    Pcb(k)  (Mpc/h)^3    Pcb_linear(k) (Mpc/h)^3    Pcb_NL(k) (Mpc/h)^3   ShotnoiseSubtracted = false
      0.0156606         85.6734         86.7834         86.3851 
      0.0273761         74.8472         75.1771         75.0286 
      0.0384619         56.8135         56.6789         56.6807 
      0.0498308          44.807         44.5982         44.6319 
      0.0625568         37.8423         37.9112          37.897 
      0.0751274          32.209         32.2139         32.1661 
      0.0867833         25.9213         25.9379         25.9339 
      0.0984825         20.6659         20.5277         20.5617 
       0.111151         17.2519         17.1409         17.1708 
       0.123864         15.4906         15.4478         15.4579 
       0.135742         13.8962         13.8917         13.8964 
        0.14762         11.8674         11.8783         11.9078 
       0.160083          9.9028         9.90144          9.9416 
       0.172465         8.65605         8.64215         8.68847 
       0.184281         7.98224         7.96707         8.01272 
       0.196406         7.33246          7.3576           7.389 
       0.209011         6.54046         6.54644          6.5847 
       0.221538         5.73354         5.72101         5.77829 
       0.233611          5.1383         5.11884         5.18252 
       0.245665         4.75866         4.72451         4.77985 
       0.258103         4.38213         4.39812         4.45218 
       0.270422         4.05153         4.04137         4.09297 
       0.282519         3.67829         3.66778         3.72491 
       0.294636         3.37531         3.34177         3.40231 
       0.306978          3.0883          3.0917         3.15383 
       0.319417         2.90495         2.89056         2.95063 
        0.33169          2.7085         2.69803         2.75569 
       0.343948         2.51828         2.49989         2.55717 
       0.356249         2.32018         2.31406         2.38029 
       0.368458         2.17041         2.15842         2.21669 
        0.38068         2.03576         2.02825         2.08624 
       0.392856         1.91651         1.90943         1.96795 
       0.405069         1.80938         1.79325         1.84837 
       0.417459         1.67763         1.68076         1.73904 
       0.429752         1.58515         1.57977         1.63701 
       0.441978         1.50074         1.49114         1.55191 
       0.454294         1.41643         1.41065         1.46797 
        0.46658         1.34734         1.33514         1.39103 
       0.478753         1.27575         1.26389         1.31936 
       0.490964         1.21242         1.19697         1.25598 
       0.503334         1.15254          1.1352         1.19023 
       0.515665         1.08975         1.07888         1.13691 
       0.527909         1.04413         1.02688         1.08032 
       0.540159        0.990023         0.97769         1.03018 
        0.55248        0.939199        0.931012        0.981126 
       0.564743         0.90451        0.887791        0.941794 
        0.57686        0.862855        0.848067        0.899829 
       0.589077        0.819258        0.810569        0.864215 
       0.601441        0.789601        0.774913        0.827267 
        0.61382        0.754277        0.741294        0.791661 
       0.626067        0.720672        0.709923        0.759754 
       0.638306        0.693046        0.680381        0.729162 
       0.650632        0.666833        0.652391        0.701933 
       0.662899        0.641603        0.626162        0.673909 
       0.675076        0.611156        0.601581        0.649216 
       0.687267         0.58757        0.578289        0.623489 
       0.699615        0.570069        0.555939        0.600664 
       0.711937         0.54717         0.53481        0.580659 
       0.724148        0.529843        0.514959         0.55973 
       0.736433        0.508462        0.496017        0.538931 
       0.748747        0.490348        0.478001        0.522524 
       0.761037        0.471956        0.460922        0.503961 
       0.773197        0.456144        0.444854        0.488466 
       0.785376        0.439306        0.429535         0.47191 
       0.797761        0.425341        0.414699        0.455534 
       0.810096         0.41431        0.400624        0.442846 
       0.822371         0.40068         0.38727        0.427554 
       0.834626         0.38799        0.374549        0.414007 
       0.846916         0.37591        0.362369        0.402931 
       0.859215        0.361222        0.350727        0.391171 
       0.871383        0.351619        0.339715        0.379015 
        0.88363        0.340402        0.329113        0.368098 
       0.895928        0.331653        0.318925        0.357033 
       0.908253        0.321828        0.309152        0.347035 
       0.920535        0.312512        0.299823        0.336682 
       0.932774        0.303321        0.290913        0.326676 
        0.94508        0.294672        0.282322        0.318046 
       0.957324        0.286915        0.274122          0.3103 
        0.96953        0.277506        0.266274        0.301743 
       0.981769        0.270028        0.258715         0.29287 
       0.994071        0.263249        0.251415        0.286416 
         1.0064        0.255662        0.244385         0.27847 
        1.01868        0.249445        0.237646        0.271419 
        1.03092        0.243673        0.231193        0.263949 
         1.0432        0.237732        0.224956        0.257579 
        1.05553        0.230635        0.218927        0.251645 
        1.06777        0.224318        0.213163        0.245553 
           1.08        0.219869        0.207614        0.239323 
        1.09227        0.213633        0.202245          0.2334 
         1.1046         0.20843        0.197046        0.228255 
         1.1169        0.203308         0.19204        0.222809 
        1.12915        0.197907        0.187234        0.217631 
        1.14142         0.19454        0.182583        0.212593 
        1.15365        0.189861        0.178104        0.207935 
        1.16585        0.185023        0.173787         0.20305 
        1.17807        0.181613         0.16961        0.198843 
        1.19037        0.176438        0.165542        0.194128 
        1.20276        0.173329        0.161581        0.189525 
        1.21504        0.169303        0.157781        0.186305 
        1.22728        0.166015         0.15412        0.181575 
        1.23954        0.162433        0.150566        0.178416 
        1.25184        0.159109        0.147118        0.174158 
        1.26414        0.155621        0.143777        0.170473 
        1.27632        0.151506         0.14057        0.167092 
         1.2886        0.148104        0.137438        0.163361 
        1.30093        0.145142        0.134391        0.160653 
        1.31316        0.141724        0.131459        0.157191 
        1.32541        0.139152        0.128614         0.15428 
        1.33772         0.13647        0.125838        0.151223 
        1.35005        0.134358        0.123142        0.148352 
        1.36225        0.131527        0.120553        0.145265 
        1.37447        0.128997        0.118033        0.142786 
        1.38676        0.126843        0.115574        0.139778 
        1.39907        0.124458        0.113182        0.137348 
        1.41133        0.121556        0.110867        0.134764 
        1.42358        0.119534        0.108619        0.131954 
        1.43591        0.117579        0.106419        0.130074 
        1.44818        0.115262        0.104292        0.127718 
        1.46037        0.113015        0.102235        0.125087 
        1.47263        0.111001        0.100223        0.123055 
        1.48494        0.108811       0.0982576        0.120973 
        1.49724         0.10674       0.0963463        0.118867 
        1.50952        0.105032       0.0944899        0.116375 
        1.52178        0.103346       0.0926852        0.114528 
        1.53409        0.101849       0.0909205        0.112605 
        1.54637       0.0998859       0.0892055        0.110565 
        1.55858       0.0979098       0.0875445        0.108745 
        1.57081        0.096422       0.0859235        0.106823 
        1.58313       0.0950403       0.0843336        0.105274 
        1.59544       0.0936995       0.0827848        0.103386 
        1.60767       0.0921929        0.081285        0.101723 
        1.61994       0.0902029       0.0798171        0.100213 
        1.63225       0.0884864       0.0783825       0.0986245 
        1.64452       0.0875162       0.0769872          0.0969 
        1.65676       0.0864371       0.0756302       0.0954275 
          1.669       0.0850334        0.074305        0.093823 
        1.68133       0.0834076       0.0730032       0.0924723 
        1.69363       0.0819762       0.0717364        0.091023 
        1.70585       0.0807945       0.0705079       0.0896201 
        1.71809       0.0795511       0.0693056       0.0882077 
        1.73038       0.0784127       0.0681276       0.0869092 
        1.74268       0.0768756       0.0669763       0.0854836 
        1.75493         0.07634       0.0658569       0.0843956 
        1.76714       0.0750222        0.064766       0.0830721 
        1.77942       0.0741284       0.0636943       0.0818625 
        1.79173       0.0731335       0.0626442       0.0805196 
        1.80402       0.0719222       0.0616199       0.0794288 
         1.8163       0.0709035        0.060619       0.0780994 
         1.8286       0.0698542       0.0596388       0.0773067 
         1.8409       0.0687269        0.058681        0.076026 
        1.85315       0.0680621       0.0577475       0.0749316 
        1.86537        0.066727       0.0568362       0.0739054 
        1.87765       0.0660477       0.0559412        0.072852 
        1.88995       0.0652572       0.0550634       0.0719175 
        1.90221       0.0645331       0.0542074       0.0708559 
        1.91445       0.0633735       0.0533711       0.0699251 
        1.92674       0.0626653       0.0525495       0.0689733 
        1.93902       0.0617069       0.0517452       0.0679567 
        1.95124       0.0610129        0.050962       0.0670503 
         1.9635       0.0601307       0.0501931       0.0661266 
        1.97583       0.0595293       0.0494352        0.065211 
        1.98812       0.0586614       0.0486958       0.0645005 
        2.00039       0.0580013        0.047973       0.0635374 
        2.01264       0.0572708       0.0472655       0.0627562 
        2.02492       0.0567343       0.0465713       0.0619358 
        2.03717       0.0557603       0.0458923       0.0611395 
        2.04942       0.0553517       0.0452276       0.0603137 
        2.06171       0.0544901       0.0445739       0.0595413 
        2.07397       0.0537174       0.0439345       0.0588224 
        2.08629       0.0531357        0.043305        0.058044 
        2.09857       0.0526083       0.0426894       0.0573378 
        2.11081       0.0520651       0.0420882       0.0565341 
        2.12309       0.0512929       0.0414973       0.0559601 
        2.13538       0.0508142       0.0409168       0.0552134 
        2.14763        0.050248       0.0403493       0.0545701 
        2.15986       0.0497193        0.039794        0.053929 
        2.17214       0.0490393       0.0392468       0.0532422 
        2.18443        0.048687       0.0387094       0.0525748 
        2.19671       0.0479981       0.0381827       0.0520046 
        2.20898       0.0476103       0.0376665       0.0513281 
        2.22126       0.0468669       0.0371592       0.0507659 
        2.23354       0.0464569       0.0366615       0.0501985 
         2.2458       0.0459815       0.0361738       0.0494788 
        2.25807       0.0454477       0.0356945       0.0490074 
        2.27035       0.0450618       0.0352235       0.0484179 
        2.28263       0.0444618       0.0347612       0.0478876 
         2.2949       0.0441195       0.0343074       0.0472895 
        2.30718       0.0436365       0.0338616       0.0467723 
        2.31946       0.0432634       0.0334235       0.0462585 
        2.33169       0.0425594       0.0329951       0.0457137 
        2.34393       0.0425111       0.0325735       0.0452542 
        2.35622       0.0419075       0.0321579       0.0446935 
        2.36847       0.0416336       0.0317508       0.0442135 
        2.38076       0.0410624       0.0313494       0.0437364 
        2.39305       0.0408812       0.0309552       0.0432532 
        2.40534       0.0403986       0.0305676       0.0427887 
        2.41762       0.0399515       0.0301868        0.042315 
        2.42989       0.0395956        0.029813        0.041838 
        2.44216       0.0392841       0.0294457       0.0414103 
         2.4544       0.0388822       0.0290853       0.0409852 
        2.46667       0.0386232       0.0287301       0.0405096 
        2.47897       0.0380848       0.0283801       0.0400877 
        2.49124       0.0378129       0.0280368       0.0396699 
        2.50349       0.0374315       0.0276997       0.0392387 
        2.51578       0.0371001       0.0273672       0.0388278 
        2.52805       0.0369278       0.0270406       0.0384376 
        2.54029       0.0364754       0.0267203       0.0380517 
        2.55257       0.0361931       0.0264041       0.0376722 
        2.56487       0.0359267       0.0260925       0.0372792 
        2.57716       0.0357338       0.0257863       0.0368928 
        2.58942        0.035295       0.0254858       0.0365033 
        2.60167       0.0349836       0.0251903       0.0361398 
        2.61395       0.0347372       0.0248991       0.0357927 
        2.62624       0.0346207        0.024612       0.0354383 
        2.63849       0.0342346       0.0243304       0.0350846 
        2.65073       0.0338553       0.0240535       0.0347267 
        2.66302       0.0337406         0.02378       0.0343787 
         2.6753       0.0334684       0.0235108       0.0340478 
        2.68756       0.0333026       0.0232464       0.0337227 
        2.69983       0.0329654       0.0229858       0.0333522 
        2.71213        0.032726       0.0227287       0.0330603 
        2.72441       0.0324309        0.022476       0.0327638 
        2.73665       0.0322818       0.0222278       0.0324401 
         2.7489       0.0320401       0.0219834       0.0321277 
        2.76118       0.0318782        0.021742       0.0318246 
        2.77349       0.0315528       0.0215036       0.0315364 
        2.78576       0.0314528       0.0212697       0.0312527 
        2.79802       0.0312377       0.0210394       0.0309073 
        2.81031       0.0310027        0.020812       0.0306522 
        2.82259       0.0307185       0.0205881       0.0303515 
        2.83483       0.0304768       0.0203683       0.0300592 
         2.8471       0.0304279       0.0201512       0.0298241 
         2.8594       0.0302224       0.0199367       0.0295533 
         2.8717       0.0299991       0.0197254       0.0292652 
        2.88396       0.0299416       0.0195179       0.0290139 
        2.89619       0.0296858       0.0193138       0.0287607 
        2.90847       0.0295694       0.0191118        0.028499 
        2.92072       0.0293565       0.0189131       0.0282238 
        2.93299       0.0291914       0.0187171       0.0279712 
        2.94526       0.0290916       0.0185237       0.0277384 
        2.95753        0.028875        0.018333       0.0274946 
        2.96982       0.0287417       0.0181448       0.0272356 
        2.98209        0.028561       0.0179596        0.026991 
        2.99436       0.0284976       0.0177768       0.0267561 
        3.00666       0.0283464       0.0175962       0.0265206 
        3.01894        0.028279       0.0174185       0.0263073 
        3.03119       0.0281562       0.0172435       0.0260797 
        3.04345       0.0280121       0.0170709       0.0258572 
        3.05573       0.0279595       0.0169003       0.0256434 
          3.068       0.0277846       0.0167322       0.0254096 
        3.08026       0.0276807       0.0165666       0.0252023 
        3.09254       0.0276342       0.0164029       0.0249934 
        3.10483       0.0275405       0.0162414       0.0247852 
         3.1171       0.0274976       0.0160823       0.0245678 
        3.12933       0.0272858       0.0159257       0.0243433 
        3.14159       0.0271973       0.0157709       0.0241635 
