# k  (h/Mpc)    Pcb(k)  (Mpc/h)^3    Pcb_linear(k) (Mpc/h)^3    Pcb_NL(k) (Mpc/h)^3   ShotnoiseSubtracted = false
      0.0156606         1678.18         1679.07         1671.08 
      0.0273761         1460.18         1453.16         1449.73 
      0.0384619         1109.43         1095.26         1094.61 
      0.0498308         871.081         861.698         861.718 
      0.0625568         735.023         732.445         731.715 
      0.0751274         633.308         622.345         620.737 
      0.0867833         504.191         501.083         500.924 
      0.0984825         406.694         396.558         397.684 
       0.111151         340.193         331.128          332.19 
       0.123864         305.516         298.419         299.108 
       0.135742         274.261         268.357         268.992 
        0.14762         232.982         229.461         231.106 
       0.160083         193.626         191.271           193.2 
       0.172465         170.105         166.944         169.232 
       0.184281         157.612         153.903         156.307 
       0.196406         143.907          142.13         143.936 
       0.209011         129.227          126.46         128.546 
       0.221538          114.31         110.514          113.46 
       0.233611         102.663          98.882         102.148 
       0.245665          96.176         91.2645         94.1555 
       0.258103         86.7791         84.9596         87.8307 
       0.270422         81.3529         78.0682         80.8348 
       0.282519         73.7845         70.8514         73.8382 
       0.294636         69.5099         64.5535         67.7025 
       0.306978         61.8482         59.7229         62.9673 
       0.319417         58.8341         55.8375         58.9817 
        0.33169         54.6765         52.1184         55.1528 
       0.343948         51.6251         48.2908           51.34 
       0.356249         47.2568         44.7011         48.1135 
       0.368458         44.8593         41.6945         44.7795 
        0.38068         41.9051         39.1801         42.2458 
       0.392856         39.2913         36.8848         39.9798 
       0.405069         37.1194         34.6405         37.6031 
       0.417459         34.4669         32.4674         35.5131 
       0.429752         32.9072         30.5167         33.5417 
       0.441978         31.2768         28.8046         31.9707 
       0.454294         29.1548         27.2498         30.2467 
        0.46658         28.6058          25.791         28.7483 
       0.478753         26.6622         24.4148         27.3714 
       0.490964         25.6652         23.1221         26.1809 
       0.503334         24.5222         21.9289         24.8516 
       0.515665         23.1528         20.8408         23.8946 
       0.527909         22.1626         19.8364         22.6585 
       0.540159         21.1119         18.8861          21.689 
        0.55248         19.7538         17.9845          20.709 
       0.564743         19.4393         17.1495         19.9782 
        0.57686         18.6915         16.3822         19.1439 
       0.589077          17.563         15.6578         18.4681 
       0.601441         16.8735         14.9691         17.7352 
        0.61382         16.2322         14.3196         16.9943 
       0.626067         15.5615         13.7136         16.3876 
       0.638306         15.0016          13.143         15.7552 
       0.650632         14.5958         12.6023         15.2303 
       0.662899         13.8899         12.0956          14.655 
       0.675076         13.2245         11.6208         14.1485 
       0.687267          12.915         11.1709         13.6292 
       0.699615         12.5083         10.7391         13.1851 
       0.711937         11.8548          10.331         12.7686 
       0.724148         11.7309         9.94751          12.368 
       0.736433          11.071         9.58161         11.9366 
       0.748747         10.7869         9.23358         11.6011 
       0.761037         10.5166         8.90367          11.241 
       0.773197         10.0597         8.59329         10.9286 
       0.785376         9.71461         8.29736         10.5928 
       0.797761         9.43529         8.01078           10.26 
       0.810096         9.17982         7.73888         10.0124 
       0.822371         8.94253         7.48092         9.68719 
       0.834626         8.63934         7.23519         9.42783 
       0.846916          8.3384         6.99992         9.17819 
       0.859215         8.02459         6.77503         8.94184 
       0.871383         7.82283         6.56231         8.71449 
        0.88363         7.62342          6.3575         8.47732 
       0.895928          7.4583         6.16071         8.24515 
       0.908253         7.23387         5.97191         8.04211 
       0.920535         6.98864          5.7917         7.82799 
       0.932774         6.84719         5.61959          7.6048 
        0.94508         6.62307         5.45364         7.44823 
       0.957324         6.46666         5.29524         7.28906 
        0.96953         6.24081         5.14364         7.10838 
       0.981769         6.11602         4.99762         6.92205 
       0.994071         5.98823          4.8566         6.77753 
         1.0064         5.77914         4.72081         6.62291 
        1.01868         5.63431         4.59063         6.46906 
        1.03092         5.52901         4.46596         6.31455 
         1.0432         5.32368          4.3455         6.18022 
        1.05553         5.22572         4.22903         6.05884 
        1.06777          5.0656         4.11769         5.93236 
           1.08          4.9805         4.01049         5.79857 
        1.09227         4.84415         3.90677         5.67204 
         1.1046         4.73185         3.80635         5.55364 
         1.1169         4.57943         3.70966         5.44271 
        1.12915         4.54501         3.61681         5.34701 
        1.14142         4.38585         3.52696         5.22313 
        1.15365         4.29861         3.44044         5.12771 
        1.16585         4.22977         3.35706         5.03488 
        1.17807         4.13193         3.27636         4.92574 
        1.19037          4.0024         3.19779         4.83136 
        1.20276         3.91975         3.12127         4.73265 
        1.21504         3.83664         3.04787         4.65945 
        1.22728         3.74759         2.97714         4.55975 
        1.23954         3.68304         2.90849         4.49637 
        1.25184          3.5964         2.84189         4.40114 
        1.26414         3.54098         2.77735         4.31505 
        1.27632         3.42835          2.7154         4.25427 
         1.2886         3.38814          2.6549         4.17296 
        1.30093         3.29885         2.59605         4.11022 
        1.31316         3.20916         2.53941         4.03277 
        1.32541         3.16769         2.48445          3.9728 
        1.33772          3.1118         2.43082         3.90028 
        1.35005         3.04967         2.37875         3.83853 
        1.36225         2.98793         2.32873         3.76914 
        1.37447         2.92515         2.28006         3.71811 
        1.38676          2.8619         2.23256         3.64994 
        1.39907         2.79849         2.18634         3.60042 
        1.41133         2.75137         2.14162         3.54235 
        1.42358         2.71132         2.09821         3.47926 
        1.43591         2.66463          2.0557         3.44119 
        1.44818         2.59657         2.01461          3.3848 
        1.46037         2.54181         1.97489         3.32866 
        1.47263         2.49702         1.93602         3.28274 
        1.48494         2.46066         1.89805          3.2337 
        1.49724         2.40826         1.86113          3.1836 
        1.50952         2.39358         1.82527         3.13764 
        1.52178         2.32896         1.79041         3.09777 
        1.53409         2.28207         1.75632         3.04469 
        1.54637         2.24287         1.72319         3.00241 
        1.55858         2.20712          1.6911         2.95547 
        1.57081         2.16907         1.65979         2.92113 
        1.58313         2.12479         1.62908         2.88156 
        1.59544         2.09319         1.59916         2.84341 
        1.60767          2.0635         1.57019         2.80324 
        1.61994         2.01752         1.54183         2.76769 
        1.63225         1.99082         1.51412         2.73135 
        1.64452         1.95701         1.48717         2.69234 
        1.65676         1.91542         1.46095         2.65883 
          1.669         1.89176         1.43535         2.62242 
        1.68133         1.84666         1.41021         2.59351 
        1.69363         1.83898         1.38574         2.55879 
        1.70585         1.80653           1.362         2.52602 
        1.71809         1.77993         1.33878         2.49409 
        1.73038         1.74419         1.31603         2.46243 
        1.74268         1.71287         1.29379         2.43252 
        1.75493           1.694         1.27216         2.40514 
        1.76714         1.66794         1.25109         2.37042 
        1.77942         1.63867         1.23039         2.34487 
        1.79173         1.61522          1.2101         2.31512 
        1.80402         1.59069         1.19031         2.28836 
         1.8163         1.57001         1.17098         2.26123 
         1.8286          1.5381         1.15205         2.23996 
         1.8409         1.52425         1.13354         2.21302 
        1.85315         1.50191         1.11551          2.1825 
        1.86537         1.47615         1.09791         2.16192 
        1.87765         1.45833         1.08062         2.13779 
        1.88995         1.43435         1.06366         2.11291 
        1.90221         1.41466         1.04713         2.08855 
        1.91445         1.39318         1.03097          2.0688 
        1.92674          1.3759          1.0151         2.04256 
        1.93902         1.35104        0.999565         2.01859 
        1.95124         1.33235        0.984436         1.99944 
         1.9635         1.31578        0.969582         1.97625 
        1.97583         1.29286        0.954942         1.95447 
        1.98812         1.27802        0.940658         1.93635 
        2.00039         1.25839        0.926696         1.91415 
        2.01264         1.23831        0.913031         1.89706 
        2.02492         1.22785        0.899621         1.87837 
        2.03717         1.21702        0.886503         1.85771 
        2.04942         1.19212        0.873664          1.8365 
        2.06171         1.17653        0.861036         1.81771 
        2.07397         1.16134        0.848686         1.80148 
        2.08629         1.14938        0.836526         1.78469 
        2.09857         1.13167        0.824633         1.76664 
        2.11081          1.1171        0.813021         1.74797 
        2.12309         1.10517        0.801605         1.73321 
        2.13538         1.09092        0.790391         1.71412 
        2.14763         1.08173         0.77943         1.69805 
        2.15986         1.06684        0.768702         1.68393 
        2.17214         1.04529        0.758132         1.66374 
        2.18443         1.03664        0.747752         1.65117 
        2.19671         1.02607        0.737578         1.63577 
        2.20898         1.01129        0.727606         1.62031 
        2.22126        0.998461        0.717807         1.60543 
        2.23354        0.985843        0.708193         1.59032 
         2.2458        0.976893        0.698771         1.57485 
        2.25807        0.962094        0.689512          1.5601 
        2.27035        0.954016        0.680413         1.54723 
        2.28263         0.93718        0.671483         1.53424 
         2.2949         0.92913        0.662718         1.51997 
        2.30718        0.920384        0.654107          1.5072 
        2.31946        0.906279        0.645644         1.49378 
        2.33169        0.896459        0.637368           1.481 
        2.34393        0.892508        0.629224         1.46823 
        2.35622        0.876191        0.621196         1.45548 
        2.36847        0.869911        0.613331         1.44292 
        2.38076        0.854861        0.605579          1.4304 
        2.39305        0.850986        0.597962         1.41804 
        2.40534        0.839203        0.590477         1.40659 
        2.41762        0.830422         0.58312         1.39388 
        2.42989        0.820376          0.5759         1.38416 
        2.44216        0.814641        0.568803         1.37225 
         2.4544        0.806694        0.561842         1.36117 
        2.46667        0.796364        0.554982         1.34992 
        2.47897        0.788283        0.548219         1.33854 
        2.49124        0.777379        0.541588         1.32773 
        2.50349        0.771544        0.535077         1.31668 
        2.51578        0.764297        0.528653          1.3055 
        2.52805         0.75427        0.522345         1.29589 
        2.54029        0.748527        0.516157         1.28542 
        2.55257         0.73971         0.51005         1.27579 
        2.56487        0.731733         0.50403         1.26643 
        2.57716        0.727278        0.498116         1.25555 
        2.58942        0.722212         0.49231         1.24683 
        2.60167        0.715128        0.486602         1.23684 
        2.61395        0.706826        0.480976         1.22735 
        2.62624        0.701275        0.475432         1.21872 
        2.63849        0.693423        0.469992         1.20906 
        2.65073        0.687123        0.464643          1.1998 
        2.66302         0.68261        0.459358          1.1904 
         2.6753        0.678618        0.454159         1.18215 
        2.68756        0.670893        0.449051         1.17428 
        2.69983        0.665489        0.444018         1.16544 
        2.71213        0.657158        0.439052         1.15707 
        2.72441        0.654475         0.43417         1.14844 
        2.73665        0.650559        0.429375         1.14116 
         2.7489        0.644035        0.424654         1.13343 
        2.76118         0.63886         0.41999         1.12389 
        2.77349        0.635152        0.415385         1.11647 
        2.78576        0.631875        0.410868         1.10844 
        2.79802        0.625979        0.406419         1.10014 
        2.81031         0.62196        0.402027         1.09369 
        2.82259        0.617639        0.397701         1.08504 
        2.83483        0.614209        0.393454         1.07783 
         2.8471        0.609425        0.389262         1.07016 
         2.8594        0.606865        0.385118         1.06322 
         2.8717        0.601771        0.381036         1.05672 
        2.88396        0.597789        0.377028         1.04929 
        2.89619         0.59507        0.373085         1.04227 
        2.90847        0.591768        0.369184         1.03555 
        2.92072        0.590747        0.365345         1.02856 
        2.93299        0.584249        0.361559         1.02117 
        2.94526         0.58407        0.357822         1.01478 
        2.95753         0.58177         0.35414          1.0085 
        2.96982        0.579286        0.350504         1.00148 
        2.98209         0.57724        0.346926        0.994889 
        2.99436          0.5745        0.343394         0.98864 
        3.00666        0.573844        0.339906        0.982505 
        3.01894        0.572674        0.336473        0.976654 
        3.03119        0.569258        0.333093        0.969938 
        3.04345        0.567435        0.329759        0.963779 
        3.05573        0.567007        0.326463        0.958589 
          3.068        0.565391        0.323217        0.952598 
        3.08026        0.565939        0.320017        0.946216 
        3.09254        0.564169        0.316855        0.939919 
        3.10483        0.562579        0.313735        0.934445 
         3.1171        0.563793        0.310662        0.929203 
        3.12933        0.563377        0.307638        0.923412 
        3.14159        0.563468        0.304648         0.91775 
