# k  (h/Mpc)    Pcb(k)  (Mpc/h)^3    Pcb_linear(k) (Mpc/h)^3    Pcb_NL(k) (Mpc/h)^3   ShotnoiseSubtracted = false
      0.0156606         17885.6         17967.8         17837.3 
      0.0273761         15361.3         15535.6         15392.3 
      0.0384619           11631         11704.4         11581.7 
      0.0498308         9000.38         9206.34         9084.38 
      0.0625568         7601.24         7824.24         7714.19 
      0.0751274         6749.23         6647.53         6491.48 
      0.0867833         5241.04         5351.99         5305.34 
      0.0984825         4402.54         4235.41         4282.35 
       0.111151         3752.69         3536.48         3591.92 
       0.123864         3364.34         3187.08          3232.4 
       0.135742         3058.82         2865.98         2911.84 
        0.14762         2653.32         2450.55         2572.15 
       0.160083         2238.33         2042.67          2190.3 
       0.172465         1996.49         1782.86         1970.05 
       0.184281         1818.68         1643.59         1833.18 
       0.196406         1700.04         1517.85         1684.96 
       0.209011         1582.12          1350.5         1524.82 
       0.221538         1426.64         1180.21         1416.19 
       0.233611         1355.51         1055.98         1321.38 
       0.245665         1234.34         974.627         1218.18 
       0.258103         1206.58         907.294         1148.65 
       0.270422         1079.86         833.697         1076.24 
       0.282519         1012.16         756.627         1013.37 
       0.294636         999.537         689.371         957.142 
       0.306978         905.093         637.784         914.791 
       0.319417         881.188         596.291         861.725 
        0.33169         829.859         556.574         814.011 
       0.343948         793.114         515.698         787.154 
       0.356249         748.186         477.363         756.274 
       0.368458         723.212         445.255         719.292 
        0.38068         704.574         418.404         690.164 
       0.392856         666.416         393.892         664.336 
       0.405069         635.531         369.925         643.789 
       0.417459         610.503         346.718         616.887 
       0.429752         600.112         325.886         594.969 
       0.441978         579.655         307.602         578.793 
       0.454294         551.145         290.999         554.317 
        0.46658         537.638         275.421         541.855 
       0.478753         524.197         260.724         524.378 
       0.490964         504.259         246.919         507.694 
       0.503334         479.208         234.177         495.152 
       0.515665         478.144         222.558         484.395 
       0.527909         459.633         211.832          472.18 
       0.540159         447.941         201.684         459.267 
        0.55248         439.094         192.055         447.001 
       0.564743         434.527         183.139         439.054 
        0.57686         417.908         174.944         426.764 
       0.589077          405.92         167.209         417.221 
       0.601441         400.343         159.853         408.269 
        0.61382         391.292         152.918         400.884 
       0.626067         385.728         146.447         392.549 
       0.638306         370.188         140.353         384.982 
       0.650632         365.319         134.579         374.494 
       0.662899         362.049         129.168         370.057 
       0.675076         348.276         124.097         363.703 
       0.687267         339.414         119.293         355.088 
       0.699615         335.283         114.682         349.285 
       0.711937         330.146         110.324         342.995 
       0.724148         319.188         106.229         337.929 
       0.736433         311.976         102.321         331.366 
       0.748747         307.579         98.6044          325.23 
       0.761037         301.701         95.0813         320.557 
       0.773197         298.009         91.7668         315.959 
       0.785376         293.363         88.6066         310.754 
       0.797761          285.78         85.5463         305.897 
       0.810096         283.068         82.6426         301.864 
       0.822371         272.897         79.8879         296.871 
       0.834626          271.81         77.2638         292.764 
       0.846916         265.869         74.7514         288.398 
       0.859215         265.682         72.3498         284.273 
       0.871383          258.52         70.0782         280.129 
        0.88363          256.88         67.8911         277.241 
       0.895928         251.209         65.7895          272.83 
       0.908253         244.596         63.7734         268.442 
       0.920535          242.89         61.8489         264.922 
       0.932774         236.065          60.011         261.249 
        0.94508         233.439         58.2388         258.526 
       0.957324         232.544         56.5472         254.808 
        0.96953         229.117         54.9283         251.373 
       0.981769          222.26          53.369         248.904 
       0.994071         221.312         51.8631         245.715 
         1.0064         216.425          50.413         242.055 
        1.01868         213.576         49.0228         239.133 
        1.03092          208.64         47.6915         236.777 
         1.0432         205.062         46.4051         233.877 
        1.05553         202.341         45.1613         230.869 
        1.06777         201.775         43.9723         228.503 
           1.08         196.699         42.8275         225.695 
        1.09227         194.354           41.72         223.174 
         1.1046         191.424         40.6476         220.878 
         1.1169         187.557          39.615         217.847 
        1.12915         184.914         38.6235         215.878 
        1.14142         181.931          37.664         213.087 
        1.15365         179.342         36.7401         210.845 
        1.16585         176.673         35.8497         208.158 
        1.17807         174.385         34.9879         206.496 
        1.19037         172.661         34.1488         204.488 
        1.20276         170.023         33.3317         201.908 
        1.21504         166.578         32.5478         199.734 
        1.22728         163.459         31.7925         197.179 
        1.23954         162.929         31.0595         195.761 
        1.25184         159.779         30.3482         193.527 
        1.26414         157.067          29.659         191.527 
        1.27632          156.46         28.9974         190.237 
         1.2886         154.396         28.3514         187.722 
        1.30093           149.9         27.7229         185.645 
        1.31316         148.105          27.118         183.546 
        1.32541         146.571         26.5312         182.117 
        1.33772         145.158         25.9585         180.175 
        1.35005         142.829         25.4023         178.152 
        1.36225         140.743         24.8682         176.541 
        1.37447         138.663         24.3484         174.451 
        1.38676          136.93         23.8412         172.907 
        1.39907         134.519         23.3476         171.123 
        1.41133         132.464         22.8701         169.618 
        1.42358         130.663         22.4065         168.027 
        1.43591         129.161         21.9526         166.189 
        1.44818         127.634         21.5138         164.733 
        1.46037          125.49         21.0896         163.016 
        1.47263         124.139         20.6745          161.76 
        1.48494          122.15          20.269          159.84 
        1.49724         120.483         19.8748         158.447 
        1.50952         118.263         19.4918         156.952 
        1.52178          117.75         19.1195         155.307 
        1.53409         115.251         18.7555         154.028 
        1.54637         113.852         18.4017         152.712 
        1.55858         111.783         18.0591         151.105 
        1.57081         110.303         17.7247          149.83 
        1.58313         108.949         17.3967         148.334 
        1.59544         107.507         17.0772         147.052 
        1.60767         106.277         16.7678          145.64 
        1.61994         104.402          16.465         144.564 
        1.63225         103.101         16.1691         142.874 
        1.64452         101.185         15.8813         141.609 
        1.65676          99.722         15.6013         140.457 
          1.669         99.1218          15.328         139.299 
        1.68133         97.0123         15.0594         137.997 
        1.69363         96.0358         14.7981          136.79 
        1.70585         94.2481         14.5447         135.559 
        1.71809         93.0924         14.2967         134.222 
        1.73038         92.3713         14.0537         133.113 
        1.74268         91.1019         13.8162         131.887 
        1.75493         89.4711         13.5853         130.722 
        1.76714         88.2686         13.3602         129.675 
        1.77942         87.1697         13.1391         128.387 
        1.79173         85.8422         12.9225         127.391 
        1.80402         85.1627         12.7112         126.305 
         1.8163         83.4424         12.5048         125.086 
         1.8286         82.2764         12.3025         124.029 
         1.8409         81.6371          12.105         122.939 
        1.85315         80.2858         11.9124         121.962 
        1.86537         79.3155         11.7244         120.934 
        1.87765         78.6153         11.5398         119.853 
        1.88995         77.2764         11.3587         118.881 
        1.90221         76.2224         11.1821         117.857 
        1.91445         75.0975         11.0096         116.796 
        1.92674         73.8912         10.8401         115.851 
        1.93902         72.9947         10.6742         114.811 
        1.95124         72.2913         10.5127         113.918 
         1.9635         71.1717          10.354         112.827 
        1.97583         70.1112         10.1977         112.021 
        1.98812         69.1926         10.0452         111.061 
        2.00039         68.2478         9.89607         110.114 
        2.01264         67.6198         9.75014         109.191 
        2.02492         66.6469         9.60694         108.278 
        2.03717         65.5334         9.46686         107.333 
        2.04942         65.2223         9.32975          106.57 
        2.06171         63.7687          9.1949         105.639 
        2.07397         63.0732           9.063         104.815 
        2.08629         62.3429         8.93315           103.9 
        2.09857         61.3721         8.80615         103.079 
        2.11081         60.4287         8.68215         102.135 
        2.12309         59.8491         8.56023         101.445 
        2.13538         59.0006         8.44049         100.572 
        2.14763          58.185         8.32343         99.7665 
        2.15986         57.1155         8.20887         98.9314 
        2.17214         56.7146           8.096          98.114 
        2.18443         56.0111         7.98514         97.4608 
        2.19671         54.9803          7.8765         96.6229 
        2.20898         54.7504         7.77001         95.8305 
        2.22126         53.8715         7.66537         95.0426 
        2.23354         53.1731          7.5627         94.3305 
         2.2458          52.457         7.46208         93.6136 
        2.25807          51.742         7.36321         92.8174 
        2.27035         51.2029         7.26605         92.0759 
        2.28263         50.4087         7.17068          91.347 
         2.2949         49.9541         7.07708         90.6388 
        2.30718         48.9926         6.98512         89.9658 
        2.31946         48.6042         6.89475         89.2543 
        2.33169         47.8138         6.80637         88.5653 
        2.34393         47.2015          6.7194         87.8982 
        2.35622          46.754         6.63367         87.2078 
        2.36847         46.2082         6.54968           86.61 
        2.38076         45.4518          6.4669         85.8482 
        2.39305         44.9278         6.38556         85.2512 
        2.40534         44.4567         6.30562         84.5509 
        2.41762         43.9497         6.22707         83.8634 
        2.42989         43.4326         6.14996         83.3086 
        2.44216         42.9381         6.07418         82.6371 
         2.4544           42.38         5.99984         82.0053 
        2.46667         41.9062         5.92658         81.3594 
        2.47897         41.4312         5.85436         80.7599 
        2.49124         40.8665         5.78355         80.1782 
        2.50349         40.4817         5.71402         79.5448 
        2.51578         39.8948         5.64541         79.0298 
        2.52805         39.4892         5.57806         78.3943 
        2.54029         39.0454         5.51197         77.7672 
        2.55257         38.4584         5.44676         77.2346 
        2.56487         38.1373         5.38247         76.6997 
        2.57716         37.6403         5.31932         76.1468 
        2.58942         37.1291         5.25731         75.5616 
        2.60167         36.8245         5.19636         75.0092 
        2.61395         36.3097         5.13628         74.4667 
        2.62624         36.1047         5.07707         73.8883 
        2.63849          35.665         5.01898         73.3752 
        2.65073         35.2917         4.96186         72.8244 
        2.66302         34.7898         4.90543         72.2925 
         2.6753         34.3842         4.84991         71.7833 
        2.68756         33.9867         4.79536         71.2377 
        2.69983         33.7433         4.74161         70.7721 
        2.71213          33.382         4.68858         70.2809 
        2.72441         33.0137         4.63645         69.7597 
        2.73665         32.5851         4.58524          69.254 
         2.7489          32.512         4.53483         68.7684 
        2.76118         32.0075         4.48502         68.2966 
        2.77349         31.8111         4.43585         67.8066 
        2.78576         31.5528          4.3876         67.3041 
        2.79802         31.1368          4.3401         66.8862 
        2.81031         30.8064         4.29319         66.3996 
        2.82259         30.7278         4.24699         65.9103 
        2.83483         30.2989         4.20165         65.4788 
         2.8471         29.9725         4.15688         65.0279 
         2.8594         29.8206         4.11263         64.5619 
         2.8717         29.6085         4.06903         64.1241 
        2.88396         29.2929         4.02624         63.6676 
        2.89619         29.1071         3.98413         63.2037 
        2.90847         28.8711         3.94247         62.7823 
        2.92072         28.6413         3.90147         62.3639 
        2.93299         28.4623         3.86104         61.9354 
        2.94526         28.2031         3.82114         61.5263 
        2.95753         28.0417         3.78182         61.1094 
        2.96982         27.9394         3.74298         60.6907 
        2.98209         27.6498         3.70477         60.2868 
        2.99436         27.5027         3.66706         59.8573 
        3.00666         27.3907         3.62981         59.4684 
        3.01894         27.1692         3.59316         59.0543 
        3.03119         27.0404         3.55706         58.6695 
        3.04345         26.8806         3.52145         58.3024 
        3.05573         26.7562         3.48626          57.915 
          3.068         26.7195         3.45159         57.5251 
        3.08026         26.5339         3.41742         57.1378 
        3.09254         26.4226         3.38366         56.7606 
        3.10483          26.433         3.35034         56.3955 
         3.1171         26.2707         3.31752         56.0278 
        3.12933         26.2516         3.28523         55.6504 
        3.14159         26.1149         3.25329         55.2775 
