# k  (h/Mpc)    Pcb(k)  (Mpc/h)^3    Pcb_linear(k) (Mpc/h)^3    Pcb_NL(k) (Mpc/h)^3   ShotnoiseSubtracted = false
      0.0156606         19790.2         19890.3         19739.7 
      0.0273761         16978.9           17197         17024.2 
      0.0384619         12847.1         12955.9           12805 
      0.0498308         9930.53         10190.5         10039.6 
      0.0625568         8388.13         8660.59         8525.38 
      0.0751274         7459.88         7358.05         7167.31 
      0.0867833         5784.99         5924.01         5865.86 
      0.0984825         4874.62         4688.08         4742.78 
       0.111151         4162.66         3914.45         3980.81 
       0.123864         3730.27          3527.7         3581.64 
       0.135742         3396.46         3172.27          3226.6 
        0.14762         2951.87         2712.45         2856.79 
       0.160083         2498.97         2260.98          2437.7 
       0.172465         2228.94          1973.4         2198.04 
       0.184281         2024.97         1819.24         2045.55 
       0.196406         1901.74         1680.06         1882.16 
       0.209011         1774.72         1494.82         1704.76 
       0.221538         1599.21         1306.33         1588.05 
       0.233611         1526.86         1168.83         1485.38 
       0.245665         1386.54         1078.78         1370.61 
       0.258103         1364.95         1004.25         1293.35 
       0.270422         1218.78         922.792         1213.63 
       0.282519         1147.14         837.486         1146.12 
       0.294636         1129.78         763.042         1084.32 
       0.306978         1027.79         705.942         1037.91 
       0.319417         1004.15         660.015         978.196 
        0.33169         944.806         616.053         925.293 
       0.343948         904.846         570.809         896.016 
       0.356249         855.639         528.378         861.975 
       0.368458          824.58         492.838         821.898 
        0.38068         807.592         463.117         789.715 
       0.392856         765.387         435.986         761.237 
       0.405069          727.95         409.458         737.336 
       0.417459          699.85         383.771         709.056 
       0.429752         692.273         360.713         684.138 
       0.441978          668.19         340.475         666.259 
       0.454294         637.216         322.097         638.658 
        0.46658         619.945         304.854         625.057 
       0.478753         606.534         288.586         605.559 
       0.490964         582.982         273.307         586.762 
       0.503334         556.229         259.203         573.054 
       0.515665         554.802         246.342         560.455 
       0.527909         532.455         234.469          547.59 
       0.540159         518.903         223.237          533.15 
        0.55248         508.661         212.579         519.151 
       0.564743         504.364          202.71         510.229 
        0.57686         486.018          193.64         496.407 
       0.589077         474.465         185.078         485.324 
       0.601441         466.069         176.936         475.441 
        0.61382         454.152          169.26         467.129 
       0.626067         448.521         162.097         457.916 
       0.638306         431.446         155.352         448.889 
       0.650632         426.828         148.961         437.417 
       0.662899         423.011         142.972         432.297 
       0.675076         407.801         137.359         425.664 
       0.687267         396.906         132.041         415.506 
       0.699615         393.555         126.938         408.913 
       0.711937         386.918         122.113         401.428 
       0.724148         373.879         117.581         395.731 
       0.736433         365.152         113.256         388.403 
       0.748747         360.402         109.142         381.389 
       0.761037         353.585         105.242         376.401 
       0.773197         349.024         101.574         370.629 
       0.785376         343.746         98.0756         364.992 
       0.797761           334.1         94.6883          359.24 
       0.810096         331.319         91.4743         354.732 
       0.822371          320.64         88.4252         348.897 
       0.834626         318.521         85.5207         344.462 
       0.846916         312.145         82.7397         339.178 
       0.859215         310.765         80.0815         334.321 
       0.871383         302.885         77.5671          329.72 
        0.88363         300.703         75.1463          326.34 
       0.895928         294.938         72.8201         321.171 
       0.908253         287.471         70.5885         316.018 
       0.920535         284.006         68.4585         312.159 
       0.932774         277.751         66.4241         307.673 
        0.94508         274.031         64.4626         304.483 
       0.957324         272.456         62.5902         300.301 
        0.96953         268.501         60.7983         296.521 
       0.981769         261.172         59.0723         293.398 
       0.994071         260.165         57.4055          289.73 
         1.0064         254.634         55.8004         285.487 
        1.01868         251.684         54.2617         281.874 
        1.03092         244.568         52.7881         279.291 
         1.0432         241.402         51.3642         275.901 
        1.05553         238.458         49.9875         272.205 
        1.06777         236.872         48.6714         269.308 
           1.08         231.094         47.4043         266.194 
        1.09227         229.149         46.1784         263.041 
         1.1046         225.353         44.9914         260.457 
         1.1169         220.204         43.8485          256.92 
        1.12915         217.326          42.751         254.547 
        1.14142         213.514          41.689         251.362 
        1.15365         210.682         40.6663         248.711 
        1.16585         207.099         39.6808          245.72 
        1.17807         204.771         38.7269         243.476 
        1.19037         202.189         37.7981         241.274 
        1.20276         199.308         36.8937          238.15 
        1.21504         194.987         36.0261         235.545 
        1.22728         191.777           35.19         232.617 
        1.23954         190.929         34.3786         230.784 
        1.25184         186.959         33.5914         228.236 
        1.26414         183.422         32.8285         225.976 
        1.27632         182.548         32.0962         224.154 
         1.2886         180.974         31.3812         221.403 
        1.30093         175.905         30.6855         218.803 
        1.31316         172.706          30.016         216.414 
        1.32541         171.496         29.3664          214.51 
        1.33772         169.439         28.7325         212.346 
        1.35005         166.835          28.117         209.965 
        1.36225         163.903         27.5258         208.024 
        1.37447         161.606         26.9505         205.481 
        1.38676         159.732          26.389         203.878 
        1.39907         157.214         25.8427         201.578 
        1.41133         154.503         25.3142         199.645 
        1.42358         152.655          24.801         197.764 
        1.43591         150.804         24.2986         195.776 
        1.44818         148.276         23.8129         193.902 
        1.46037         146.511         23.3433         191.856 
        1.47263         144.274         22.8839         190.275 
        1.48494         142.281         22.4351          187.94 
        1.49724         140.248         21.9987         186.551 
        1.50952         137.665         21.5748         184.643 
        1.52178         136.911         21.1627         182.628 
        1.53409         133.949         20.7598         181.109 
        1.54637         132.328         20.3682         179.605 
        1.55858         130.214          19.989         177.648 
        1.57081         128.233         19.6189         176.107 
        1.58313         126.513         19.2558         174.312 
        1.59544         124.366         18.9022         172.776 
        1.60767          123.37         18.5597         171.187 
        1.61994         121.061         18.2246         169.717 
        1.63225         119.518          17.897         167.857 
        1.64452         117.344         17.5784         166.354 
        1.65676         115.672         17.2686         164.942 
          1.669         114.765          16.966         163.497 
        1.68133         112.316         16.6688         162.001 
        1.69363         110.689         16.3795         160.554 
        1.70585         108.763          16.099         159.135 
        1.71809         107.446         15.8245          157.44 
        1.73038          106.63         15.5555         156.183 
        1.74268         105.453         15.2926         154.688 
        1.75493         102.766         15.0371         153.372 
        1.76714         102.081          14.788          152.11 
        1.77942         100.295         14.5433         150.573 
        1.79173         98.7854         14.3035          149.34 
        1.80402           97.93         14.0696         148.023 
         1.8163         95.8348         13.8411         146.712 
         1.8286         94.5955         13.6173         145.372 
         1.8409         93.9265         13.3986         144.031 
        1.85315         92.0499         13.1854         142.877 
        1.86537         91.1481         12.9774         141.691 
        1.87765          90.133          12.773         140.475 
        1.88995           88.55         12.5726         139.214 
        1.90221         87.3352         12.3771         138.064 
        1.91445         86.2569         12.1862         136.757 
        1.92674         84.8058         11.9986         135.609 
        1.93902         83.6737         11.8149         134.394 
        1.95124         82.7123         11.6361         133.275 
         1.9635         81.3464         11.4605         132.079 
        1.97583          80.105         11.2875         131.027 
        1.98812         79.0947         11.1187          129.98 
        2.00039         78.1452         10.9536         128.802 
        2.01264         77.1674         10.7921         127.739 
        2.02492         76.3159         10.6336         126.613 
        2.03717         74.9853         10.4785         125.566 
        2.04942         74.4819         10.3268         124.595 
        2.06171         72.7776         10.1775         123.512 
        2.07397         72.0094         10.0315         122.527 
        2.08629         71.1504          9.8878         121.463 
        2.09857         70.0896         9.74723         120.487 
        2.11081         68.9085         9.60997         119.373 
        2.12309         67.9675         9.47503         118.536 
        2.13538         67.1309         9.34248         117.495 
        2.14763         66.2725         9.21292         116.559 
        2.15986         65.2233         9.08612         115.542 
        2.17214         64.5645         8.96118         114.601 
        2.18443         63.7346         8.83848         113.833 
        2.19671         62.5945         8.71823         112.857 
        2.20898          62.097         8.60036         111.876 
        2.22126         61.1683         8.48454         110.999 
        2.23354         60.4727         8.37089         110.133 
         2.2458         59.4048         8.25953         109.264 
        2.25807         58.6732         8.15009         108.355 
        2.27035         57.9175         8.04254          107.47 
        2.28263         57.1364         7.93698         106.631 
         2.2949         56.3688         7.83338         105.797 
        2.30718         55.4482         7.73159         104.984 
        2.31946         55.0982         7.63156         104.095 
        2.33169         54.0837         7.53373         103.302 
        2.34393         53.6028         7.43747         102.544 
        2.35622         52.6701         7.34259         101.725 
        2.36847         52.2798         7.24962         101.031 
        2.38076         51.3714         7.15798          100.11 
        2.39305         50.7901         7.06796         99.4327 
        2.40534         50.1732         6.97948         98.6136 
        2.41762         49.5922         6.89252         97.8089 
        2.42989         48.8432         6.80718         97.1269 
        2.44216         48.3308          6.7233         96.3252 
         2.4544         47.6152         6.64102         95.6086 
        2.46667          47.075         6.55993         94.8626 
        2.47897         46.5563         6.47999         94.1183 
        2.49124         46.0036         6.40161          93.447 
        2.50349         45.6515         6.32465         92.7177 
        2.51578         44.8622         6.24871         92.1106 
        2.52805         44.3579         6.17416         91.3397 
        2.54029         43.9211         6.10101         90.6115 
        2.55257         43.3171         6.02883         89.9933 
        2.56487         43.0003         5.95767         89.3624 
        2.57716         42.3244         5.88777         88.6928 
        2.58942         41.7468         5.81914         88.0167 
        2.60167         41.3668         5.75167         87.3788 
        2.61395         40.8102         5.68518         86.7417 
        2.62624          40.413         5.61964         86.0442 
        2.63849          39.903         5.55534         85.4358 
        2.65073          39.554         5.49212         84.8086 
        2.66302          39.048         5.42965         84.1704 
         2.6753         38.6366          5.3682          83.587 
        2.68756         38.2228         5.30782         82.9574 
        2.69983         37.7652         5.24833         82.3948 
        2.71213          37.404         5.18963         81.8065 
        2.72441         37.0244         5.13193         81.2037 
        2.73665         36.5111         5.07524         80.6319 
         2.7489         36.2351         5.01945         80.0611 
        2.76118         35.8375         4.96432         79.4904 
        2.77349         35.4565         4.90989         78.9239 
        2.78576         35.1571         4.85649         78.3285 
        2.79802         34.8111         4.80391         77.8548 
        2.81031         34.3702         4.75198         77.2814 
        2.82259         34.2585         4.70085         76.7083 
        2.83483         33.7847         4.65066         76.2171 
         2.8471         33.4849         4.60111          75.669 
         2.8594          33.196         4.55213         75.1185 
         2.8717         33.0439         4.50387         74.6237 
        2.88396         32.6345          4.4565         74.0966 
        2.89619         32.4852          4.4099         73.5436 
        2.90847         32.0921         4.36378         73.0243 
        2.92072         31.9201          4.3184         72.5636 
        2.93299         31.7503         4.27365         72.0766 
        2.94526         31.3991         4.22949         71.5808 
        2.95753         31.1986         4.18596         71.0794 
        2.96982         30.9691         4.14298         70.5997 
        2.98209         30.7338         4.10069         70.1351 
        2.99436         30.5041         4.05895         69.6242 
        3.00666         30.4723         4.01772         69.1639 
        3.01894         30.1462         3.97714         68.6901 
        3.03119         30.1031         3.93718          68.247 
        3.04345         29.9782         3.89777         67.8118 
        3.05573         29.6311         3.85882          67.353 
          3.068         29.6344         3.82044         66.9021 
        3.08026         29.4562         3.78263         66.4517 
        3.09254         29.3911         3.74525         66.0194 
        3.10483          29.355         3.70838         65.5907 
         3.1171         29.1576         3.67205         65.1543 
        3.12933         29.0768          3.6363         64.7167 
        3.14159         28.9599         3.60096         64.2748 
