# k  (h/Mpc)    Pcb(k)  (Mpc/h)^3    Pcb_linear(k) (Mpc/h)^3    Pcb_NL(k) (Mpc/h)^3   ShotnoiseSubtracted = false
      0.0156606         241.447         242.249         241.137 
      0.0273761          210.78         209.776         209.362 
      0.0384619         160.034         158.143         158.148 
      0.0498308         126.129         124.431         124.525 
      0.0625568         106.499         105.773         105.733 
      0.0751274         90.8543          89.876         89.7428 
      0.0867833         72.9633         72.3654         72.3542 
      0.0984825         58.2634         57.2709         57.3658 
       0.111151         48.6598         47.8219         47.9052 
       0.123864         43.6772         43.0983         43.1266 
       0.135742         39.1827         38.7569         38.7701 
        0.14762         33.4083         33.1396         33.2217 
       0.160083         27.8561         27.6241         27.7362 
       0.172465         24.3468         24.1108           24.24 
       0.184281         22.4786         22.2274         22.3548 
       0.196406         20.6262         20.5271         20.6147 
       0.209011         18.4149          18.264         18.3707 
       0.221538         16.1777         15.9611         16.1209 
       0.233611         14.4715         14.2811         14.4587 
       0.245665         13.4396         13.1809         13.3353 
       0.258103         12.3121         12.2703         12.4212 
       0.270422         11.4149         11.2751          11.419 
       0.282519         10.3646         10.2328         10.3921 
       0.294636         9.54558         9.32321         9.49211 
       0.306978         8.67638         8.62554         8.79887 
       0.319417         8.17972          8.0644         8.23199 
        0.33169         7.61918         7.52726         7.68811 
       0.343948         7.10591         6.97445         7.13426 
       0.356249         6.52886         6.45601         6.64078 
       0.368458          6.1271         6.02178         6.18436 
        0.38068         5.72623         5.65863          5.8204 
       0.392856         5.39706         5.32714          5.4904 
       0.405069         5.09322           5.003         5.15677 
       0.417459         4.70734         4.68915         4.85175 
       0.429752         4.45696         4.40741         4.56711 
       0.441978         4.22573         4.16014         4.32968 
       0.454294         3.97437         3.93559          4.0955 
        0.46658         3.79831          3.7249         3.88085 
       0.478753         3.58252         3.52614          3.6809 
       0.490964         3.41638         3.33944         3.50407 
       0.503334         3.25125         3.16711         3.32063 
       0.515665         3.06349         3.00997         3.17188 
       0.527909         2.93783          2.8649           3.014 
       0.540159         2.78052         2.72766          2.8741 
        0.55248         2.63585         2.59743         2.73725 
       0.564743         2.54816         2.47685         2.62751 
        0.57686         2.43057         2.36602         2.51043 
       0.589077         2.29869         2.26141         2.41108 
       0.601441         2.21161         2.16193         2.30799 
        0.61382         2.11677         2.06814         2.20866 
       0.626067         2.01941         1.98061         2.11964 
       0.638306         1.94422          1.8982         2.03429 
       0.650632         1.87748         1.82011         1.95832 
       0.662899         1.80263         1.74693         1.88014 
       0.675076         1.71353         1.67835         1.81125 
       0.687267         1.64495         1.61337         1.73947 
       0.699615         1.60143         1.55101         1.67579 
       0.711937         1.53394         1.49207         1.61998 
       0.724148         1.48722         1.43669         1.56159 
       0.736433         1.42286         1.38384         1.50357 
       0.748747         1.37323         1.33357         1.45779 
       0.761037         1.32047         1.28593           1.406 
       0.773197         1.27337          1.2411         1.36277 
       0.785376         1.22868         1.19836         1.31658 
       0.797761          1.1877         1.15697          1.2709 
       0.810096         1.15961          1.1177          1.2355 
       0.822371         1.12187         1.08044         1.19283 
       0.834626         1.08676         1.04495         1.15504 
       0.846916         1.05104         1.01097         1.12414 
       0.859215         1.00899        0.978495         1.09133 
       0.871383        0.979129        0.947772         1.05742 
        0.88363        0.949902        0.918193         1.02696 
       0.895928        0.924732         0.88977        0.996087 
       0.908253        0.898008        0.862503        0.968194 
       0.920535        0.871335        0.836476        0.939311 
       0.932774        0.843582        0.811618        0.911394 
        0.94508        0.821343        0.787651        0.887316 
       0.957324        0.799795        0.764773        0.865707 
        0.96953         0.77249        0.742878        0.841834 
       0.981769        0.750511         0.72179        0.817079 
       0.994071        0.731158        0.701423        0.799073 
         1.0064        0.710185        0.681811        0.776904 
        1.01868        0.692063         0.66301        0.757231 
        1.03092        0.676888        0.645004        0.736391 
         1.0432        0.659614        0.627606        0.718619 
        1.05553        0.638943        0.610785        0.702064 
        1.06777        0.621803        0.594704        0.685068 
           1.08        0.610075        0.579221        0.667687 
        1.09227        0.590633        0.564242        0.651162 
         1.1046        0.576548        0.549739        0.636808 
         1.1169        0.562324        0.535773        0.621616 
        1.12915        0.547384        0.522364        0.607168 
        1.14142        0.537573        0.509387        0.593114 
        1.15365        0.524439        0.496892        0.580119 
        1.16585        0.510874         0.48485         0.56649 
        1.17807        0.501844        0.473194        0.554751 
        1.19037        0.484906        0.461846        0.541598 
        1.20276        0.476433        0.450795        0.528755 
        1.21504        0.466927        0.440194        0.519772 
        1.22728        0.457889        0.429978        0.506575 
        1.23954          0.4462        0.420064        0.497761 
        1.25184        0.438505        0.410445        0.485884 
        1.26414        0.428287        0.401123        0.475603 
        1.27632        0.415766        0.392176        0.466171 
         1.2886        0.405674        0.383439        0.455762 
        1.30093        0.397287        0.374939        0.448205 
        1.31316        0.387347        0.366758        0.438548 
        1.32541        0.380221        0.358821        0.430425 
        1.33772        0.372987        0.351076        0.421896 
        1.35005        0.367456        0.343554        0.413889 
        1.36225        0.359334        0.336331        0.405275 
        1.37447        0.352529        0.329301         0.39836 
        1.38676        0.346035        0.322441        0.389966 
        1.39907        0.338719        0.315765        0.383188 
        1.41133        0.330642        0.309308        0.375978 
        1.42358         0.32607        0.303038        0.368139 
        1.43591        0.319666        0.296898        0.362892 
        1.44818        0.313146        0.290964        0.356321 
        1.46037        0.307124        0.285227        0.348979 
        1.47263        0.301102        0.279613        0.343312 
        1.48494        0.295457        0.274129        0.337501 
        1.49724        0.289966        0.268797        0.331628 
        1.50952        0.284104        0.263617        0.324674 
        1.52178        0.279587        0.258582         0.31952 
        1.53409        0.275086        0.253659        0.314156 
        1.54637        0.268975        0.248874        0.308465 
        1.55858        0.264978         0.24424        0.303388 
        1.57081          0.2603        0.239718        0.298025 
        1.58313        0.256441        0.235282        0.293705 
        1.59544        0.252177        0.230961        0.288436 
        1.60767         0.24776        0.226777        0.283796 
        1.61994        0.242188        0.222682        0.279586 
        1.63225        0.237752        0.218679        0.275152 
        1.64452        0.235234        0.214786        0.270341 
        1.65676        0.231881        0.211001        0.266233 
          1.669        0.228028        0.207304        0.261757 
        1.68133        0.223452        0.203672        0.257989 
        1.69363        0.219574        0.200137        0.253945 
        1.70585        0.215987         0.19671        0.250031 
        1.71809        0.212551        0.193356        0.246091 
        1.73038        0.209729        0.190069        0.242468 
        1.74268        0.205369        0.186857        0.238491 
        1.75493        0.204172        0.183734        0.235455 
        1.76714        0.199916        0.180691        0.231763 
        1.77942        0.197508        0.177701        0.228388 
        1.79173        0.194519        0.174771        0.224642 
        1.80402        0.190967        0.171913        0.221598 
         1.8163        0.188481        0.169121        0.217889 
         1.8286         0.18551        0.166386        0.215678 
         1.8409        0.182574        0.163714        0.212105 
        1.85315        0.180577         0.16111        0.209052 
        1.86537        0.176678        0.158567        0.206189 
        1.87765         0.17429         0.15607         0.20325 
        1.88995        0.172907        0.153621        0.200643 
        1.90221        0.170654        0.151233        0.197681 
        1.91445        0.167196          0.1489        0.195084 
        1.92674        0.164868        0.146608        0.192429 
        1.93902        0.162424        0.144364        0.189592 
        1.95124        0.160073        0.142179        0.187064 
         1.9635        0.158064        0.140034        0.184487 
        1.97583        0.156356        0.137919        0.181932 
        1.98812        0.153931        0.135856         0.17995 
        2.00039        0.152596         0.13384        0.177263 
        2.01264        0.150184        0.131866        0.175083 
        2.02492        0.148784        0.129929        0.172795 
        2.03717        0.145932        0.128035        0.170573 
        2.04942        0.144477        0.126181        0.168269 
        2.06171        0.142376        0.124357        0.166114 
        2.07397         0.14017        0.122573        0.164109 
        2.08629        0.138735        0.120817        0.161937 
        2.09857        0.137152        0.119099        0.159967 
        2.11081        0.135593        0.117422        0.157724 
        2.12309        0.133353        0.115773        0.156123 
        2.13538        0.131991        0.114154         0.15404 
        2.14763        0.130505        0.112571        0.152245 
        2.15986        0.128681        0.111021        0.150457 
        2.17214        0.127148        0.109495         0.14854 
        2.18443        0.126125        0.107995        0.146678 
        2.19671        0.124228        0.106526        0.145087 
        2.20898        0.123018        0.105086          0.1432 
        2.22126        0.121192        0.103671        0.141632 
        2.23354        0.119778        0.102282        0.140049 
         2.2458        0.118675        0.100921        0.138041 
        2.25807        0.117365        0.099584        0.136726 
        2.27035        0.115912       0.0982699        0.135081 
        2.28263        0.114509       0.0969802        0.133602 
         2.2949        0.113501       0.0957142        0.131933 
        2.30718        0.111938       0.0944705         0.13049 
        2.31946        0.111065       0.0932482        0.129057 
        2.33169        0.109328       0.0920529        0.127537 
        2.34393        0.108811       0.0908767        0.126255 
        2.35622        0.107587       0.0897173         0.12469 
        2.36847        0.106482       0.0885814        0.123351 
        2.38076        0.105159       0.0874617         0.12202 
        2.39305        0.104303       0.0863618        0.120672 
        2.40534        0.103021       0.0852806        0.119376 
        2.41762        0.101965       0.0842182        0.118055 
        2.42989        0.100967       0.0831754        0.116724 
        2.44216        0.100055       0.0821504        0.115531 
         2.4544       0.0989682       0.0811451        0.114344 
        2.46667       0.0979247       0.0801542        0.113018 
        2.47897       0.0966198       0.0791775        0.111841 
        2.49124       0.0960639       0.0782198        0.110675 
        2.50349       0.0949969       0.0772794        0.109472 
        2.51578         0.09393       0.0763516        0.108326 
        2.52805       0.0935826       0.0754407        0.107237 
        2.54029        0.092489       0.0745468         0.10616 
        2.55257       0.0918027       0.0736648        0.105102 
        2.56487       0.0909239       0.0727954        0.104005 
        2.57716       0.0902436       0.0719413        0.102927 
        2.58942       0.0891744       0.0711027        0.101841 
        2.60167       0.0882847       0.0702784        0.100826 
        2.61395       0.0875774       0.0694659        0.099858 
        2.62624       0.0872374        0.068665       0.0988692 
        2.63849       0.0861242       0.0678794       0.0978825 
        2.65073       0.0854169       0.0671069        0.096884 
        2.66302       0.0848916       0.0663437       0.0959131 
         2.6753       0.0841801       0.0655928       0.0949899 
        2.68756       0.0837201        0.064855       0.0940829 
        2.69983         0.08273       0.0641281       0.0930491 
        2.71213       0.0820986       0.0634109       0.0922348 
        2.72441        0.081469       0.0627058       0.0914076 
        2.73665       0.0807305       0.0620132       0.0905047 
         2.7489       0.0804721       0.0613315       0.0896329 
        2.76118       0.0797883       0.0606579       0.0887873 
        2.77349       0.0791089       0.0599928       0.0879833 
        2.78576       0.0787507       0.0593403       0.0871917 
        2.79802       0.0780091       0.0586978       0.0862281 
        2.81031       0.0773842       0.0580634       0.0855166 
        2.82259       0.0768799       0.0574386       0.0846775 
        2.83483       0.0764752       0.0568254       0.0838622 
         2.8471       0.0759383       0.0562199       0.0832063 
         2.8594        0.075802       0.0556214       0.0824508 
         2.8717       0.0750098       0.0550318       0.0816469 
        2.88396       0.0747109        0.054453       0.0809459 
        2.89619       0.0741349       0.0538835       0.0802393 
        2.90847       0.0737258         0.05332       0.0795094 
        2.92072       0.0731916       0.0527656       0.0787415 
        2.93299       0.0728919       0.0522187       0.0780369 
        2.94526       0.0725989       0.0516791       0.0773873 
        2.95753       0.0720461       0.0511473       0.0767071 
        2.96982       0.0717921       0.0506221       0.0759846 
        2.98209       0.0711686       0.0501053       0.0753023 
        2.99436       0.0710845       0.0495953       0.0746469 
        3.00666       0.0707712       0.0490916       0.0739899 
        3.01894       0.0705024       0.0485958       0.0733947 
        3.03119       0.0702852       0.0481075       0.0727597 
        3.04345       0.0698058        0.047626       0.0721389 
        3.05573       0.0698779         0.04715       0.0715426 
          3.068       0.0695212       0.0466811       0.0708903 
        3.08026       0.0692366       0.0462191       0.0703119 
        3.09254        0.069139       0.0457624       0.0697292 
        3.10483       0.0688899       0.0453118       0.0691483 
         3.1171       0.0688145       0.0448679       0.0685416 
        3.12933       0.0684812       0.0444312       0.0679152 
        3.14159        0.068206       0.0439993       0.0674137 
