# k  (h/Mpc)    Pcb(k)  (Mpc/h)^3    Pcb_linear(k) (Mpc/h)^3    Pcb_NL(k) (Mpc/h)^3   ShotnoiseSubtracted = false
      0.0156606         10529.5         10558.5         10493.8 
      0.0273761         9085.62         9131.49         9075.59 
      0.0384619         6895.44         6880.43         6838.55 
      0.0498308            5363          5412.3         5372.87 
      0.0625568          4526.9         4599.99         4562.61 
      0.0751274         3986.05          3908.3         3853.39 
      0.0867833         3117.41         3146.66         3132.52 
      0.0984825         2582.91         2490.21         2511.71 
       0.111151          2184.8          2079.3         2102.36 
       0.123864         1961.79         1873.88         1893.21 
       0.135742          1773.9         1685.09         1704.95 
        0.14762          1524.3         1440.84         1491.06 
       0.160083         1271.41         1201.03         1259.69 
       0.172465         1132.01         1048.27         1121.48 
       0.184281         1042.49         966.382         1042.46 
       0.196406         958.508         892.451         955.673 
       0.209011         880.952         794.055         861.838 
       0.221538          793.61          693.93         788.126 
       0.233611         736.715         620.888         726.674 
       0.245665         682.546         573.056         668.498 
       0.258103         641.915         533.466         628.302 
       0.270422         586.589         490.194         584.773 
       0.282519         539.509         444.879         544.189 
       0.294636         533.729         405.334         509.683 
       0.306978          474.87         375.002         483.416 
       0.319417         456.942         350.605         454.542 
        0.33169         429.467         327.253         427.585 
       0.343948         409.419         303.218         409.237 
       0.356249          382.92         280.679         390.681 
       0.368458         371.068           261.8         368.307 
        0.38068         354.588         246.012         351.318 
       0.392856         332.151           231.6         336.603 
       0.405069         318.864         217.508         324.417 
       0.417459         304.568         203.863          307.44 
       0.429752         294.003         191.614         295.739 
       0.441978         284.205         180.864         286.376 
       0.454294         266.023         171.101         272.934 
        0.46658         264.987         161.941         264.949 
       0.478753         252.544           153.3         255.455 
       0.490964         244.325         145.183          246.26 
       0.503334         230.778         137.691         238.887 
       0.515665         227.548         130.859         233.194 
       0.527909         220.687         124.553         224.695 
       0.540159         214.092         118.586         218.214 
        0.55248         209.441         112.924         211.416 
       0.564743         203.682         107.682         206.587 
        0.57686         196.672         102.864         200.002 
       0.589077         188.624         98.3153         195.595 
       0.601441         185.399         93.9905         190.734 
        0.61382         183.394         89.9128         185.754 
       0.626067         177.909         86.1077         181.228 
       0.638306         170.156         82.5245          177.41 
       0.650632         165.162         79.1296         171.587 
       0.662899         165.237         75.9482         168.396 
       0.675076         159.304         72.9667         164.531 
       0.687267         155.239         70.1416         160.903 
       0.699615          151.78         67.4307         157.626 
       0.711937         147.893          64.868         154.172 
       0.724148         145.609         62.4602         151.946 
       0.736433         141.651         60.1627         148.301 
       0.748747         138.504         57.9774         145.221 
       0.761037         136.272         55.9059         142.094 
       0.773197         133.354          53.957         140.505 
       0.785376         131.464         52.0989         137.191 
       0.797761         129.119         50.2995         135.403 
       0.810096         125.474         48.5922         132.629 
       0.822371         122.048         46.9725          130.36 
       0.834626         120.117         45.4296         128.112 
       0.846916         118.915         43.9523         126.121 
       0.859215          117.02         42.5402         123.909 
       0.871383         114.978         41.2045         121.827 
        0.88363          112.44         39.9186         120.324 
       0.895928         110.322         38.6829         118.582 
       0.908253         107.424         37.4974          116.39 
       0.920535         106.906         36.3659         114.888 
       0.932774         104.095         35.2852         112.871 
        0.94508         103.141         34.2432         111.307 
       0.957324         101.464         33.2486         109.797 
        0.96953         101.287         32.2967         107.962 
       0.981769         97.9765         31.3799         106.928 
       0.994071          97.157         30.4945         105.367 
         1.0064         94.9083         29.6418         103.837 
        1.01868         94.0868         28.8244         102.595 
        1.03092         92.2908         28.0416         101.268 
         1.0432         90.7494         27.2852         99.8902 
        1.05553         88.4465         26.5539         98.9544 
        1.06777         88.3337         25.8548         97.7337 
           1.08         86.6021         25.1817         96.4312 
        1.09227         85.2702         24.5305         95.1582 
         1.1046         83.8294            23.9         94.0104 
         1.1169         82.8684         23.2928          92.694 
        1.12915          81.806         22.7098         91.7452 
        1.14142          80.304         22.1457         90.6151 
        1.15365         78.7467         21.6024         89.5831 
        1.16585         77.8209         21.0789         88.4904 
        1.17807         76.6326         20.5722         87.6266 
        1.19037         76.5319         20.0788         86.7299 
        1.20276         74.8862         19.5983         85.7146 
        1.21504         74.3873         19.1375         84.6784 
        1.22728         72.7509         18.6934         83.8436 
        1.23954         72.1136         18.2623         82.8263 
        1.25184         70.8166         17.8441         82.0886 
        1.26414         69.7477         17.4389         81.2004 
        1.27632         69.0986         17.0499          80.547 
         1.2886         68.1376         16.6701         79.4609 
        1.30093         67.2512         16.3005         78.5292 
        1.31316         66.3937         15.9449         77.9939 
        1.32541         65.8891         15.5998         77.1619 
        1.33772         64.7936         15.2631         76.3611 
        1.35005         64.1989         14.9361         75.6318 
        1.36225         63.1439          14.622         74.8602 
        1.37447         61.7217         14.3164         74.0734 
        1.38676         61.8384         14.0182         73.2972 
        1.39907         60.7618         13.7279         72.7602 
        1.41133         59.6388         13.4472         72.1866 
        1.42358         58.9468         13.1746         71.2789 
        1.43591         58.5432         12.9077         70.6942 
        1.44818         57.7026         12.6497         69.9124 
        1.46037         57.0598         12.4003         69.4136 
        1.47263         56.3131         12.1562          68.848 
        1.48494         55.4863         11.9178         68.1301 
        1.49724         54.7862          11.686         67.4739 
        1.50952          54.448         11.4608         66.8275 
        1.52178         53.6856         11.2419         66.3216 
        1.53409         53.1852         11.0279          65.746 
        1.54637         52.0334         10.8198         65.1071 
        1.55858         51.3615         10.6184         64.4725 
        1.57081         51.0988         10.4218         64.0398 
        1.58313         50.3628         10.2289         63.5155 
        1.59544         49.6352         10.0411         62.8766 
        1.60767         49.0794         9.85915         62.3571 
        1.61994         48.3301         9.68111         61.8758 
        1.63225         47.9046          9.5071         61.2453 
        1.64452         47.3924         9.33786         60.8094 
        1.65676          46.693         9.17328          60.231 
          1.669         46.3514         9.01254         59.8087 
        1.68133         45.9189         8.85464         59.2389 
        1.69363         45.1405         8.70099         58.8153 
        1.70585         44.8827         8.55198         58.3601 
        1.71809         44.0055         8.40616         57.8319 
        1.73038         43.7612         8.26328         57.4078 
        1.74268         43.0522         8.12363         56.8762 
        1.75493         42.6411         7.98786         56.4311 
        1.76714         42.0946         7.85555          55.976 
        1.77942         41.8466         7.72556         55.5497 
        1.79173         41.1927         7.59818         55.0478 
        1.80402         40.7759         7.47394         54.7064 
         1.8163         40.3025         7.35255          54.165 
         1.8286         39.7776         7.23365         53.8527 
         1.8409          39.317         7.11749         53.3232 
        1.85315         38.9239         7.00426         53.0253 
        1.86537         38.4412         6.89373         52.6006 
        1.87765         38.1413         6.78517         52.1355 
        1.88995         37.5568          6.6787          51.681 
        1.90221         37.2824         6.57488         51.2941 
        1.91445          36.657         6.47344         50.9667 
        1.92674         36.3604         6.37379         50.5234 
        1.93902         35.9872         6.27623         50.1432 
        1.95124          35.506         6.18124         49.8208 
         1.9635         35.0688         6.08797         49.4038 
        1.97583         34.7545         5.99604         49.0924 
        1.98812         34.2443         5.90636         48.6773 
        2.00039         33.9141         5.81869         48.3013 
        2.01264         33.4573         5.73289         47.9939 
        2.02492         33.1847         5.64869         47.6283 
        2.03717         32.7433         5.56632          47.241 
        2.04942         32.3998         5.48571         46.8897 
        2.06171         32.0623         5.40642         46.5327 
        2.07397         31.7207         5.32887         46.2126 
        2.08629         31.3448         5.25251         45.8632 
        2.09857          31.041         5.17784         45.5545 
        2.11081          30.633         5.10493         45.1983 
        2.12309         30.4079         5.03325          44.857 
        2.13538         29.8714         4.96284         44.5904 
        2.14763         29.6841         4.89401         44.2405 
        2.15986         29.4082         4.82665         43.8955 
        2.17214         29.0139         4.76029         43.6365 
        2.18443         28.7046         4.69511         43.2551 
        2.19671         28.3291         4.63123         42.9654 
        2.20898         27.9954         4.56861         42.6421 
        2.22126         27.9056         4.50709         42.3304 
        2.23354         27.5221         4.44672         42.0883 
         2.2458            27.2         4.38756         41.7644 
        2.25807          26.817         4.32942         41.4512 
        2.27035         26.5379         4.27229         41.1841 
        2.28263         26.2964         4.21622         40.9054 
         2.2949         26.0413         4.16118         40.6177 
        2.30718         25.7975         4.10711         40.3062 
        2.31946         25.5617         4.05397         40.0324 
        2.33169         25.2508         4.00201         39.7537 
        2.34393         24.9481         3.95087         39.4575 
        2.35622         24.6937         3.90047         39.2371 
        2.36847          24.423         3.85108         38.9188 
        2.38076         24.2266         3.80241         38.6955 
        2.39305         23.8954         3.75458         38.4368 
        2.40534         23.7144         3.70758         38.1189 
        2.41762         23.4095         3.66139            37.9 
        2.42989         23.3076         3.61606         37.6124 
        2.44216         22.9715         3.57149         37.3797 
         2.4544         22.7987         3.52779         37.1287 
        2.46667         22.5429         3.48471         36.8723 
        2.47897         22.2846         3.44225         36.6237 
        2.49124         22.1347         3.40061         36.3786 
        2.50349          21.856         3.35973         36.1469 
        2.51578          21.618         3.31939         35.9097 
        2.52805         21.4424         3.27979         35.6569 
        2.54029         21.2659         3.24093         35.4165 
        2.55257         21.0943         3.20258          35.175 
        2.56487         20.8214         3.16479         34.9502 
        2.57716         20.6939         3.12765         34.6987 
        2.58942         20.4761          3.0912         34.5022 
        2.60167         20.2776         3.05536         34.2619 
        2.61395         20.0922         3.02003         34.0327 
        2.62624         19.9881         2.98522         33.8136 
        2.63849         19.7794         2.95106         33.5985 
        2.65073         19.5289         2.91748         33.3649 
        2.66302         19.3308          2.8843         33.1639 
         2.6753         19.2628         2.85165         32.9518 
        2.68756         19.1417         2.81958         32.7603 
        2.69983         18.9344         2.78798         32.5104 
        2.71213         18.7238         2.75679         32.3069 
        2.72441         18.6092         2.72614         32.0862 
        2.73665         18.4646         2.69603         31.8778 
         2.7489         18.2681         2.66639         31.6818 
        2.76118         18.1746          2.6371         31.4635 
        2.77349         18.0579         2.60819         31.2777 
        2.78576         17.8507         2.57982          31.093 
        2.79802         17.7349         2.55189         30.8836 
        2.81031         17.6242         2.52431         30.6953 
        2.82259         17.5298         2.49715         30.5068 
        2.83483         17.3577         2.47049          30.301 
         2.8471         17.3082         2.44416         30.0946 
         2.8594         17.1562         2.41814         29.9085 
         2.8717         17.0585         2.39251         29.7177 
        2.88396         16.9038         2.36735         29.5247 
        2.89619         16.8617         2.34259          29.348 
        2.90847         16.7624         2.31809         29.1687 
        2.92072         16.6307         2.29399         28.9824 
        2.93299         16.5605         2.27021          28.818 
        2.94526         16.5088         2.24675          28.638 
        2.95753         16.4411         2.22363           28.45 
        2.96982         16.3274          2.2008         28.2786 
        2.98209         16.2307         2.17833          28.109 
        2.99436         16.1943         2.15616         27.9334 
        3.00666         16.1005         2.13426         27.7552 
        3.01894          16.061          2.1127         27.5839 
        3.03119         15.9603         2.09148         27.4149 
        3.04345         15.9692         2.07054         27.2497 
        3.05573         15.9527         2.04985         27.0847 
          3.068         15.8352         2.02946         26.9129 
        3.08026         15.8259         2.00938         26.7472 
        3.09254         15.7556         1.98952         26.5877 
        3.10483         15.7531         1.96993         26.4303 
         3.1171         15.8005         1.95063         26.2752 
        3.12933         15.7324         1.93165         26.1178 
        3.14159         15.6459         1.91287         25.9504 
