# k  (h/Mpc)    Pcb(k)  (Mpc/h)^3    Pcb_linear(k) (Mpc/h)^3    Pcb_NL(k) (Mpc/h)^3   ShotnoiseSubtracted = false
      0.0156606         487.724          488.37         486.136 
      0.0273761         425.409         422.817         421.997 
      0.0384619          323.06         318.725         318.761 
      0.0498308         254.368         250.774         250.984 
      0.0625568         214.727         213.166         213.099 
      0.0751274         183.642         181.127         180.883 
      0.0867833         147.133         145.837         145.816 
      0.0984825         117.783         115.417         115.588 
       0.111151         98.3901         96.3742         96.5217 
       0.123864         88.3135         86.8548         86.8913 
       0.135742         79.2296         78.1055         78.1095 
        0.14762         67.4443          66.785          66.907 
       0.160083         56.1823         55.6698         55.8495 
       0.172465         49.1456         48.5895         48.7946 
       0.184281         45.4302          44.794         44.9899 
       0.196406         41.6265         41.3674         41.4964 
       0.209011         37.2088         36.8066          36.968 
       0.221538         32.7227         32.1657         32.4144 
       0.233611         29.2896           28.78         29.0573 
       0.245665         27.2598         26.5629         26.8019 
       0.258103         24.8495         24.7279         24.9594 
       0.270422          23.117         22.7221         22.9426 
       0.282519          20.979         20.6216          20.868 
       0.294636         19.4165         18.7886         19.0506 
       0.306978         17.5453         17.3826         17.6513 
       0.319417         16.5755         16.2518          16.511 
        0.33169         15.4295         15.1693         15.4175 
       0.343948         14.4254         14.0553         14.3016 
       0.356249         13.2291         13.0105         13.2976 
       0.368458         12.4454         12.1354         12.3866 
        0.38068         11.6157         11.4036         11.6535 
       0.392856         10.9334         10.7355         10.9877 
       0.405069         10.3171         10.0823         10.3191 
       0.417459         9.52948         9.44981         9.70162 
       0.429752         9.03873         8.88204         9.12888 
       0.441978         8.57593         8.38372         8.64665 
       0.454294         8.04729          7.9312         8.17885 
        0.46658         7.73677         7.50661         7.74762 
       0.478753          7.2681         7.10605         7.34481 
       0.490964         6.95179          6.7298          6.9853 
       0.503334         6.61402         6.38252         6.61963 
       0.515665         6.22658         6.06584         6.31643 
       0.527909         5.96909          5.7735         6.00403 
       0.540159         5.64977         5.49692         5.72293 
        0.55248          5.3404         5.23448         5.44935 
       0.564743         5.19489         4.99147         5.22493 
        0.57686         4.95135         4.76813         4.99102 
       0.589077         4.66561          4.5573         4.78925 
       0.601441         4.48461         4.35683         4.58272 
        0.61382         4.29323         4.16781         4.38493 
       0.626067         4.09924         3.99143         4.20587 
       0.638306         3.94826         3.82534         4.03533 
       0.650632         3.81969         3.66797         3.88155 
       0.662899         3.65534          3.5205         3.72578 
       0.675076         3.47606          3.3823         3.58775 
       0.687267         3.34064         3.25134         3.44522 
       0.699615         3.25437         3.12568         3.31738 
       0.711937         3.10601         3.00689         3.20455 
       0.724148         3.02265         2.89528         3.08763 
       0.736433         2.88284         2.78878          2.9725 
       0.748747         2.78492         2.68748         2.87959 
       0.761037         2.68646         2.59146         2.77619 
       0.773197         2.58161         2.50113         2.68882 
       0.785376         2.48883         2.41499         2.59708 
       0.797761           2.406         2.33158         2.50638 
       0.810096         2.34755         2.25244         2.43389 
       0.822371         2.27992         2.17736         2.34971 
       0.834626         2.20232         2.10584         2.27422 
       0.846916         2.12501         2.03737         2.21227 
       0.859215         2.03738         1.97191         2.14623 
       0.871383         1.97678            1.91         2.07814 
        0.88363         1.92021         1.85039         2.01773 
       0.895928         1.87289         1.79311         1.95644 
       0.908253         1.81467         1.73816         1.90071 
       0.920535         1.76177         1.68571         1.84344 
       0.932774         1.70391         1.63561         1.78853 
        0.94508         1.65914         1.58731         1.73963 
       0.957324         1.61519         1.54121         1.69608 
        0.96953         1.55964         1.49708         1.64861 
       0.981769         1.50988         1.45459         1.59994 
       0.994071         1.47503         1.41354          1.5637 
         1.0064         1.43245         1.37402         1.51933 
        1.01868         1.38945         1.33613         1.48069 
        1.03092         1.36702         1.29984         1.43935 
         1.0432         1.32364         1.26478         1.40371 
        1.05553          1.2871         1.23088         1.37056 
        1.06777         1.25032         1.19848         1.33635 
           1.08         1.22488         1.16728         1.30239 
        1.09227         1.18299         1.13709         1.26966 
         1.1046         1.15624         1.10786         1.24082 
         1.1169         1.12604         1.07972         1.21094 
        1.12915         1.09864         1.05269         1.18197 
        1.14142         1.07674         1.02654         1.15452 
        1.15365         1.05082         1.00136         1.12813 
        1.16585         1.02402        0.977093         1.10119 
        1.17807         1.00753        0.953603         1.07817 
        1.19037        0.968317        0.930735         1.05217 
        1.20276        0.951065        0.908463         1.02676 
        1.21504        0.931479          0.8871         1.00869 
        1.22728        0.914707        0.866513        0.982831 
        1.23954        0.891097        0.846534        0.964641 
        1.25184        0.875167        0.827148        0.941801 
        1.26414        0.853881        0.808364        0.921747 
        1.27632        0.828547        0.790332        0.902224 
         1.2886        0.810734        0.772725        0.882122 
        1.30093        0.789801        0.755595        0.867018 
        1.31316        0.767866        0.739109        0.847957 
        1.32541        0.755826        0.723114        0.831885 
        1.33772        0.742873        0.707505        0.814998 
        1.35005        0.730064        0.692348        0.799061 
        1.36225        0.712483         0.67779        0.782278 
        1.37447         0.69745        0.663624        0.768418 
        1.38676         0.68434        0.649799         0.75214 
        1.39907        0.669899        0.636345        0.738325 
        1.41133        0.653184        0.623332        0.724347 
        1.42358        0.645055        0.610696        0.709098 
        1.43591        0.630687        0.598324        0.697947 
        1.44818        0.618271        0.586364        0.685379 
        1.46037        0.604522        0.574802        0.671039 
        1.47263        0.593346        0.563489        0.659682 
        1.48494        0.582673        0.552438        0.648441 
        1.49724        0.571505        0.541692         0.63688 
        1.50952        0.559138        0.531255        0.623118 
        1.52178        0.548749        0.521108         0.61278 
        1.53409        0.539705        0.511186        0.602539 
        1.54637        0.526401        0.501544        0.591363 
        1.55858        0.519151        0.492205        0.581221 
        1.57081        0.512116        0.483092        0.570869 
        1.58313        0.500842        0.474152        0.561924 
        1.59544        0.492906        0.465445        0.551851 
        1.60767        0.484146        0.457012        0.542725 
        1.61994        0.473577        0.448759        0.534458 
        1.63225        0.464728        0.440693        0.525616 
        1.64452        0.458703        0.432848        0.516303 
        1.65676        0.451575        0.425219        0.508203 
          1.669        0.443753        0.417768        0.499572 
        1.68133        0.434684        0.410449        0.491911 
        1.69363        0.427257        0.403327        0.484277 
        1.70585        0.420617        0.396419        0.476218 
        1.71809        0.412737         0.38966        0.468664 
        1.73038        0.406306        0.383037        0.461662 
        1.74268        0.397964        0.376564        0.453766 
        1.75493        0.394808         0.37027        0.447795 
        1.76714          0.3863        0.364137        0.440727 
        1.77942         0.38066        0.358111        0.434126 
        1.79173        0.374696        0.352207        0.426655 
        1.80402        0.368133        0.346448          0.4209 
         1.8163        0.363233        0.340821        0.413521 
         1.8286        0.355351         0.33531        0.409061 
         1.8409        0.351513        0.329925         0.40211 
        1.85315         0.34636        0.324676        0.396245 
        1.86537        0.338681        0.319553         0.39049 
        1.87765        0.334403        0.314521        0.385058 
        1.88995        0.330731        0.309585        0.379724 
        1.90221        0.325815        0.304773        0.374026 
        1.91445        0.320179         0.30007        0.368967 
        1.92674        0.315018        0.295451        0.363651 
        1.93902        0.309505        0.290929        0.358254 
        1.95124        0.305072        0.286526        0.353321 
         1.9635        0.301694        0.282203         0.34831 
        1.97583        0.297368        0.277941         0.34344 
        1.98812        0.292861        0.273784        0.339287 
        2.00039         0.28989         0.26972        0.334224 
        2.01264        0.285385        0.265743        0.329982 
        2.02492        0.281541         0.26184        0.325413 
        2.03717        0.275958        0.258022        0.321113 
        2.04942         0.27355        0.254285         0.31671 
        2.06171        0.269261         0.25061        0.312484 
        2.07397        0.264938        0.247015        0.308535 
        2.08629        0.262403        0.243476        0.304359 
        2.09857        0.258225        0.240014        0.300488 
        2.11081        0.254346        0.236634        0.296124 
        2.12309        0.251329        0.233312         0.29302 
        2.13538        0.247736        0.230048        0.289014 
        2.14763        0.245301        0.226858        0.285506 
        2.15986        0.241176        0.223735        0.281965 
        2.17214        0.238371        0.220659         0.27834 
        2.18443        0.235959        0.217637        0.274809 
        2.19671        0.232369        0.214676        0.271656 
        2.20898        0.230167        0.211774        0.267996 
        2.22126        0.226325        0.208922        0.264965 
        2.23354        0.224358        0.206124        0.261821 
         2.2458         0.22155        0.203381        0.257999 
        2.25807        0.218965        0.200687        0.255388 
        2.27035        0.215679        0.198038        0.252299 
        2.28263        0.213164        0.195439        0.249384 
         2.2949        0.211055        0.192888         0.24608 
        2.30718        0.207912        0.190382        0.243293 
        2.31946         0.20671        0.187918        0.240528 
        2.33169        0.203058         0.18551         0.23767 
        2.34393        0.200763        0.183139        0.235141 
        2.35622        0.198954        0.180803        0.232215 
        2.36847        0.197253        0.178514        0.229603 
        2.38076        0.194734        0.176257         0.22704 
        2.39305        0.192134         0.17404        0.224365 
        2.40534        0.189914        0.171862        0.221805 
        2.41762         0.18854        0.169721        0.219322 
        2.42989        0.185801        0.167619        0.216773 
        2.44216        0.183863        0.165553        0.214463 
         2.4544        0.182008        0.163527        0.212156 
        2.46667        0.179871        0.161531        0.209643 
        2.47897        0.177853        0.159562        0.207307 
        2.49124        0.176106        0.157632          0.2051 
        2.50349        0.174389        0.155737        0.202759 
        2.51578        0.172313        0.153867         0.20053 
        2.52805        0.171085        0.152032         0.19845 
        2.54029        0.169727         0.15023        0.196393 
        2.55257        0.167667        0.148453        0.194336 
        2.56487        0.166053        0.146701        0.192248 
        2.57716        0.164612         0.14498         0.19014 
        2.58942        0.162824         0.14329        0.188054 
        2.60167        0.161432        0.141628         0.18616 
        2.61395        0.160078        0.139991        0.184207 
        2.62624        0.158405        0.138377        0.182324 
        2.63849        0.157107        0.136794        0.180444 
        2.65073        0.155293        0.135237        0.178574 
        2.66302        0.154352        0.133699         0.17666 
         2.6753        0.152831        0.132186        0.174895 
        2.68756        0.151939        0.130699        0.173154 
        2.69983        0.150266        0.129234        0.171177 
        2.71213        0.148793        0.127789        0.169616 
        2.72441        0.147537        0.126368        0.167998 
        2.73665        0.146543        0.124972        0.166292 
         2.7489        0.146239        0.123598        0.164646 
        2.76118        0.144937        0.122241        0.162983 
        2.77349         0.14318          0.1209        0.161462 
        2.78576         0.14258        0.119585        0.159986 
        2.79802        0.141141        0.118291        0.158101 
        2.81031        0.140427        0.117012        0.156698 
        2.82259        0.139253        0.115753        0.155188 
        2.83483        0.138101        0.114517        0.153584 
         2.8471        0.137375        0.113297        0.152304 
         2.8594        0.136909        0.112091        0.150876 
         2.8717        0.135688        0.110903        0.149316 
        2.88396        0.135262        0.109736        0.147979 
        2.89619        0.134387        0.108589         0.14663 
        2.90847         0.13363        0.107453        0.145201 
        2.92072         0.13246        0.106336        0.143769 
        2.93299        0.131989        0.105234         0.14245 
        2.94526        0.131269        0.104146        0.141186 
        2.95753        0.130223        0.103075        0.139851 
        2.96982        0.129936        0.102016         0.13848 
        2.98209        0.128992        0.100975        0.137226 
        2.99436        0.128936       0.0999469         0.13599 
        3.00666        0.128433       0.0989317        0.134679 
        3.01894        0.127947       0.0979326        0.133529 
        3.03119        0.127322       0.0969486        0.132362 
        3.04345        0.126827       0.0959782        0.131166 
        3.05573        0.126864        0.095019        0.129989 
          3.068        0.126382        0.094074        0.128794 
        3.08026        0.125717       0.0931429        0.127718 
        3.09254        0.125924       0.0922226        0.126585 
        3.10483        0.125554       0.0913145        0.125481 
         3.1171        0.125154         0.09042        0.124333 
        3.12933        0.125022       0.0895398        0.123111 
        3.14159        0.124625       0.0886695        0.122167 
