# k  (h/Mpc)    P(k)  (Mpc/h)^3    P_linear(k)  (Mpc/h)^3     P_NL(k)  ShotnoiseSubtracted = false
      0.0156606         19505.7           19722         19572.7 
      0.0273761         16711.2         17023.4         16852.4 
      0.0384619         12635.3         12813.9         12664.7 
      0.0498308         9764.59         10073.3         9924.09 
      0.0625568         8245.94         8557.65         8424.05 
      0.0751274         7331.38         7268.78         7080.36 
      0.0867833         5685.94          5851.2         5793.76 
      0.0984825          4790.5         4629.91         4683.94 
       0.111151         4090.58         3865.52         3931.05 
       0.123864         3666.52         3483.35         3536.62 
       0.135742         3338.12         3132.24         3185.88 
        0.14762          2901.1          2678.1         2820.62 
       0.160083         2456.07         2232.27         2406.75 
       0.172465         2190.87         1948.29         2170.07 
       0.184281         1991.39         1796.05         2019.48 
       0.196406         1869.87         1658.62         1858.14 
       0.209011         1745.24         1475.72         1682.97 
       0.221538         1573.18         1289.62         1567.73 
       0.233611         1501.74         1153.86         1466.36 
       0.245665         1364.25         1064.96         1353.04 
       0.258103         1342.61         991.376         1276.77 
       0.270422         1199.64         910.952         1198.05 
       0.282519         1128.93         826.733         1131.41 
       0.294636         1112.49         753.241         1070.39 
       0.306978         1011.93         696.871         1024.57 
       0.319417         988.779         651.531         965.623 
        0.33169         930.751         608.131         913.395 
       0.343948         891.416         563.466         884.491 
       0.356249         843.167          521.58         850.885 
       0.368458          813.05         486.495         811.321 
        0.38068         796.233         457.158         779.555 
       0.392856         754.686         430.375          751.44 
       0.405069         718.285         404.185         727.842 
       0.417459         690.844         378.829         699.926 
       0.429752         683.294         356.068         675.328 
       0.441978         659.716         336.089         657.677 
       0.454294         629.333         317.948         630.431 
        0.46658         612.531         300.926         617.003 
       0.478753         599.427         284.867         597.755 
       0.490964          576.51         269.783         579.196 
       0.503334         550.055         255.862         565.669 
       0.515665         548.841         243.167         553.231 
       0.527909         527.062         231.447         540.532 
       0.540159         513.875         220.358         526.275 
        0.55248          503.97         209.837         512.456 
       0.564743          499.95         200.096          503.65 
        0.57686          481.79         191.143         490.006 
       0.589077         470.318         182.691         479.065 
       0.601441         462.497         174.655          469.31 
        0.61382         450.899         167.077         461.105 
       0.626067          445.58         160.006         452.011 
       0.638306         428.664         153.348         443.099 
       0.650632         424.216         147.039         431.775 
       0.662899         420.606         141.128         426.721 
       0.675076         405.586         135.587         420.173 
       0.687267         395.032         130.337         410.146 
       0.699615         391.768           125.3         403.637 
       0.711937         385.463         120.538          396.25 
       0.724148         372.635         116.064         390.625 
       0.736433         364.096         111.794         383.392 
       0.748747         359.513         107.734         376.468 
       0.761037         352.901         103.884         371.545 
       0.773197           348.6         100.263         365.846 
       0.785376         343.458         96.8101         360.283 
       0.797761         334.014         93.4664         354.604 
       0.810096          331.44         90.2939         350.155 
       0.822371         320.821         87.2841         344.395 
       0.834626         318.962         84.4171         340.017 
       0.846916         312.595          81.672         334.801 
       0.859215         311.536         79.0481         330.006 
       0.871383         303.732         76.5661         325.465 
        0.88363         301.824         74.1765         322.129 
       0.895928         296.063         71.8803         317.026 
       0.908253         288.669         69.6775          311.94 
       0.920535         285.527         67.5749          308.13 
       0.932774         279.229         65.5668         303.702 
        0.94508         275.726         63.6306         300.553 
       0.957324         274.344         61.7823         296.425 
        0.96953          270.47         60.0135         292.694 
       0.981769         263.196         58.3099         289.611 
       0.994071         262.329         56.6645         285.991 
         1.0064         256.868         55.0802         281.802 
        1.01868         253.989         53.5613         278.235 
        1.03092         247.057         52.1067         275.686 
         1.0432         243.949         50.7012          272.34 
        1.05553         241.043         49.3422         268.691 
        1.06777         239.666         48.0432         265.831 
           1.08         233.974         46.7924         262.758 
        1.09227         232.013         45.5823         259.646 
         1.1046          228.35         44.4106         257.095 
         1.1169         223.288         43.2824         253.603 
        1.12915         220.448         42.1991         251.261 
        1.14142         216.695         41.1508         248.117 
        1.15365         213.962         40.1413           245.5 
        1.16585         210.475         39.1685         242.548 
        1.17807         208.205         38.2269         240.333 
        1.19037         205.753         37.3102         238.159 
        1.20276         202.911         36.4174         235.076 
        1.21504         198.636          35.561         232.504 
        1.22728         195.457         34.7357         229.614 
        1.23954         194.714         33.9348         227.804 
        1.25184         190.778         33.1577          225.29 
        1.26414         187.299         32.4047         223.059 
        1.27632         186.523         31.6819          221.26 
         1.2886         185.005         30.9761         218.544 
        1.30093          179.86         30.2894         215.978 
        1.31316         176.777         29.6285          213.62 
        1.32541         175.615         28.9873         211.741 
        1.33772         173.606         28.3616         209.605 
        1.35005         171.024          27.754         207.254 
        1.36225         168.173         27.1704         205.338 
        1.37447         165.911         26.6025         202.828 
        1.38676         164.065         26.0483         201.246 
        1.39907          161.49          25.509         198.975 
        1.41133         158.882         24.9874         197.067 
        1.42358         157.022         24.4808         195.211 
        1.43591         155.232         23.9849         193.249 
        1.44818         152.739         23.5054         191.399 
        1.46037          150.95         23.0419         189.379 
        1.47263         148.779         22.5884         187.818 
        1.48494          146.77         22.1454         185.514 
        1.49724         144.761         21.7147         184.142 
        1.50952         142.141         21.2963         182.259 
        1.52178         141.467         20.8895          180.27 
        1.53409         138.484         20.4918         178.771 
        1.54637         136.907         20.1052         177.286 
        1.55858         134.729         19.7309         175.355 
        1.57081         132.805         19.3655         173.834 
        1.58313         131.077         19.0072         172.061 
        1.59544         128.955         18.6581         170.545 
        1.60767         127.951         18.3201         168.976 
        1.61994         125.647         17.9893         167.526 
        1.63225         124.108         17.6659          165.69 
        1.64452         121.914         17.3515         164.206 
        1.65676         120.199         17.0456         162.813 
          1.669         119.353         16.7469         161.386 
        1.68133         116.871         16.4535          159.91 
        1.69363         115.254          16.168         158.481 
        1.70585         113.295         15.8911         157.081 
        1.71809         111.994         15.6202         155.408 
        1.73038         111.211         15.3547         154.167 
        1.74268         110.041         15.0952         152.691 
        1.75493         107.289         14.8429         151.392 
        1.76714         106.577          14.597         150.146 
        1.77942         104.829         14.3555         148.629 
        1.79173         103.304         14.1188         147.412 
        1.80402         102.468         13.8879         146.111 
         1.8163         100.306         13.6624         144.818 
         1.8286         99.0608         13.4414         143.495 
         1.8409         98.3984         13.2256         142.172 
        1.85315          96.524         13.0152         141.032 
        1.86537          95.578         12.8098         139.862 
        1.87765         94.5638         12.6081         138.661 
        1.88995         92.9506         12.4102         137.417 
        1.90221         91.7271         12.2173         136.282 
        1.91445          90.626         12.0288         134.991 
        1.92674         89.1591         11.8437         133.858 
        1.93902         87.9916         11.6624         132.659 
        1.95124         87.0575         11.4859         131.554 
         1.9635         85.6321         11.3126         130.374 
        1.97583         84.3836         11.1417         129.335 
        1.98812         83.3462         10.9751         128.302 
        2.00039          82.378         10.8122         127.139 
        2.01264         81.4039         10.6527          126.09 
        2.02492         80.5249         10.4963         124.979 
        2.03717         79.1419         10.3432         123.944 
        2.04942         78.6771         10.1934         122.986 
        2.06171         76.8942         10.0461         121.917 
        2.07397         76.1079           9.902         120.945 
        2.08629         75.2268         9.76013         119.894 
        2.09857         74.1359         9.62137         118.932 
        2.11081         72.9256         9.48588         117.832 
        2.12309         71.9705         9.35268         117.006 
        2.13538          71.121         9.22185         115.978 
        2.14763         70.2142         9.09396         115.054 
        2.15986         69.1217         8.96879          114.05 
        2.17214         68.4638         8.84547         113.121 
        2.18443           67.61         8.72436         112.363 
        2.19671         66.4199         8.60565           111.4 
        2.20898         65.9186          8.4893         110.432 
        2.22126         64.9556         8.37498         109.565 
        2.23354         64.2408          8.2628         108.711 
         2.2458         63.1419         8.15287         107.853 
        2.25807         62.3828         8.04485         106.956 
        2.27035         61.6179         7.93869         106.082 
        2.28263         60.8021          7.8345         105.254 
         2.2949         60.0245         7.73223         104.431 
        2.30718         59.0358         7.63175         103.629 
        2.31946         58.6986         7.53302         102.751 
        2.33169         57.6401         7.43645         101.969 
        2.34393         57.1312         7.34143          101.22 
        2.35622         56.1836         7.24777         100.411 
        2.36847         55.7697         7.15601          99.726 
        2.38076         54.8163         7.06556         98.8173 
        2.39305         54.2259         6.97669         98.1488 
        2.40534         53.5813         6.88935         97.3403 
        2.41762         52.9673         6.80352         96.5459 
        2.42989         52.2084         6.71928         95.8727 
        2.44216         51.6475         6.63648         95.0813 
         2.4544         50.9168         6.55526          94.374 
        2.46667         50.3601         6.47522         93.6377 
        2.47897          49.816         6.39632          92.903 
        2.49124         49.2156         6.31895         92.2403 
        2.50349         48.8865         6.24298         91.5204 
        2.51578          48.043         6.16802         90.9212 
        2.52805         47.5261         6.09444         90.1602 
        2.54029         47.0561         6.02223         89.4414 
        2.55257         46.4189         5.95098         88.8312 
        2.56487         46.0832         5.88074         88.2085 
        2.57716          45.379         5.81174         87.5476 
        2.58942         44.7697           5.744         86.8801 
        2.60167         44.3824          5.6774         86.2505 
        2.61395         43.7804         5.61176         85.6216 
        2.62624         43.3948         5.54707         84.9331 
        2.63849         42.8503         5.48361         84.3326 
        2.65073         42.4868          5.4212         83.7135 
        2.66302         41.9319         5.35954         83.0835 
         2.6753         41.5075         5.29888         82.5076 
        2.68756         41.0675         5.23928         81.8862 
        2.69983         40.6002         5.18056         81.3308 
        2.71213         40.2171         5.12261         80.7502 
        2.72441         39.8217         5.06566         80.1552 
        2.73665         39.2617         5.00971         79.5908 
         2.7489         38.9928         4.95463         79.0273 
        2.76118           38.55         4.90021          78.464 
        2.77349         38.1658         4.84649         77.9048 
        2.78576         37.8575         4.79378          77.317 
        2.79802         37.4784         4.74187         76.8494 
        2.81031         37.0104         4.69062         76.2835 
        2.82259         36.9136         4.64015         75.7178 
        2.83483         36.4076         4.59061         75.2329 
         2.8471         36.0827          4.5417         74.6919 
         2.8594          35.776         4.49335         74.1485 
         2.8717         35.6175         4.44572         73.6601 
        2.88396         35.1847         4.39896         73.1398 
        2.89619         35.0359         4.35295          72.594 
        2.90847         34.6143         4.30743         72.0814 
        2.92072         34.4221         4.26264         71.6266 
        2.93299         34.2503         4.21846         71.1459 
        2.94526         33.8808         4.17487         70.6564 
        2.95753         33.6682         4.13191         70.1616 
        2.96982         33.4385         4.08948         69.6881 
        2.98209         33.1715         4.04773         69.2295 
        2.99436         32.9231         4.00653         68.7252 
        3.00666         32.9019         3.96584         68.2708 
        3.01894         32.5532         3.92579         67.8032 
        3.03119         32.5042         3.88634         67.3658 
        3.04345         32.3712         3.84744         66.9362 
        3.05573         32.0049         3.80899         66.4833 
          3.068         32.0145         3.77111         66.0382 
        3.08026         31.8297         3.73378         65.5936 
        3.09254         31.7523         3.69689          65.167 
        3.10483         31.7075         3.66049         64.7438 
         3.1171         31.4975         3.62463          64.313 
        3.12933         31.4317         3.58935          63.881 
        3.14159         31.2967         3.55446         63.4448 
