# k  (h/Mpc)    Pcb(k)  (Mpc/h)^3    Pcb_linear(k) (Mpc/h)^3    Pcb_NL(k) (Mpc/h)^3   ShotnoiseSubtracted = false
      0.0156606         13837.9         13887.6         13795.9 
      0.0273761         11913.9         12009.2         11919.5 
      0.0384619         9032.97         9048.18         8975.78 
      0.0498308         7008.11         7117.25         7046.92 
      0.0625568         5916.82         6048.91         5984.07 
      0.0751274         5232.16         5139.27         5045.89 
      0.0867833         4077.14         4137.71         4111.56 
      0.0984825          3400.4         3274.48         3306.53 
       0.111151         2886.66         2734.15         2769.94 
       0.123864          2590.2         2464.02         2493.71 
       0.135742         2347.82         2215.77         2246.09 
        0.14762         2026.84          1894.6         1973.48 
       0.160083         1698.27         1579.26         1673.05 
       0.172465         1513.98         1378.39         1496.42 
       0.184281         1387.47         1270.71         1391.88 
       0.196406          1284.6          1173.5         1276.99 
       0.209011         1187.79         1044.12          1153.5 
       0.221538         1071.43         912.461            1063 
       0.233611         1005.89         816.415         985.722 
       0.245665         923.729          753.52         907.395 
       0.258103         885.855         701.463         854.154 
       0.270422         800.098         644.563         797.491 
       0.282519         742.341         584.977         745.986 
       0.294636         735.508         532.979         701.618 
       0.306978         659.427         493.095         668.012 
       0.319417           637.5         461.016         628.597 
        0.33169         600.586         430.309         592.289 
       0.343948         572.389         398.706         570.103 
       0.356249         537.505         369.068         545.952 
       0.368458         521.441         344.244         516.608 
        0.38068         502.219         323.484         494.137 
       0.392856         472.616         304.534         474.347 
       0.405069         453.116         286.004         459.089 
       0.417459             434         268.062         436.767 
       0.429752         421.541         251.956         420.782 
       0.441978         407.792          237.82         408.345 
       0.454294          384.58         224.983         390.182 
        0.46658         379.111         212.939         380.117 
       0.478753         365.796         201.576         367.067 
       0.490964         352.853         190.903          354.62 
       0.503334         333.127         181.052         344.861 
       0.515665         331.235         172.068         337.203 
       0.527909         320.007         163.776         326.805 
       0.540159         311.666          155.93         317.498 
        0.55248          305.57         148.485         308.455 
       0.564743         299.593         141.592          302.25 
        0.57686         288.239         135.256         293.144 
       0.589077         277.542         129.276         286.768 
       0.601441          274.27         123.589         280.022 
        0.61382         270.405         118.227         273.976 
       0.626067          264.86         113.224         267.739 
       0.638306         252.759         108.512         262.553 
       0.650632          247.49         104.048         254.601 
       0.662899          246.21         99.8651         250.899 
       0.675076         236.891         95.9447         245.648 
       0.687267         230.916         92.2299         240.152 
       0.699615         227.005         88.6653         235.671 
       0.711937         222.624         85.2956         231.281 
       0.724148         217.051         82.1296         227.811 
       0.736433         212.321         79.1086          222.88 
       0.748747         208.193         76.2351         218.494 
       0.761037         204.861         73.5112         214.533 
       0.773197         201.383         70.9487         211.901 
       0.785376         198.988         68.5054         207.569 
       0.797761         194.284         66.1393         204.804 
       0.810096          191.06         63.8944         201.357 
       0.822371         184.026         61.7646         198.003 
       0.834626         182.997         59.7358         194.783 
       0.846916         179.984         57.7933         191.943 
       0.859215          178.97         55.9366         189.024 
       0.871383         174.482         54.1803         185.924 
        0.88363         172.327         52.4894         183.914 
       0.895928         168.535         50.8645         181.193 
       0.908253         163.898         49.3058         177.997 
       0.920535         163.335         47.8179         175.664 
       0.932774         157.924         46.3969         173.013 
        0.94508         156.689         45.0268         171.092 
       0.957324         155.988          43.719         168.509 
        0.96953         154.191         42.4673         165.901 
       0.981769         149.402         41.2617         164.425 
       0.994071         148.677         40.0975         162.184 
         1.0064         145.049         38.9763         159.724 
        1.01868         143.316         37.9015         157.979 
        1.03092         141.001         36.8722         156.161 
         1.0432         138.338         35.8777         154.161 
        1.05553         135.777          34.916         152.469 
        1.06777         135.544         33.9968         150.861 
           1.08         132.456         33.1117         148.838 
        1.09227         130.998         32.2554         147.332 
         1.1046         128.764         31.4263         145.542 
         1.1169         127.156          30.628          143.58 
        1.12915         125.092         29.8614         142.109 
        1.14142         123.174         29.1196         140.283 
        1.15365         121.333         28.4052         138.788 
        1.16585         119.666         27.7169         137.041 
        1.17807         117.833         27.0505         136.027 
        1.19037         117.391         26.4018         134.575 
        1.20276         114.861         25.7701         132.942 
        1.21504         113.676          25.164         131.467 
        1.22728          111.35         24.5801         129.987 
        1.23954         110.605         24.0133         128.747 
        1.25184         108.239         23.4634         127.377 
        1.26414         106.925         22.9306         126.078 
        1.27632         106.159         22.4191         125.402 
         1.2886         104.182         21.9196         123.538 
        1.30093         102.011         21.4337         122.213 
        1.31316         101.558         20.9661         121.068 
        1.32541          100.13         20.5123         120.073 
        1.33772         98.9243         20.0696         118.805 
        1.35005         97.7659         19.6396         117.531 
        1.36225         96.4804         19.2266         116.458 
        1.37447         94.4953         18.8248           115.2 
        1.38676          94.189         18.4326         113.949 
        1.39907         92.0692          18.051         113.051 
        1.41133         90.7625         17.6818         112.147 
        1.42358         89.6805         17.3234         110.931 
        1.43591         89.0777         16.9724         109.771 
        1.44818         87.9795         16.6332         108.833 
        1.46037         86.4741         16.3052         107.823 
        1.47263         85.0933         15.9843         106.985 
        1.48494         84.5288         15.6708         105.882 
        1.49724         83.0641          15.366         104.759 
        1.50952         81.9326         15.0699         103.836 
        1.52178         81.0493         14.7821          102.96 
        1.53409         80.3077         14.5006         102.056 
        1.54637         78.4318         14.2271         101.097 
        1.55858         77.6893         13.9622         100.149 
        1.57081         76.6798         13.7037         99.3161 
        1.58313         75.6269         13.4501         98.4446 
        1.59544         74.8209         13.2031         97.5297 
        1.60767         73.8014         12.9639         96.6585 
        1.61994         72.8393         12.7298         96.0276 
        1.63225         71.7263          12.501         94.8862 
        1.64452         70.8608         12.2784         94.1821 
        1.65676          69.806          12.062         93.3396 
          1.669         69.3173         11.8507         92.5867 
        1.68133         68.5086         11.6431         91.7303 
        1.69363         67.4899          11.441         91.0502 
        1.70585         66.8152         11.2451         90.1977 
        1.71809         65.5126         11.0533         89.5576 
        1.73038         64.8004         10.8655         88.6736 
        1.74268         63.8688         10.6818         87.9794 
        1.75493         63.3177         10.5033         87.1901 
        1.76714         62.3295         10.3293         86.4533 
        1.77942           61.97         10.1584         85.7332 
        1.79173         60.8815         9.99092         84.9727 
        1.80402         60.2132         9.82756         84.3606 
         1.8163         59.4803         9.66794         83.5356 
         1.8286         58.5894          9.5116          82.995 
         1.8409         57.6997         9.35885         82.2272 
        1.85315         56.9591         9.20998         81.6863 
        1.86537         56.3969         9.06463         80.9462 
        1.87765         55.6907         8.92189         80.1701 
        1.88995         54.9912         8.78188          79.592 
        1.90221         54.4851         8.64537         78.9334 
        1.91445         53.5405         8.51199         78.3475 
        1.92674           53.04         8.38096         77.6999 
        1.93902         52.3739         8.25268         77.0217 
        1.95124         51.9657         8.12778         76.5265 
         1.9635         50.9753         8.00514         75.7926 
        1.97583         50.4784         7.88426         75.2966 
        1.98812         49.7907         7.76633         74.6247 
        2.00039         49.2448         7.65106         74.0352 
        2.01264          48.513         7.53823         73.4652 
        2.02492         47.9614         7.42752         72.9144 
        2.03717         47.3192         7.31921         72.2699 
        2.04942         46.7079         7.21321         71.7799 
        2.06171          46.138         7.10895         71.1409 
        2.07397         45.5089         7.00698         70.6606 
        2.08629         45.0091         6.90658          70.042 
        2.09857         44.6319          6.8084         69.5607 
        2.11081         43.7117         6.71252         68.9553 
        2.12309         43.3813         6.61827         68.4522 
        2.13538         42.8551         6.52568         67.9362 
        2.14763         42.4364         6.43519         67.4204 
        2.15986         42.0146         6.34661         66.8841 
        2.17214         41.2894         6.25935          66.449 
        2.18443         41.0835         6.17364         65.8828 
        2.19671         40.3146         6.08964         65.3505 
        2.20898         39.9409         6.00731         64.8543 
        2.22126         39.4887         5.92641          64.353 
        2.23354         38.9544         5.84703         63.9284 
         2.2458         38.6124         5.76924         63.4395 
        2.25807         38.1286          5.6928         62.9217 
        2.27035         37.6483         5.61768         62.4625 
        2.28263         37.1625         5.54395         61.9958 
         2.2949         36.6498         5.47158         61.5497 
        2.30718         36.3411         5.40048         61.1013 
        2.31946         35.8256         5.33061         60.6653 
        2.33169         35.4749         5.26228         60.1893 
        2.34393         34.9306         5.19504         59.7309 
        2.35622         34.6232         5.12876         59.3092 
        2.36847         34.1792         5.06383         58.8571 
        2.38076         33.9546         4.99982         58.4548 
        2.39305         33.5173         4.93694         58.0304 
        2.40534         33.1469         4.87514         57.5371 
        2.41762         32.7528          4.8144         57.1262 
        2.42989         32.2884         4.75479         56.7574 
        2.44216         32.0539         4.69619         56.3275 
         2.4544         31.7499         4.63872         55.9373 
        2.46667         31.1885         4.58208         55.4933 
        2.47897         30.9648         4.52625         55.1184 
        2.49124         30.5829          4.4715          54.713 
        2.50349         30.2217         4.41774         54.3495 
        2.51578         29.8789          4.3647         53.9692 
        2.52805         29.6877         4.31263         53.5566 
        2.54029         29.4113         4.26153         53.1868 
        2.55257         29.0198         4.21111         52.8196 
        2.56487         28.7276         4.16141          52.446 
        2.57716         28.4543         4.11258          52.098 
        2.58942         28.0677         4.06464         51.7219 
        2.60167          27.746         4.01752         51.3207 
        2.61395         27.5084         3.97107          50.982 
        2.62624         27.2582         3.92529         50.6319 
        2.63849         27.0264         3.88038         50.2759 
        2.65073         26.7091         3.83622         49.9034 
        2.66302         26.3973         3.79259         49.5853 
         2.6753         26.1437         3.74966         49.2386 
        2.68756         25.8508         3.70749         48.8961 
        2.69983         25.6571         3.66594           48.56 
        2.71213         25.2987         3.62493         48.2394 
        2.72441         25.2036         3.58463         47.8835 
        2.73665         24.9307         3.54504         47.5598 
         2.7489         24.7535         3.50606         47.2426 
        2.76118         24.5019         3.46755         46.8973 
        2.77349         24.2947         3.42953         46.6054 
        2.78576         24.1133         3.39223         46.2796 
        2.79802         23.8064         3.35551         45.9644 
        2.81031         23.6355         3.31924         45.6709 
        2.82259         23.4509         3.28352         45.3463 
        2.83483         23.2029         3.24847         45.0359 
         2.8471         23.0955         3.21385         44.7392 
         2.8594         22.8451         3.17964         44.4558 
         2.8717         22.6168         3.14594         44.1479 
        2.88396         22.5361         3.11285         43.8389 
        2.89619         22.3836         3.08029          43.553 
        2.90847         22.2051         3.04808           43.26 
        2.92072         22.0563         3.01639         42.9908 
        2.93299         21.9642         2.98513         42.6953 
        2.94526         21.8053         2.95428         42.4203 
        2.95753         21.6184         2.92388         42.1555 
        2.96982         21.6047         2.89385         41.8743 
        2.98209         21.3923         2.86431         41.6018 
        2.99436         21.2871         2.83516         41.3323 
        3.00666         21.1645         2.80636         41.0603 
        3.01894         21.1035         2.77802          40.779 
        3.03119         20.9244         2.75011         40.5084 
        3.04345         20.8309         2.72258          40.256 
        3.05573         20.7581         2.69537          40.003 
          3.068         20.7273         2.66856         39.7364 
        3.08026         20.7078         2.64215          39.478 
        3.09254         20.5761         2.61604         39.2351 
        3.10483         20.5755         2.59028         38.9901 
         3.1171         20.4856         2.56491         38.7386 
        3.12933         20.4777         2.53994          38.491 
        3.14159         20.4594         2.51525         38.2412 
