# k  (h/Mpc)    P(k)  (Mpc/h)^3    P_linear(k)  (Mpc/h)^3     P_NL(k)  ShotnoiseSubtracted = false
      0.0156606         5042.18         4968.76         4942.57 
      0.0273761         4363.44         4292.18         4276.29 
      0.0384619            3313         3232.31         3223.88 
      0.0498308         2588.45         2541.81          2535.2 
      0.0625568         2183.44         2159.88         2152.37 
      0.0751274         1902.51         1834.87         1822.72 
      0.0867833         1500.47         1477.19         1474.98 
      0.0984825         1225.99         1168.95          1175.6 
       0.111151          1030.1         976.023         982.692 
       0.123864         925.417         879.572         885.059 
       0.135742         833.206          790.94         796.549 
        0.14762         709.923         676.284         689.531 
       0.160083         589.434         563.715         578.755 
       0.172465          521.95         492.011          510.34 
       0.184281          483.51         453.573         473.015 
       0.196406         441.166         418.871         434.194 
       0.209011         400.374         372.686         389.737 
       0.221538         357.924         325.691         349.525 
       0.233611         325.404         291.408         318.005 
       0.245665          305.43         268.957         292.693 
       0.258103         277.629         250.376          274.02 
       0.270422         259.365         230.066         253.279 
       0.282519         235.877         208.797         233.316 
       0.294636         228.916         190.237         216.106 
       0.306978         202.004         176.001         202.842 
       0.319417           193.3          164.55         190.404 
        0.33169         180.192          153.59         178.566 
       0.343948         171.868          142.31         168.161 
       0.356249         158.874         131.731         159.297 
       0.368458          152.58          122.87         148.914 
        0.38068         144.085         115.461         141.215 
       0.392856         134.352         108.697         134.587 
       0.405069         127.755         102.083         127.774 
       0.417459         121.017          95.679         120.935 
       0.429752         116.236         89.9303         115.376 
       0.441978         111.256         84.8845         110.999 
       0.454294         103.492         80.3027         105.189 
        0.46658         103.484         76.0036         101.011 
       0.478753         96.5209         71.9479         96.9822 
       0.490964          93.555         68.1381           93.13 
       0.503334         89.5117         64.6222         89.3846 
       0.515665         86.1234         61.4159         86.7752 
       0.527909         82.8723         58.4558         82.4245 
       0.540159         79.9189         55.6552         79.7516 
        0.55248         75.8019          52.998         76.7125 
       0.564743         74.2421         50.5378         74.3724 
        0.57686         71.9374         48.2765         71.8077 
       0.589077          68.279         46.1418         69.7514 
       0.601441         66.4501         44.1121          67.553 
        0.61382         64.6028         42.1983         65.1625 
       0.626067          61.917         40.4125         63.4026 
       0.638306         60.0715         38.7308         61.4035 
       0.650632         58.0618         37.1375         59.3046 
       0.662899         56.8813         35.6444         57.6058 
       0.675076           54.57         34.2451         56.0291 
       0.687267         53.7758         32.9192         54.4581 
       0.699615         51.8615         31.6468         53.2501 
       0.711937          49.814         30.4441         51.4585 
       0.724148         49.5523         29.3141         50.5544 
       0.736433         46.9087         28.2358         49.0656 
       0.748747         46.2988         27.2102         47.8227 
       0.761037         45.0169          26.238         46.7015 
       0.773197         43.9716         25.3233         45.7965 
       0.785376         42.4514         24.4512         44.6105 
       0.797761         41.9503         23.6067          43.709 
       0.810096         40.8551         22.8055         42.6386 
       0.822371         39.9236         22.0453         41.5999 
       0.834626         38.8258         21.3212         40.8913 
       0.846916         37.9081         20.6278         39.9562 
       0.859215          36.764         19.9651          39.081 
       0.871383         36.2586         19.3383          38.373 
        0.88363         35.3376         18.7347         37.6851 
       0.895928         34.5304         18.1548         36.8048 
       0.908253         33.8276         17.5984         36.2171 
       0.920535         33.2583         17.0674         35.4711 
       0.932774         32.6794         16.5602         34.7991 
        0.94508         32.0059         16.0711         34.0885 
       0.957324          31.307         15.6043         33.5256 
        0.96953         30.7012         15.1576          32.869 
       0.981769          30.072         14.7273         32.3886 
       0.994071         29.4371         14.3117         31.7968 
         1.0064         28.7887         13.9116         31.2627 
        1.01868         28.2052          13.528         30.7758 
        1.03092          27.981         13.1606         30.2251 
         1.0432         27.2583         12.8056         29.6528 
        1.05553         26.7382         12.4624         29.3773 
        1.06777         26.0752         12.1343         28.7636 
           1.08          25.524         11.8184         28.3208 
        1.09227          25.203         11.5127         27.9705 
         1.1046         24.8351         11.2168         27.4672 
         1.1169         24.4237         10.9319          27.066 
        1.12915          24.129         10.6582         26.6876 
        1.14142         23.4266         10.3935         26.2759 
        1.15365          23.213         10.1385         25.9158 
        1.16585         22.9073         9.89281          25.573 
        1.17807          22.388         9.65499         25.1159 
        1.19037         22.2003         9.42345         24.9028 
        1.20276          21.868         9.19796           24.51 
        1.21504         21.4267         8.98166         24.2369 
        1.22728         21.0199         8.77323         23.8768 
        1.23954         20.7583         8.57094         23.5317 
        1.25184         20.3652         8.37467         23.2582 
        1.26414         20.1213         8.18447         22.9258 
        1.27632         19.8424         8.00191         22.6332 
         1.2886         19.6279         7.82364         22.3763 
        1.30093          19.156          7.6502         22.1427 
        1.31316         18.9511         7.48329         21.8289 
        1.32541         18.7266         7.32134         21.6136 
        1.33772          18.388         7.16331         21.3424 
        1.35005          18.149         7.00984         21.1145 
        1.36225         17.9047         6.86244         20.8534 
        1.37447          17.544         6.71901         20.5925 
        1.38676         17.3595         6.57904         20.3886 
        1.39907         17.0964         6.44283         20.1552 
        1.41133         16.8375         6.31107         19.9202 
        1.42358          16.638         6.18313         19.6877 
        1.43591         16.3835         6.05787         19.5172 
        1.44818         16.1667         5.93678           19.31 
        1.46037          16.072         5.81972           19.06 
        1.47263         15.7777         5.70518         18.9114 
        1.48494         15.6519         5.59328         18.6655 
        1.49724         15.4376         5.48448         18.5108 
        1.50952         15.2006         5.37881          18.337 
        1.52178         15.0128         5.27608         18.1172 
        1.53409         14.7433         5.17562         17.9421 
        1.54637         14.7122         5.07799         17.7285 
        1.55858          14.453         4.98344         17.5807 
        1.57081         14.2427         4.89117          17.425 
        1.58313         14.1313         4.80066         17.2516 
        1.59544         13.8879          4.7125         17.1017 
        1.60767         13.7555         4.62712         16.9166 
        1.61994         13.5122         4.54356         16.7776 
        1.63225         13.4521          4.4619         16.6428 
        1.64452         13.2665         4.38247         16.4975 
        1.65676         13.0973         4.30523         16.3216 
          1.669          12.989         4.22979         16.1717 
        1.68133         12.7389         4.15568         16.0228 
        1.69363         12.6001         4.08357          15.851 
        1.70585         12.4543         4.01364          15.762 
        1.71809         12.3279          3.9452         15.6142 
        1.73038         12.1911         3.87814          15.495 
        1.74268         12.0808         3.81261         15.3399 
        1.75493         11.8669         3.74888         15.2047 
        1.76714         11.8786         3.68679         15.0877 
        1.77942         11.7252         3.62578         14.9386 
        1.79173         11.4886           3.566         14.8363 
        1.80402         11.4217         3.50769         14.7208 
         1.8163         11.2943         3.45072         14.5979 
         1.8286         11.1314         3.39492         14.4845 
         1.8409         11.0241          3.3404         14.3682 
        1.85315         10.9163         3.28726         14.2425 
        1.86537         10.8124         3.23538         14.1391 
        1.87765         10.7203         3.18444         14.0267 
        1.88995         10.5303         3.13446         13.9217 
        1.90221         10.4857         3.08574         13.7921 
        1.91445         10.3548         3.03813         13.7087 
        1.92674         10.2433         2.99136         13.5915 
        1.93902         10.1471         2.94558         13.5095 
        1.95124         10.0182           2.901         13.4038 
         1.9635         9.92014         2.85722         13.2939 
        1.97583          9.8355         2.81408         13.1765 
        1.98812         9.75852         2.77199         13.0791 
        2.00039         9.67523         2.73084         13.0004 
        2.01264         9.57449         2.69057         12.9115 
        2.02492         9.49274         2.65106          12.801 
        2.03717         9.34774          2.6124          12.713 
        2.04942         9.24944         2.57457         12.6223 
        2.06171         9.22126         2.53735         12.5355 
        2.07397          9.1059         2.50096         12.4525 
        2.08629          9.0268         2.46512         12.3721 
        2.09857         8.94603         2.43008         12.2759 
        2.11081         8.86601         2.39586         12.2068 
        2.12309         8.74887         2.36222         12.0977 
        2.13538         8.67084         2.32917         12.0224 
        2.14763         8.59075         2.29687          11.944 
        2.15986         8.55344         2.26526         11.8713 
        2.17214         8.46882         2.23411         11.7704 
        2.18443         8.35679         2.20352         11.7048 
        2.19671         8.33365         2.17354         11.6261 
        2.20898         8.21261         2.14415         11.5525 
        2.22126         8.12231         2.11528         11.4716 
        2.23354         8.09111         2.08695         11.3876 
         2.2458         7.99451         2.05918         11.3268 
        2.25807         7.92882          2.0319         11.2411 
        2.27035         7.87022         2.00508         11.1734 
        2.28263         7.80356         1.97877         11.0972 
         2.2949         7.71323         1.95294         11.0324 
        2.30718         7.65836         1.92756         10.9754 
        2.31946         7.59986         1.90262         10.9009 
        2.33169         7.53374         1.87823         10.8337 
        2.34393         7.47974         1.85423         10.7595 
        2.35622          7.4275         1.83058         10.6965 
        2.36847         7.35862          1.8074         10.6275 
        2.38076         7.29889         1.78456         10.5638 
        2.39305         7.20491         1.76211         10.4883 
        2.40534         7.16863         1.74005         10.4208 
        2.41762         7.11861         1.71837         10.3743 
        2.42989         7.07512          1.6971         10.3119 
        2.44216         7.01246         1.67618         10.2413 
         2.4544         6.94912         1.65567          10.182 
        2.46667         6.93687         1.63545          10.122 
        2.47897         6.87614         1.61553         10.0518 
        2.49124         6.79407         1.59599         9.99408 
        2.50349         6.75962          1.5768         9.94502 
        2.51578         6.70357         1.55787         9.88943 
        2.52805         6.66647         1.53928          9.8318 
        2.54029         6.60113         1.52104         9.77566 
        2.55257         6.58774         1.50305         9.71759 
        2.56487         6.51155         1.48531         9.65177 
        2.57716         6.47302         1.46788         9.60447 
        2.58942         6.45109         1.45077         9.55097 
        2.60167         6.40112         1.43395         9.49348 
        2.61395         6.34244         1.41737         9.44224 
        2.62624         6.31821         1.40103         9.38766 
        2.63849         6.29602           1.385         9.33687 
        2.65073         6.24119         1.36924         9.27826 
        2.66302         6.19985         1.35367         9.22393 
         2.6753         6.16296         1.33835         9.17361 
        2.68756         6.13381         1.32329         9.13136 
        2.69983         6.09096         1.30846          9.0713 
        2.71213         6.05542         1.29383         9.02101 
        2.72441         6.01595         1.27944         8.97402 
        2.73665         6.00509         1.26531          8.9201 
         2.7489         5.98084          1.2514         8.87373 
        2.76118         5.92326         1.23765         8.83401 
        2.77349         5.90018         1.22408         8.78002 
        2.78576         5.88435         1.21077         8.73346 
        2.79802         5.84053         1.19766         8.68636 
        2.81031         5.82435         1.18472         8.64331 
        2.82259         5.78547         1.17197           8.597 
        2.83483         5.76828         1.15946         8.54873 
         2.8471         5.75351          1.1471         8.50762 
         2.8594         5.74665         1.13489         8.46371 
         2.8717         5.69983         1.12286         8.41179 
        2.88396         5.67787         1.11105         8.37032 
        2.89619         5.64309         1.09943         8.33267 
        2.90847         5.64155         1.08793          8.2825 
        2.92072         5.64413         1.07662         8.23839 
        2.93299         5.62915         1.06546         8.20215 
        2.94526         5.60816         1.05445         8.15597 
        2.95753         5.58955          1.0436         8.11171 
        2.96982         5.56796         1.03289         8.07276 
        2.98209         5.56127         1.02234         8.02589 
        2.99436         5.55666         1.01194         7.98638 
        3.00666         5.56411         1.00166         7.95015 
        3.01894         5.53194        0.991542         7.90457 
        3.03119         5.53723         0.98158         7.86553 
        3.04345         5.53408        0.971754         7.82712 
        3.05573          5.5238        0.962043         7.78459 
          3.068         5.52002        0.952475         7.74898 
        3.08026         5.54498        0.943047          7.7121 
        3.09254         5.53563         0.93373         7.67089 
        3.10483         5.52283        0.924536         7.63524 
         3.1171         5.53518        0.915479         7.59985 
        3.12933         5.54105        0.906568         7.55759 
        3.14159         5.52765        0.897756         7.52104 
