# k  (h/Mpc)    Pcb(k)  (Mpc/h)^3    Pcb_linear(k) (Mpc/h)^3    Pcb_NL(k) (Mpc/h)^3   ShotnoiseSubtracted = false
      0.0156606         11552.8         11587.6         11514.9 
      0.0273761         9961.58         10021.1         9955.34 
      0.0384619          7558.1         7550.62         7499.87 
      0.0498308         5873.79         5939.43         5891.04 
      0.0625568         4958.48         5047.97          5002.6 
      0.0751274         4372.39         4288.89         4222.77 
      0.0867833         3415.44         3453.08         3435.49 
      0.0984825         2835.99         2732.69          2757.4 
       0.111151         2401.66         2281.77         2308.61 
       0.123864         2156.12         2056.34         2078.78 
       0.135742         1951.11         1849.17         1872.18 
        0.14762         1679.13         1581.14         1639.94 
       0.160083         1402.42         1317.97         1387.07 
       0.172465         1249.27         1150.34         1236.84 
       0.184281         1148.84         1060.48         1149.99 
       0.196406         1058.47         979.349         1054.44 
       0.209011          974.77         871.371         951.462 
       0.221538          878.67         761.497         872.482 
       0.233611         818.679         681.343         806.059 
       0.245665         756.327         628.854         741.645 
       0.258103         715.863         585.409         697.433 
       0.270422         651.603         537.923         649.828 
       0.282519          600.91         488.195          605.77 
       0.294636         595.125           444.8         568.215 
       0.306978         530.707         411.515         539.674 
       0.319417         511.387         384.743         507.569 
        0.33169         481.131         359.116         477.719 
       0.343948         458.542         332.742         458.192 
       0.356249         429.475         308.008         437.895 
       0.368458         416.502         287.291         413.335 
        0.38068         398.923         269.966         394.645 
       0.392856         374.201          254.15         378.356 
       0.405069         359.298         238.686         365.293 
       0.417459         343.497         223.712         346.544 
       0.429752         332.106         210.271         333.564 
       0.441978         321.216         198.474         323.256 
       0.454294         301.362         187.761         308.373 
        0.46658         299.296         177.709         299.742 
       0.478753         286.449         168.226          289.15 
       0.490964         276.879         159.319         278.952 
       0.503334         261.314         151.098         270.848 
       0.515665         258.471         143.601         264.571 
       0.527909          250.47          136.68         255.472 
       0.540159         243.361         130.132         248.133 
        0.55248         238.406         123.919         240.654 
       0.564743         232.363         118.166           235.4 
        0.57686         224.095         112.879         228.027 
       0.589077         215.165         107.888         223.068 
       0.601441         211.909         103.142         217.631 
        0.61382         209.612         98.6673         212.299 
       0.626067         204.061         94.4917         207.242 
       0.638306         194.818         90.5596         203.033 
       0.650632         189.658         86.8342         196.557 
       0.662899         189.483          83.343         193.182 
       0.675076         182.596         80.0713         188.859 
       0.687267         177.914          76.971         184.716 
       0.699615         174.368         73.9962         181.029 
       0.711937         170.213          71.184         177.336 
       0.724148         167.112         68.5417         174.734 
       0.736433         163.027         66.0206         170.697 
       0.748747         159.445         63.6225         167.213 
       0.761037         157.032         61.3493         163.802 
       0.773197         153.795         59.2107          161.93 
       0.785376         151.942         57.1716         158.267 
       0.797761         148.817          55.197         156.245 
       0.810096         145.261         53.3235         153.224 
       0.822371         140.719          51.546         150.644 
       0.834626         138.976         49.8529         148.071 
       0.846916         137.452         48.2318          145.84 
       0.859215         135.663         46.6822         143.423 
       0.871383         132.956         45.2165         141.016 
        0.88363         130.451         43.8053         139.358 
       0.895928         127.904         42.4493          137.37 
       0.908253         124.501         41.1485         134.837 
       0.920535         123.926         39.9068         133.124 
       0.932774         120.349         38.7208         130.875 
        0.94508           119.4         37.5774         129.214 
       0.957324         117.965         36.4859         127.379 
        0.96953         117.391         35.4414         125.304 
       0.981769         113.639         34.4353         124.156 
       0.994071         112.877         33.4636         122.378 
         1.0064          110.17          32.528         120.578 
        1.01868         109.169          31.631           119.2 
        1.03092         107.218          30.772         117.722 
         1.0432         105.394         29.9419         116.162 
        1.05553          102.91         29.1394         115.015 
        1.06777         102.758         28.3722         113.681 
           1.08         100.744         27.6336         112.164 
        1.09227         99.3231          26.919         110.831 
         1.1046          97.598          26.227         109.466 
         1.1169         96.4693         25.5608          107.97 
        1.12915         95.1175          24.921         106.844 
        1.14142         93.5297         24.3019         105.511 
        1.15365         91.7325         23.7058         104.331 
        1.16585         90.6625         23.1313         103.079 
        1.17807         89.2453         22.5752          102.17 
        1.19037          89.095         22.0338           101.1 
        1.20276         87.1437         21.5066         99.8962 
        1.21504         86.5436         21.0008         98.7142 
        1.22728         84.6467         20.5135         97.7187 
        1.23954         84.0038         20.0405         96.6066 
        1.25184         82.3579         19.5816         95.6937 
        1.26414         81.2789         19.1369         94.7119 
        1.27632          80.493           18.71         94.0485 
         1.2886         79.1983         18.2932         92.7028 
        1.30093         78.1014         17.8876         91.6627 
        1.31316         77.2863         17.4974         90.9742 
        1.32541         76.5604         17.1187         90.0794 
        1.33772         75.3539         16.7492         89.1468 
        1.35005         74.6746         16.3903         88.2633 
        1.36225         73.5159         16.0457         87.3916 
        1.37447         71.9112         15.7103         86.4607 
        1.38676         71.9709         15.3831         85.5265 
        1.39907         70.5868         15.0646         84.9115 
        1.41133         69.3598         14.7565         84.2498 
        1.42358         68.5951         14.4574         83.2063 
        1.43591         68.1127         14.1645         82.4706 
        1.44818         67.1371         13.8813         81.6362 
        1.46037          66.324         13.6076         81.0098 
        1.47263         65.3362         13.3398         80.3527 
        1.48494         64.6238         13.0782         79.5354 
        1.49724         63.6111         12.8238         78.7286 
        1.50952         63.1659         12.5767         77.9826 
        1.52178         62.3401         12.3365         77.3848 
        1.53409         61.7943         12.1016         76.7169 
        1.54637         60.3316         11.8733         75.9667 
        1.55858         59.7333         11.6523         75.2397 
        1.57081         59.2862         11.4365         74.6984 
        1.58313         58.3328         11.2249         74.0807 
        1.59544         57.5798         11.0187         73.3438 
        1.60767         57.0125         10.8191         72.7378 
        1.61994         56.1429         10.6237         72.2091 
        1.63225         55.4712         10.4328         71.4189 
        1.64452         54.8789         10.2471         70.9176 
        1.65676         54.0647         10.0664         70.2409 
          1.669          53.699         9.89006         69.7143 
        1.68133         53.1444         9.71679         69.0717 
        1.69363         52.2246         9.54818         68.5858 
        1.70585         51.9308         9.38466         67.9988 
        1.71809          50.846         9.22464         67.4621 
        1.73038         50.4945         9.06784         66.8809 
        1.74268         49.7756         8.91461         66.3156 
        1.75493         49.2636         8.76562         65.7608 
        1.76714         48.6569         8.62042         65.2063 
        1.77942         48.3713         8.47777         64.7074 
        1.79173         47.5344         8.33799         64.1089 
        1.80402         47.1076         8.20165         63.6907 
         1.8163         46.4942         8.06845         63.0848 
         1.8286         45.8528         7.93797          62.715 
         1.8409         45.3017         7.81049         62.0919 
        1.85315         44.8205         7.68625         61.7378 
        1.86537         44.2946         7.56495         61.2147 
        1.87765         43.8865         7.44582         60.6464 
        1.88995         43.2769         7.32898         60.1571 
        1.90221         42.9281         7.21505         59.6882 
        1.91445         42.2464         7.10373         59.2953 
        1.92674         41.8414         6.99438         58.7798 
        1.93902         41.3917         6.88733         58.3075 
        1.95124         40.9706         6.78309         57.9384 
         1.9635         40.3219         6.68074         57.4309 
        1.97583         39.9724         6.57986         57.0636 
        1.98812         39.3127         6.48144         56.5673 
        2.00039         39.0764         6.38524         56.1224 
        2.01264          38.465         6.29108         55.7489 
        2.02492         38.1471         6.19868         55.3282 
        2.03717         37.5988          6.1083         54.8618 
        2.04942          37.164         6.01983         54.4672 
        2.06171         36.8251         5.93282         54.0076 
        2.07397         36.3272         5.84772         53.6582 
        2.08629         35.9411         5.76394          53.226 
        2.09857         35.6175         5.68199         52.8736 
        2.11081         35.1126         5.60198         52.4398 
        2.12309         34.8096         5.52332         52.0415 
        2.13538         34.3059         5.44605         51.7079 
        2.14763          34.004         5.37053         51.3077 
        2.15986         33.7961         5.29661          50.903 
        2.17214         33.1982         5.22378         50.6058 
        2.18443         32.9323         5.15225         50.1516 
        2.19671         32.4418         5.08215         49.7928 
        2.20898         32.0213         5.01344         49.4175 
        2.22126         31.8854         4.94593         49.0507 
        2.23354         31.4709         4.87968         48.7556 
         2.2458         31.1314         4.81476         48.3756 
        2.25807         30.6264         4.75096         48.0047 
        2.27035         30.3306         4.68827         47.6804 
        2.28263         29.9942         4.62674          47.349 
         2.2949          29.745         4.56634         47.0137 
        2.30718         29.4283         4.50701         46.6592 
        2.31946         29.1246          4.4487         46.3327 
        2.33169         28.8245         4.39167         45.9905 
        2.34393         28.4376         4.33556          45.638 
        2.35622         28.1192         4.28024         45.3729 
        2.36847         27.8036         4.22605         45.0025 
        2.38076         27.5649         4.17263         44.7346 
        2.39305         27.2362         4.12016         44.4242 
        2.40534         26.9907         4.06858         44.0481 
        2.41762          26.616         4.01789         43.7703 
        2.42989         26.4509         3.96814         43.4645 
        2.44216         26.1228         3.91924         43.1698 
         2.4544         25.8658         3.87128         42.8816 
        2.46667          25.526           3.824         42.5661 
        2.47897         25.3144         3.77741         42.2875 
        2.49124          25.099         3.73172         41.9844 
        2.50349         24.7794         3.68685         41.7236 
        2.51578         24.4467         3.64259           41.44 
        2.52805         24.2878         3.59913         41.1354 
        2.54029         24.0848         3.55649         40.8576 
        2.55257         23.8409         3.51441         40.5773 
        2.56487         23.6151         3.47293         40.3034 
        2.57716         23.3599         3.43218         40.0163 
        2.58942         23.1205         3.39218         39.7773 
        2.60167         22.9015         3.35285         39.4841 
        2.61395         22.6859         3.31408         39.2179 
        2.62624         22.5069         3.27588         38.9695 
        2.63849         22.3281          3.2384         38.7038 
        2.65073         22.0467         3.20154         38.4268 
        2.66302         21.7784         3.16513         38.1932 
         2.6753         21.6749         3.12931         37.9419 
        2.68756          21.517         3.09411         37.7087 
        2.69983         21.3164         3.05943         37.4296 
        2.71213         21.1167         3.02521         37.1898 
        2.72441         20.9573         2.99158         36.9263 
        2.73665         20.7458         2.95853         36.6837 
         2.7489         20.5325         2.92601         36.4485 
        2.76118         20.4115         2.89387          36.185 
        2.77349         20.3042         2.86214          35.972 
        2.78576         20.0619         2.83101          35.746 
        2.79802         19.8797         2.80036         35.5049 
        2.81031         19.7743         2.77009         35.2916 
        2.82259         19.6762         2.74029         35.0565 
        2.83483         19.4228         2.71103         34.8132 
         2.8471         19.3738         2.68214         34.5799 
         2.8594         19.2119         2.65359         34.3679 
         2.8717         19.0398         2.62546         34.1377 
        2.88396         18.8698         2.59785          33.909 
        2.89619         18.8402         2.57068         33.7017 
        2.90847         18.6991          2.5438         33.4834 
        2.92072         18.5497         2.51735         33.2818 
        2.93299         18.4893         2.49126         33.0759 
        2.94526         18.4032         2.46551         32.8597 
        2.95753         18.3135         2.44014         32.6479 
        2.96982         18.2407         2.41508         32.4463 
        2.98209         18.0952         2.39043         32.2454 
        2.99436          18.062          2.3661         32.0412 
        3.00666         17.9403         2.34206         31.8329 
        3.01894         17.8852         2.31841         31.6234 
        3.03119          17.735         2.29512          31.425 
        3.04345         17.7789         2.27214         31.2369 
        3.05573          17.698         2.24944         31.0422 
          3.068         17.6145         2.22707         30.8359 
        3.08026         17.6041         2.20502          30.647 
        3.09254         17.5295         2.18324         30.4637 
        3.10483         17.4966         2.16174         30.2782 
         3.1171         17.5141         2.14056         30.0931 
        3.12933         17.4512         2.11973         29.9061 
        3.14159         17.3803         2.09912         29.7153 
