# k  (h/Mpc)    Pcb(k)  (Mpc/h)^3    Pcb_linear(k) (Mpc/h)^3    Pcb_NL(k) (Mpc/h)^3   ShotnoiseSubtracted = false
      0.0156606         12829.9         12872.7         12789.8 
      0.0273761         11053.2           11132         11053.8 
      0.0384619         8382.97         8387.37         8325.63 
      0.0498308          6508.4         6597.53         6538.05 
      0.0625568         5494.48         5607.24         5551.98 
      0.0751274         4852.82         4764.03         4684.02 
      0.0867833         3785.37         3835.61         3813.73 
      0.0984825         3150.93         3035.41         3064.01 
       0.111151         2671.97         2534.53         2566.04 
       0.123864         2398.03         2284.13         2310.36 
       0.135742         2172.01         2054.01         2080.86 
        0.14762         1872.52         1756.28         1825.56 
       0.160083         1566.58         1463.96         1545.87 
       0.172465         1396.15         1277.76         1380.58 
       0.184281         1281.43         1177.94         1283.91 
       0.196406         1183.74         1087.83         1177.53 
       0.209011         1092.59         967.891         1063.12 
       0.221538         985.314         845.846         977.375 
       0.233611         921.984         756.813         904.687 
       0.245665         848.847          698.51         832.574 
       0.258103         809.456         650.253         783.344 
       0.270422         733.416         597.507         730.644 
       0.282519         678.624         542.271         682.282 
       0.294636         672.413         494.069         640.877 
       0.306978         601.394         457.097         609.463 
       0.319417         580.489         427.359         573.354 
        0.33169         546.617         398.894          539.93 
       0.343948         520.869         369.599          518.84 
       0.356249         488.561         342.125         496.374 
       0.368458         473.976         319.113         469.114 
        0.38068         455.316         299.868         448.313 
       0.392856         427.853         282.301         430.082 
       0.405069          410.55         265.124         415.812 
       0.417459         392.887         248.492          394.99 
       0.429752         380.732         233.562         380.383 
       0.441978         368.335         220.458         368.893 
       0.454294          346.55         208.558         352.213 
        0.46658         342.749         197.393         342.759 
       0.478753         329.581          186.86         330.819 
       0.490964          318.17         176.966         319.383 
       0.503334         300.225         167.834         310.357 
       0.515665         297.908         159.507         303.335 
       0.527909         288.205         151.819         293.467 
       0.540159         280.437         144.546         285.069 
        0.55248         274.908         137.645         276.733 
       0.564743          268.78         131.255         270.941 
        0.57686          258.83         125.382         262.616 
       0.589077         248.867         119.838         256.925 
       0.601441         245.604         114.567         250.772 
        0.61382         242.598         109.596         245.011 
       0.626067         237.022         104.958         239.307 
       0.638306         226.103          100.59          234.58 
       0.650632         220.846         96.4523         227.295 
       0.662899         220.098         92.5745         223.706 
       0.675076         211.902         88.9403          218.85 
       0.687267         206.497         85.4967          214.02 
       0.699615         202.771         82.1924         209.875 
       0.711937         198.424         79.0686         205.818 
       0.724148         194.051         76.1338         202.759 
       0.736433         189.678         73.3333         198.232 
       0.748747          185.72         70.6696         194.259 
       0.761037         182.883         68.1446         190.519 
       0.773197         179.419         65.7691          188.27 
       0.785376         177.386         63.5042         184.211 
       0.797761         173.331         61.3109         181.836 
       0.810096         169.975         59.2298         178.547 
       0.822371          164.02         57.2555         175.563 
       0.834626         162.632         55.3748         172.624 
       0.846916         160.392         53.5742         170.077 
       0.859215         158.952          51.853         167.393 
       0.871383         155.278         50.2249         164.604 
        0.88363         152.924         48.6574         162.756 
       0.895928         149.728         47.1512         160.408 
       0.908253          145.65         45.7062           157.5 
       0.920535         145.071          44.327          155.48 
       0.932774         140.459         43.0097         152.993 
        0.94508         139.408         41.7397         151.193 
       0.957324          138.38         40.5273         148.962 
        0.96953         137.136          39.367         146.595 
       0.981769         132.841         38.2495         145.284 
       0.994071         132.121         37.1702         143.255 
         1.0064         128.872         36.1309          141.11 
        1.01868         127.497         35.1346         139.549 
        1.03092         125.371         34.1804         137.884 
         1.0432         123.112         33.2584         136.091 
        1.05553         120.564          32.367         134.674 
        1.06777         120.318         31.5149         133.193 
           1.08          117.78         30.6944         131.406 
        1.09227         116.363         29.9006         129.993 
         1.1046         114.329         29.1321         128.382 
         1.1169         112.967          28.392          126.65 
        1.12915         111.176         27.6814         125.328 
        1.14142         109.464         26.9937          123.74 
        1.15365         107.571         26.3315         122.392 
        1.16585         106.202         25.6934         120.897 
        1.17807         104.518         25.0757         119.932 
        1.19037         104.237         24.4744         118.657 
        1.20276         101.926         23.8887         117.227 
        1.21504         101.068          23.327         115.884 
        1.22728         98.9193         22.7856         114.654 
        1.23954          98.207         22.2603          113.45 
        1.25184         96.1143         21.7505         112.307 
        1.26414         94.9919         21.2565         111.174 
        1.27632         94.1424         20.7824         110.506 
         1.2886         92.4589         20.3194         108.873 
        1.30093         90.8702         19.8689         107.687 
        1.31316         90.2152         19.4354         106.778 
        1.32541         89.1155         19.0148         105.821 
        1.33772         87.8791         18.6044         104.719 
        1.35005         86.9743         18.2058         103.636 
        1.36225          85.734          17.823         102.656 
        1.37447         83.9067         17.4505         101.554 
        1.38676         83.8044          17.087         100.442 
        1.39907         82.0097         16.7332         99.6989 
        1.41133         80.7149          16.391         98.9135 
        1.42358         79.8336         16.0587          97.756 
        1.43591         79.2529         15.7334         96.8108 
        1.44818         78.1783         15.4189         95.9186 
        1.46037         77.0125         15.1149         95.1051 
        1.47263         75.7505         14.8174          94.347 
        1.48494         75.2091         14.5268         93.3928 
        1.49724         73.8864         14.2442         92.4103 
        1.50952         73.1078         13.9697         91.5664 
        1.52178         72.2018         13.7029         90.8357 
        1.53409         71.6163          13.442         90.0442 
        1.54637         69.8434         13.1885         89.1749 
        1.55858         69.2334         12.9429         88.3379 
        1.57081         68.4984         12.7033         87.6469 
        1.58313         67.4276         12.4682          86.902 
        1.59544         66.6678         12.2392         86.0643 
        1.60767         65.9222         12.0175         85.3312 
        1.61994         65.0032         11.8005          84.747 
        1.63225         64.0311         11.5884         83.7732 
        1.64452         63.3238         11.3821         83.1746 
        1.65676         62.3626         11.1815         82.3999 
          1.669          61.935         10.9855         81.7478 
        1.68133         61.2539         10.7931         81.0032 
        1.69363         60.2134         10.6058         80.4247 
        1.70585         59.7753         10.4241         79.6919 
        1.71809         58.5079         10.2464         79.1199 
        1.73038         57.9434         10.0722         78.3647 
        1.74268         57.1715         9.90203         77.7447 
        1.75493         56.5933         9.73653         77.0635 
        1.76714           55.84         9.57525         76.4043 
        1.77942         55.5159         9.41681         75.7995 
        1.79173         54.5216         9.26154         75.1043 
        1.80402         53.9679         9.11011         74.5888 
         1.8163         53.2881         8.96214         73.8793 
         1.8286         52.4786         8.81722          73.427 
         1.8409         51.7436         8.67562         72.7182 
        1.85315         51.1365         8.53761         72.2765 
        1.86537         50.5903         8.40288         71.6354 
        1.87765         50.0134         8.27056         70.9538 
        1.88995         49.3836         8.14077         70.4198 
        1.90221         48.9731         8.01422         69.8522 
        1.91445         48.1841         7.89058         69.3655 
        1.92674          47.693         7.76911         68.7763 
        1.93902         47.1086          7.6502         68.1948 
        1.95124         46.7245         7.53442         67.7662 
         1.9635         45.8573         7.42073         67.1416 
        1.97583         45.4171         7.30868          66.704 
        1.98812          44.722         7.19936         66.1177 
        2.00039         44.4152          7.0925         65.5928 
        2.01264         43.6604         6.98791          65.124 
        2.02492         43.2592         6.88528         64.6353 
        2.03717          42.638         6.78488         64.0755 
        2.04942         42.1171         6.68662         63.6316 
        2.06171         41.6712         6.58997         63.0682 
        2.07397         41.0631         6.49544         62.6579 
        2.08629         40.6238         6.40237         62.1258 
        2.09857         40.3001         6.31136         61.7144 
        2.11081         39.6039         6.22248         61.1885 
        2.12309         39.2337         6.13511         60.7311 
        2.13538         38.7597         6.04928         60.3066 
        2.14763         38.4072         5.96539         59.8471 
        2.15986         38.1624         5.88328         59.3716 
        2.17214         37.4126         5.80239         59.0133 
        2.18443         37.2229         5.72294         58.4891 
        2.19671         36.5529         5.64508         58.0403 
        2.20898         36.1306         5.56875         57.6009 
        2.22126         35.8276         5.49376         57.1683 
        2.23354         35.3522         5.42017         56.8077 
         2.2458         35.0697         5.34806         56.3659 
        2.25807         34.4868          5.2772         55.9198 
        2.27035         34.1296         5.20756         55.5256 
        2.28263          33.703         5.13922          55.127 
         2.2949         33.3089         5.07213         54.7329 
        2.30718         33.0233         5.00622         54.3295 
        2.31946         32.5888         4.94145         53.9444 
        2.33169         32.2998         4.87811         53.5275 
        2.34393         31.8152         4.81578         53.1175 
        2.35622         31.4771         4.75434         52.7771 
        2.36847         31.1045         4.69415         52.3562 
        2.38076          30.904         4.63481         52.0271 
        2.39305         30.5122         4.57652         51.6562 
        2.40534         30.1948         4.51923         51.2125 
        2.41762         29.8134         4.46293          50.866 
        2.42989         29.4712         4.40767          50.531 
        2.44216         29.2004         4.35335         50.1635 
         2.4544         28.9041         4.30008         49.8249 
        2.46667         28.4196         4.24757          49.441 
        2.47897          28.238         4.19581         49.1163 
        2.49124         27.9425         4.14506          48.752 
        2.50349         27.5928         4.09523         48.4466 
        2.51578         27.2387         4.04606         48.1095 
        2.52805         27.0236         3.99779         47.7458 
        2.54029         26.8486         3.95042         47.4234 
        2.55257         26.4979         3.90368         47.0974 
        2.56487          26.278         3.85761         46.7683 
        2.57716         25.9883         3.81234         46.4472 
        2.58942         25.6694         3.76791         46.1403 
        2.60167         25.3811         3.72422         45.7869 
        2.61395         25.1588         3.68117         45.4827 
        2.62624         24.9043         3.63873         45.1857 
        2.63849         24.7172          3.5971           44.87 
        2.65073         24.4412         3.55616         44.5416 
        2.66302          24.116         3.51571         44.2664 
         2.6753         23.9268         3.47592          43.963 
        2.68756         23.6911         3.43683         43.6755 
        2.69983          23.523         3.39831         43.3651 
        2.71213         23.2593          3.3603         43.0824 
        2.72441         23.1086         3.32294         42.7693 
        2.73665         22.8418         3.28623         42.4864 
         2.7489         22.6601          3.2501         42.2077 
        2.76118         22.4809         3.21441         41.8961 
        2.77349         22.3199         3.17916         41.6444 
        2.78576         22.1467         3.14459         41.3663 
        2.79802         21.8293         3.11054         41.0867 
        2.81031         21.7251         3.07692         40.8339 
        2.82259         21.5829         3.04381         40.5495 
        2.83483         21.3486         3.01132         40.2695 
         2.8471         21.2829         2.97923         40.0022 
         2.8594          21.043         2.94751         39.7535 
         2.8717         20.8424         2.91627         39.4822 
        2.88396         20.7069          2.8856         39.2116 
        2.89619         20.6361         2.85542         38.9628 
        2.90847         20.4647         2.82556         38.7026 
        2.92072          20.289         2.79618         38.4714 
        2.93299         20.2321          2.7672         38.2173 
        2.94526         20.1001          2.7386         37.9667 
        2.95753         19.9471         2.71042         37.7263 
        2.96982         19.9135         2.68259         37.4836 
        2.98209         19.7257          2.6552         37.2465 
        2.99436         19.7009         2.62818         37.0086 
        3.00666         19.5409         2.60148         36.7647 
        3.01894         19.4959         2.57521         36.5166 
        3.03119         19.3365         2.54934         36.2782 
        3.04345          19.294         2.52382         36.0573 
        3.05573         19.2183          2.4986         35.8333 
          3.068         19.1916         2.47375         35.5903 
        3.08026         19.1767         2.44926         35.3666 
        3.09254         19.0637         2.42506         35.1541 
        3.10483         19.0321         2.40118         34.9372 
         3.1171         18.9896         2.37766          34.716 
        3.12933         18.9506         2.35452         34.4953 
        3.14159         18.9264         2.33163         34.2736 
