# k  (h/Mpc)    Pcb(k)  (Mpc/h)^3    Pcb_linear(k) (Mpc/h)^3    Pcb_NL(k) (Mpc/h)^3   ShotnoiseSubtracted = false
      0.0156606           16889         16962.5         16842.1 
      0.0273761         14513.8         14666.8         14537.8 
      0.0384619         10993.1           11050         10940.9 
      0.0498308         8511.94         8691.68         8583.64 
      0.0625568         7188.19         7386.88         7288.96 
      0.0751274         6376.68         6275.97         6136.68 
      0.0867833         4955.61         5052.85         5011.74 
      0.0984825         4155.78         3998.68         4041.78 
       0.111151         3538.93         3338.83         3389.02 
       0.123864         3173.42         3008.96         3050.13 
       0.135742         2883.06          2705.8         2747.56 
        0.14762         2498.15         2313.59         2424.02 
       0.160083         2103.74         1928.51         2061.94 
       0.172465         1876.37         1683.22         1852.14 
       0.184281         1711.74         1551.73         1723.35 
       0.196406         1596.22         1433.02          1583.2 
       0.209011         1483.28         1275.02         1432.09 
       0.221538         1337.84         1114.25          1327.8 
       0.233611         1267.67         996.962         1237.19 
       0.245665         1156.39         920.158          1140.1 
       0.258103         1125.68         856.588         1074.59 
       0.270422         1009.18         787.104         1006.04 
       0.282519         943.701         714.341         945.779 
       0.294636         933.026         650.844         892.469 
       0.306978         842.791          602.14          852.26 
       0.319417          819.06         562.966         802.611 
        0.33169         771.621         525.468         757.664 
       0.343948         736.764         486.877         732.013 
       0.356249         694.211         450.685         702.789 
       0.368458         671.933         420.371          667.56 
        0.38068         652.737          395.02         640.057 
       0.392856         616.703         371.879         615.672 
       0.405069         588.963         349.251         596.649 
       0.417459          565.44         327.341          570.66 
       0.429752         554.024         307.674         550.259 
       0.441978         535.382         290.412         534.988 
       0.454294         508.151         274.736         512.116 
        0.46658         496.695         260.028          500.24 
       0.478753         483.234         246.153         483.841 
       0.490964         465.148          233.12         468.231 
       0.503334         441.128          221.09         456.339 
       0.515665         440.048          210.12         446.441 
       0.527909         423.447         199.993          434.62 
       0.540159         412.733         190.412         422.564 
        0.55248         404.581         181.321         411.154 
       0.564743          399.69         172.904         403.666 
        0.57686         384.203         165.167         392.167 
       0.589077          372.25         157.864         383.439 
       0.601441         367.704          150.92         374.994 
        0.61382          360.08         144.372         368.002 
       0.626067         354.565         138.262         360.162 
       0.638306         339.758         132.509         353.272 
       0.650632         334.756         127.058         343.364 
       0.662899         331.869         121.949         339.187 
       0.675076         319.095         117.162         333.032 
       0.687267          311.08         112.626         325.223 
       0.699615         306.829         108.273         319.773 
       0.711937         302.108         104.158         314.033 
       0.724148         292.429         100.292         309.336 
       0.736433         285.954         96.6027         303.172 
       0.748747         281.645         93.0938         297.483 
       0.761037         276.369         89.7676         292.971 
       0.773197         272.883         86.6383         288.921 
       0.785376          268.76         83.6547         283.918 
       0.797761          262.06         80.7654         279.599 
       0.810096         259.222         78.0241         275.738 
       0.822371         249.579         75.4233          271.17 
       0.834626         248.824         72.9458         267.252 
       0.846916         243.396         70.5738         263.318 
       0.859215         243.349         68.3064          259.53 
       0.871383         236.721         66.1618         255.621 
        0.88363         235.095         64.0969          252.98 
       0.895928         229.707         62.1128         248.981 
       0.908253          223.51         60.2093         244.926 
       0.920535         222.403         58.3924         241.651 
       0.932774         215.573         56.6572         238.318 
        0.94508         213.381         54.9841         235.831 
       0.957324         212.744          53.387         232.356 
        0.96953         209.662         51.8586         229.101 
       0.981769         203.213         50.3864         226.929 
       0.994071          202.28         48.9647         223.987 
         1.0064         197.751         47.5956         220.614 
        1.01868         195.046         46.2831          218.04 
        1.03092         191.082         45.0262           215.8 
         1.0432         187.505         43.8117         213.138 
        1.05553         184.848         42.6374         210.476 
        1.06777         184.529         41.5149         208.343 
           1.08         179.878         40.4341         205.699 
        1.09227         177.665         39.3884         203.499 
         1.1046         174.965          38.376         201.325 
         1.1169         171.813         37.4011         198.566 
        1.12915         169.293          36.465         196.739 
        1.14142          166.57         35.5591         194.175 
        1.15365         164.267         34.6868         192.136 
        1.16585         161.932         33.8462         189.644 
        1.17807         159.734         33.0325         188.217 
        1.19037         158.388         32.2404         186.321 
        1.20276          155.76         31.4689         184.004 
        1.21504         152.925         30.7288         182.029 
        1.22728         149.948         30.0157         179.723 
        1.23954         149.404         29.3237         178.406 
        1.25184         146.531         28.6522          176.36 
        1.26414         144.186         28.0015         174.513 
        1.27632         143.641         27.3768         173.457 
         1.2886         141.366          26.767         171.075 
        1.30093         137.333         26.1736         169.224 
        1.31316         136.256         25.6025         167.332 
        1.32541         134.524         25.0484         166.074 
        1.33772         133.248         24.5077         164.278 
        1.35005         131.242         23.9827         162.436 
        1.36225         129.518         23.4784         160.982 
        1.37447         127.395         22.9877         159.128 
        1.38676         125.954         22.5088         157.624 
        1.39907         123.532         22.0428         156.083 
        1.41133         121.757          21.592          154.76 
        1.42358          120.01         21.1543         153.299 
        1.43591         118.811         20.7257          151.58 
        1.44818         117.617         20.3115         150.305 
        1.46037         115.406          19.911         148.749 
        1.47263         114.246         19.5191         147.624 
        1.48494         112.518         19.1363         145.924 
        1.49724         110.958          18.764         144.551 
        1.50952         108.914         18.4025         143.241 
        1.52178         108.374          18.051         141.803 
        1.53409         106.333         17.7073         140.618 
        1.54637         104.886         17.3733         139.393 
        1.55858         103.106         17.0498         137.972 
        1.57081         101.732         16.7341         136.798 
        1.58313         100.539         16.4245         135.469 
        1.59544          99.351         16.1228         134.294 
        1.60767         98.0128         15.8307         132.992 
        1.61994         96.3664         15.5449         132.078 
        1.63225         95.1219         15.2655         130.496 
        1.64452         93.4515         14.9937         129.372 
        1.65676         92.1727         14.7294         128.323 
          1.669          91.565         14.4713          127.28 
        1.68133         89.8398         14.2178         126.077 
        1.69363         88.9545         13.9711          125.01 
        1.70585         87.3737         13.7318         123.868 
        1.71809         86.2035         13.4977         122.731 
        1.73038         85.4888         13.2683         121.667 
        1.74268         84.1909          13.044         120.583 
        1.75493         83.0741          12.826         119.505 
        1.76714         81.7699         12.6136         118.546 
        1.77942          80.935         12.4049         117.407 
        1.79173         79.5962         12.2003         116.487 
        1.80402         78.9678         12.0008         115.527 
         1.8163         77.5263         11.8059         114.375 
         1.8286         76.4379          11.615         113.462 
         1.8409         75.7603         11.4285          112.48 
        1.85315         74.5376         11.2467         111.595 
        1.86537         73.6819         11.0692         110.639 
        1.87765         73.0085         10.8949         109.621 
        1.88995         71.7791         10.7239         108.783 
        1.90221         70.8314         10.5572          107.84 
        1.91445         69.6257         10.3943          106.91 
        1.92674         68.7125         10.2343         106.051 
        1.93902         67.8476         10.0777         105.095 
        1.95124         67.2731         9.92516          104.32 
         1.9635         66.1895          9.7754         103.288 
        1.97583         65.3061         9.62779         102.586 
        1.98812         64.4734         9.48379          101.69 
        2.00039          63.459         9.34302         100.846 
        2.01264         62.9551         9.20524         99.9953 
        2.02492         61.9989         9.07005         99.1865 
        2.03717          61.005         8.93779         98.3112 
        2.04942         60.6063         8.80835         97.6236 
        2.06171          59.386         8.68103          96.773 
        2.07397         58.7762         8.55651         96.0372 
        2.08629         58.1677         8.43391         95.1993 
        2.09857         57.2724         8.31401         94.4532 
        2.11081         56.2787         8.19693         93.6017 
        2.12309         55.9111         8.08183         92.9652 
        2.13538         55.0236         7.96878         92.1794 
        2.14763         54.3368         7.85827         91.4468 
        2.15986         53.3077         7.75011         90.6977 
        2.17214         52.9269         7.64355         89.9648 
        2.18443         52.2897         7.53889         89.3456 
        2.19671         51.3776         7.43631         88.5762 
        2.20898         51.1831         7.33577         87.8736 
        2.22126         50.3289         7.23698         87.1463 
        2.23354          49.646         7.14005         86.5053 
         2.2458         49.0526         7.04506         85.8606 
        2.25807         48.4507         6.95171         85.1262 
        2.27035          47.921         6.85998         84.4592 
        2.28263         47.1129         6.76994         83.7879 
         2.2949         46.7399         6.68157         83.1472 
        2.30718         45.9024         6.59475         82.5372 
        2.31946         45.4176         6.50943         81.9108 
        2.33169         44.7966         6.42599         81.2727 
        2.34393         44.1017         6.34388         80.6567 
        2.35622         43.8212         6.26294         80.0265 
        2.36847         43.2391         6.18365         79.4707 
        2.38076         42.6385         6.10549         78.7977 
        2.39305         42.1211          6.0287         78.2422 
        2.40534         41.6709         5.95323         77.5985 
        2.41762         41.2586         5.87906         76.9775 
        2.42989         40.6701         5.80627         76.4721 
        2.44216         40.2814         5.73471         75.8679 
         2.4544         39.7731         5.66453         75.2892 
        2.46667         39.3592         5.59536         74.6964 
        2.47897         38.8826         5.52718         74.1581 
        2.49124         38.3492         5.46033         73.6188 
        2.50349         37.8701         5.39468         73.0468 
        2.51578          37.386         5.32991         72.5688 
        2.52805         37.1467         5.26632         71.9999 
        2.54029          36.644         5.20393         71.4349 
        2.55257         36.0884         5.14236         70.9396 
        2.56487         35.8265         5.08167         70.4496 
        2.57716         35.3544         5.02204         69.9518 
        2.58942         34.9073          4.9635          69.415 
        2.60167         34.5128         4.90596         68.9023 
        2.61395          34.134         4.84924         68.4091 
        2.62624         33.8941         4.79333         67.8959 
        2.63849         33.5579         4.73849          67.427 
        2.65073         33.1859         4.68456         66.9129 
        2.66302         32.7154         4.63128         66.4334 
         2.6753         32.3533         4.57887          65.968 
        2.68756          31.906         4.52737         65.4639 
        2.69983         31.7349         4.47662         65.0399 
        2.71213         31.4104         4.42655         64.5961 
        2.72441         31.0986         4.37734         64.1166 
        2.73665         30.7501         4.32899         63.6527 
         2.7489         30.6213         4.28139         63.2089 
        2.76118         30.1396         4.23437         62.7757 
        2.77349         30.0071         4.18794          62.334 
        2.78576         29.7707          4.1424         61.8744 
        2.79802         29.3252         4.09755         61.4799 
        2.81031         29.0615         4.05326         61.0456 
        2.82259         28.9219         4.00964         60.5971 
        2.83483         28.5687         3.96683         60.1902 
         2.8471         28.2573         3.92457         59.7831 
         2.8594         28.1525         3.88279         59.3715 
         2.8717          27.879         3.84163          58.962 
        2.88396         27.6253         3.80123         58.5359 
        2.89619         27.3874         3.76147         58.1242 
        2.90847         27.2184         3.72214         57.7461 
        2.92072         26.9808         3.68343          57.348 
        2.93299         26.8426         3.64526         56.9535 
        2.94526          26.597         3.60759         56.5859 
        2.95753         26.4524         3.57047         56.2078 
        2.96982         26.3633          3.5338          55.823 
        2.98209          26.093         3.49773         55.4537 
        2.99436         25.9266         3.46212         55.0641 
        3.00666         25.8424         3.42696         54.7054 
        3.01894         25.6244         3.39235         54.3205 
        3.03119         25.5367         3.35827         53.9675 
        3.04345         25.3651         3.32465          53.633 
        3.05573         25.3194         3.29142         53.2784 
          3.068         25.2039         3.25869         52.9211 
        3.08026         25.0243         3.22644         52.5651 
        3.09254         24.9462         3.19456         52.2205 
        3.10483         24.9594          3.1631         51.8861 
         3.1171         24.8834         3.13211         51.5484 
        3.12933         24.8017         3.10163         51.2053 
        3.14159         24.6781         3.07148         50.8672 
