# k  (h/Mpc)    Pcb(k)  (Mpc/h)^3    Pcb_linear(k) (Mpc/h)^3    Pcb_NL(k) (Mpc/h)^3   ShotnoiseSubtracted = false
      0.0156606         3519.64         3522.84         3505.08 
      0.0273761         3055.12         3048.08         3038.69 
      0.0384619         2321.59         2297.13         2293.26 
      0.0498308         1817.83         1807.17         1804.68 
      0.0625568         1533.73         1536.05         1532.52 
      0.0751274         1330.84         1305.12         1298.97 
      0.0867833         1053.41         1050.81         1049.91 
      0.0984825         856.354         831.608         835.384 
       0.111151         718.094         694.393         698.104 
       0.123864         645.109         625.798         628.718 
       0.135742         580.058         562.755         565.692 
        0.14762         493.255         481.187         488.099 
       0.160083         409.496           401.1          408.95 
       0.172465         361.539         350.086         359.559 
       0.184281         335.155         322.739         332.808 
       0.196406         305.637         298.049          305.86 
       0.209011          276.14         265.189         273.996 
       0.221538         245.871         231.751         244.064 
       0.233611         222.235         207.357         221.056 
       0.245665         208.807         191.383         203.581 
       0.258103         188.552         178.162         190.313 
       0.270422         176.858          163.71         175.552 
       0.282519          160.56         148.576          161.17 
       0.294636         154.095          135.37         148.655 
       0.306978         136.103          125.24         138.989 
       0.319417          130.02         117.092         130.371 
        0.33169         120.949         109.293         122.126 
       0.343948          115.07         101.266         114.396 
       0.356249         105.848         93.7387         107.976 
       0.368458         101.249         87.4337         100.681 
        0.38068         95.1644          82.161          95.284 
       0.392856         88.8347         77.3478         90.5727 
       0.405069         84.1679         72.6415         85.5787 
       0.417459         79.1776         68.0844         80.9966 
       0.429752         75.9176         63.9937         76.9516 
       0.441978         72.3946         60.4034         73.7937 
       0.454294         67.3396          57.143         69.8588 
        0.46658         67.0189         54.0839         66.7871 
       0.478753         62.3309         51.1979         63.9374 
       0.490964         60.3023         48.4872          61.339 
       0.503334         57.8011          45.985         58.5709 
       0.515665          55.137         43.7034         56.6941 
       0.527909         52.8215         41.5971         53.7304 
       0.540159         50.7715         39.6044         51.7823 
        0.55248         47.6162         37.7135           49.67 
       0.564743            46.9         35.9627         48.0589 
        0.57686         45.3967         34.3536         46.2926 
       0.589077         42.8577         32.8346         44.8421 
       0.601441         41.4817         31.3902         43.2755 
        0.61382         40.1145         30.0284          41.616 
       0.626067         38.4849         28.7576         40.3968 
       0.638306         37.2791         27.5609         38.9658 
       0.650632          36.184         26.4271         37.7031 
       0.662899          34.886         25.3646         36.4585 
       0.675076         33.3401         24.3689         35.3453 
       0.687267         32.9221         23.4254         34.2498 
       0.699615         31.7534           22.52         33.3644 
       0.711937         30.2521         21.6641         32.2456 
       0.724148         30.1134           20.86         31.5103 
       0.736433         28.3775         20.0927         30.5356 
       0.748747          27.958         19.3629         29.7059 
       0.761037         27.2152          18.671         28.9712 
       0.773197         26.4092         18.0202         28.2606 
       0.785376         25.3927         17.3996         27.5201 
       0.797761         24.9384         16.7987         26.8441 
       0.810096         24.3758         16.2285         26.1837 
       0.822371         23.7211         15.6875         25.4581 
       0.834626         22.9978         15.1722         24.9579 
       0.846916         22.3487         14.6789         24.3233 
       0.859215         21.5735         14.2073         23.7684 
       0.871383         21.2289         13.7612         23.2902 
        0.88363         20.6808         13.3317         22.7747 
       0.895928         20.2568          12.919         22.2017 
       0.908253          19.793         12.5231         21.7935 
       0.920535         19.2668         12.1452         21.2971 
       0.932774         18.9632         11.7843         20.8031 
        0.94508         18.4109         11.4363         20.4008 
       0.957324         18.0713         11.1041         20.0152 
        0.96953         17.4993         10.7862         19.5845 
       0.981769         17.3416           10.48         19.2312 
       0.994071         16.8534         10.1843         18.8294 
         1.0064         16.4008         9.89956         18.4909 
        1.01868         16.0825         9.62658         18.1588 
        1.03092         15.8983         9.36515         17.7961 
         1.0432         15.3495         9.11253         17.4461 
        1.05553         15.1075         8.86829          17.214 
        1.06777          14.671         8.63481         16.8333 
           1.08         14.4076         8.41001         16.5613 
        1.09227         14.1422         8.19252         16.2966 
         1.1046         13.9206         7.98194         15.9772 
         1.1169         13.5583         7.77917         15.7044 
        1.12915          13.494         7.58447         15.4935 
        1.14142         12.9878         7.39605         15.2072 
        1.15365         12.8917         7.21462         14.9587 
        1.16585         12.7329         7.03978         14.7547 
        1.17807         12.3537         6.87054         14.4687 
        1.19037          12.194         6.70578         14.2833 
        1.20276         11.9385         6.54532         14.0429 
        1.21504         11.7703          6.3914         13.8528 
        1.22728         11.4752         6.24308         13.6229 
        1.23954         11.3169         6.09913         13.4367 
        1.25184         11.1013         5.95946         13.2408 
        1.26414         10.9514         5.82412         13.0237 
        1.27632         10.6959          5.6942         12.8419 
         1.2886         10.5847         5.56735         12.6716 
        1.30093          10.361         5.44393          12.537 
        1.31316          10.192         5.32515         12.3247 
        1.32541         10.0388         5.20991         12.1951 
        1.33772         9.84685         5.09745          12.001 
        1.35005         9.73473         4.98824         11.8575 
        1.36225         9.55218         4.88335         11.6799 
        1.37447          9.3933         4.78129         11.5421 
        1.38676         9.24478         4.68168          11.404 
        1.39907         9.08293         4.58476         11.2506 
        1.41133         8.95745           4.491         11.1127 
        1.42358         8.78759         4.39996         10.9617 
        1.43591         8.69399         4.31082         10.8531 
        1.44818         8.51319         4.22465         10.7163 
        1.46037         8.41696         4.14135         10.5731 
        1.47263         8.27742         4.05984         10.4682 
        1.48494         8.20288         3.98021         10.3181 
        1.49724          8.0419         3.90279         10.2178 
        1.50952         8.00227          3.8276         10.1033 
        1.52178         7.83434         3.75449         9.97825 
        1.53409         7.69331         3.68301         9.86049 
        1.54637         7.63058         3.61353         9.73794 
        1.55858         7.54505         3.54625         9.63884 
        1.57081          7.3673         3.48059         9.54928 
        1.58313         7.31947         3.41618         9.43972 
        1.59544         7.16876         3.35345         9.34673 
        1.60767         7.09674         3.29269         9.23474 
        1.61994         6.99447         3.23323         9.15147 
        1.63225         6.90212         3.17511         9.05366 
        1.64452         6.79367         3.11859         8.95959 
        1.65676          6.7039         3.06363         8.86713 
          1.669          6.6552         3.00995         8.77336 
        1.68133         6.50736         2.95721         8.68218 
        1.69363         6.44711          2.9059         8.60679 
        1.70585         6.36074         2.85613         8.51605 
        1.71809         6.28843         2.80743         8.43755 
        1.73038         6.22784         2.75971         8.35805 
        1.74268          6.1385         2.71307         8.27836 
        1.75493         6.04546         2.66773         8.18458 
        1.76714         6.02265         2.62354         8.12015 
        1.77942         5.92556         2.58013         8.03398 
        1.79173         5.84067         2.53759         7.95914 
        1.80402         5.79338         2.49609         7.88851 
         1.8163         5.72824         2.45555         7.82557 
         1.8286         5.63543         2.41585         7.75437 
         1.8409         5.56624         2.37705         7.69037 
        1.85315         5.50307         2.33924         7.60858 
        1.86537         5.46427         2.30232         7.54734 
        1.87765         5.38677         2.26607         7.47685 
        1.88995         5.29842          2.2305         7.41866 
        1.90221         5.26213         2.19583         7.34621 
        1.91445         5.19318         2.16195         7.30033 
        1.92674         5.15314         2.12867         7.22274 
        1.93902         5.09282         2.09609         7.16624 
        1.95124          5.0291         2.06437         7.09763 
         1.9635         4.98661         2.03322         7.05121 
        1.97583         4.93307         2.00252         6.98967 
        1.98812          4.8692         1.97257         6.92223 
        2.00039         4.81566         1.94329           6.879 
        2.01264         4.77259         1.91463         6.82511 
        2.02492         4.72624         1.88651         6.76634 
        2.03717         4.66939           1.859         6.71195 
        2.04942          4.6018         1.83208         6.66546 
        2.06171         4.56993          1.8056         6.61038 
        2.07397         4.52823          1.7797          6.5578 
        2.08629         4.48026          1.7542         6.51102 
        2.09857         4.42785         1.72926         6.45901 
        2.11081         4.38766         1.70491          6.4156 
        2.12309         4.33977         1.68097         6.35754 
        2.13538         4.29802         1.65745         6.31957 
        2.14763          4.2582         1.63447         6.26974 
        2.15986         4.22585         1.61197         6.22453 
        2.17214           4.177         1.58981         6.17129 
        2.18443         4.14355         1.56804         6.12966 
        2.19671         4.09165          1.5467         6.08618 
        2.20898         4.05572         1.52579         6.04541 
        2.22126         4.02441         1.50525         5.99905 
        2.23354         3.98113         1.48508         5.95297 
         2.2458          3.9516         1.46533         5.90859 
        2.25807         3.91424         1.44591         5.87301 
        2.27035         3.87641         1.42683         5.83504 
        2.28263         3.84382          1.4081         5.79209 
         2.2949         3.81048         1.38972         5.75675 
        2.30718         3.77654         1.37166          5.7243 
        2.31946         3.75102         1.35392          5.6838 
        2.33169         3.71017         1.33656         5.64009 
        2.34393         3.69364         1.31949         5.60301 
        2.35622         3.66402         1.30265         5.56347 
        2.36847         3.62423         1.28616         5.52742 
        2.38076         3.60405          1.2699         5.48957 
        2.39305         3.56027         1.25393         5.45074 
        2.40534         3.53714         1.23823         5.41713 
        2.41762         3.49439         1.22281         5.38846 
        2.42989         3.48348         1.20767         5.35101 
        2.44216         3.46373         1.19278         5.31918 
         2.4544         3.42296         1.17819         5.28319 
        2.46667          3.4062          1.1638         5.25082 
        2.47897         3.37179         1.14962         5.21694 
        2.49124         3.34254         1.13571         5.18398 
        2.50349         3.32964         1.12206         5.15579 
        2.51578         3.29002         1.10859         5.12084 
        2.52805         3.27537         1.09536         5.08944 
        2.54029         3.25359         1.08238         5.05918 
        2.55257         3.23693         1.06958         5.03063 
        2.56487         3.20749         1.05695         4.99528 
        2.57716          3.1989         1.04455         4.96613 
        2.58942         3.16156         1.03238         4.93791 
        2.60167         3.14545         1.02041         4.90647 
        2.61395         3.11446         1.00861         4.87985 
        2.62624         3.11544        0.996982         4.85318 
        2.63849         3.08351        0.985575         4.82066 
        2.65073         3.06333        0.974359         4.79197 
        2.66302         3.04905        0.963277          4.7654 
         2.6753         3.03474        0.952375         4.73802 
        2.68756         3.00566        0.941663         4.71264 
        2.69983         2.99326        0.931109         4.68239 
        2.71213         2.98454        0.920694         4.65569 
        2.72441         2.96624        0.910457         4.63033 
        2.73665         2.94906        0.900401         4.60362 
         2.7489         2.92626        0.890502         4.58106 
        2.76118         2.91149        0.880722         4.55995 
        2.77349         2.90919        0.871065         4.52994 
        2.78576         2.89216        0.861591         4.50432 
        2.79802         2.88446        0.852263         4.48167 
        2.81031          2.8638        0.843052         4.45592 
        2.82259         2.85038         0.83398         4.43122 
        2.83483         2.84844        0.825076         4.40825 
         2.8471         2.83145        0.816285         4.38443 
         2.8594         2.82438        0.807595         4.36284 
         2.8717         2.81041        0.799034          4.3372 
        2.88396         2.80415         0.79063         4.31268 
        2.89619         2.77984        0.782362         4.29183 
        2.90847         2.77916         0.77418         4.26574 
        2.92072         2.77857         0.76613         4.24532 
        2.93299         2.76989         0.75819         4.22334 
        2.94526         2.77013        0.750355         4.20184 
        2.95753         2.75057        0.742634         4.18016 
        2.96982         2.74018        0.735008         4.15824 
        2.98209         2.74471        0.727505         4.13781 
        2.99436         2.73445        0.720099         4.11616 
        3.00666         2.74136        0.712785         4.09595 
        3.01894         2.73206        0.705586         4.07158 
        3.03119         2.73452        0.698498         4.05187 
        3.04345         2.72674        0.691506         4.03397 
        3.05573         2.72852        0.684595         4.01347 
          3.068         2.72652        0.677787         3.99397 
        3.08026         2.73392        0.671078         3.97335 
        3.09254         2.73038        0.664447         3.95243 
        3.10483         2.73426        0.657905         3.93394 
         3.1171         2.73539         0.65146         3.91593 
        3.12933         2.74314        0.645118         3.89528 
        3.14159          2.7381        0.638848         3.87396 
