# k  (h/Mpc)    Pcb(k)  (Mpc/h)^3    Pcb_linear(k) (Mpc/h)^3    Pcb_NL(k) (Mpc/h)^3   ShotnoiseSubtracted = false
      0.0156606         12585.2         12626.4         12545.1 
      0.0273761         10844.3         10919.1         10842.5 
      0.0384619         8225.37         8227.03         8166.47 
      0.0498308         6387.54         6471.43         6413.09 
      0.0625568         5392.63         5500.08         5445.88 
      0.0751274         4761.65            4673         4594.52 
      0.0867833         3715.33         3762.32         3740.86 
      0.0984825         3091.45         2977.42         3005.47 
       0.111151         2621.02          2486.1         2517.01 
       0.123864         2352.59         2240.49         2266.22 
       0.135742         2130.54         2014.77          2041.1 
        0.14762         1836.26         1722.73         1790.69 
       0.160083         1535.89         1435.99         1516.34 
       0.172465         1368.73         1253.35          1354.2 
       0.184281          1256.8         1155.44         1259.38 
       0.196406         1160.49         1067.05         1155.04 
       0.209011         1070.79         949.401         1042.81 
       0.221538         965.653         829.688         958.704 
       0.233611         902.937         742.355         887.405 
       0.245665         831.858         685.166         816.669 
       0.258103         792.228         637.831          768.38 
       0.270422         718.485         586.092         716.686 
       0.282519         664.422         531.912         669.248 
       0.294636         658.371         484.631         628.634 
       0.306978         588.531         448.365         597.821 
       0.319417         567.955         419.195         562.401 
        0.33169         534.781         391.274         529.616 
       0.343948         509.623         362.538         508.929 
       0.356249         477.942         335.589         486.892 
       0.368458          463.69         313.017         460.152 
        0.38068         445.228          294.14         439.749 
       0.392856          418.25         276.909         421.866 
       0.405069         401.455          260.06         407.869 
       0.417459         384.153         243.745         387.445 
       0.429752         372.128           229.1         373.117 
       0.441978         360.019         216.246         361.846 
       0.454294         338.588         204.574         345.484 
        0.46658         335.157         193.622         336.211 
       0.478753         322.051         183.291         324.499 
       0.490964         311.007         173.586         313.282 
       0.503334         293.478         164.628         304.428 
       0.515665         291.069          156.46          297.54 
       0.527909         281.728         148.919         287.861 
       0.540159         274.098         141.785         279.624 
        0.55248         268.699         135.016         271.447 
       0.564743         262.582         128.748         265.766 
        0.57686         252.951         122.987         257.599 
       0.589077         243.165         117.549         252.017 
       0.601441         239.939         112.378         245.982 
        0.61382         237.095         107.503          240.33 
       0.626067         231.544         102.953         234.735 
       0.638306           220.9         98.6689         230.099 
       0.650632         215.656         94.6098         222.953 
       0.662899         215.058         90.8061         219.433 
       0.675076         207.106         87.2413          214.67 
       0.687267          201.84         83.8635         209.931 
       0.699615         198.159         80.6223         205.866 
       0.711937         193.847         77.5582         201.887 
       0.724148         189.732         74.6794         198.886 
       0.736433         185.437         71.9324         194.446 
       0.748747         181.541         69.3196         190.548 
       0.761037         178.809         66.8429         186.879 
       0.773197         175.379         64.5128         184.673 
       0.785376         173.413         62.2911         180.692 
       0.797761         169.522         60.1397         178.362 
       0.810096         166.134         58.0984         175.136 
       0.822371         160.424         56.1618         172.209 
       0.834626         158.985          54.317         169.327 
       0.846916         156.911         52.5507         166.828 
       0.859215           155.4         50.8624         164.195 
       0.871383         151.913         49.2655         161.459 
        0.88363         149.533         47.7279         159.647 
       0.895928         146.461         46.2505         157.344 
       0.908253         142.513         44.8331         154.492 
       0.920535         141.943         43.4803         152.509 
       0.932774         137.514         42.1881          150.07 
        0.94508           136.5         40.9423         148.305 
       0.957324          135.41         39.7531         146.116 
        0.96953         134.315          38.615         143.795 
       0.981769          130.11         37.5188         142.508 
       0.994071         129.404         36.4602         140.518 
         1.0064          126.24         35.4407         138.415 
        1.01868         124.943         34.4634         136.883 
        1.03092         122.872         33.5275          135.25 
         1.0432         120.694         32.6231         133.491 
        1.05553         118.144         31.7487         132.101 
        1.06777          117.93         30.9129         130.648 
           1.08           115.5         30.1081         128.896 
        1.09227         114.084         29.3294          127.51 
         1.1046         112.104         28.5756          125.93 
         1.1169         110.794         27.8496         124.231 
        1.12915         109.085         27.1526         122.934 
        1.14142         107.403         26.4781         121.376 
        1.15365         105.516         25.8285         120.054 
        1.16585         104.213         25.2026         118.587 
        1.17807         102.572         24.5967         117.641 
        1.19037         102.335         24.0069          116.39 
        1.20276         100.078         23.4324         114.987 
        1.21504         99.2843         22.8814          113.67 
        1.22728          97.177         22.3504         112.464 
        1.23954         96.4787          21.835         111.283 
        1.25184         94.4624          21.335         110.162 
        1.26414         93.3655         20.8505         109.051 
        1.27632          92.517         20.3854         108.395 
         1.2886         90.9002         19.9313         106.793 
        1.30093         89.4249         19.4894          105.63 
        1.31316         88.7314         19.0642         104.738 
        1.32541         87.7118         18.6516           103.8 
        1.33772          86.471          18.249         102.719 
        1.35005         85.6215          17.858         101.656 
        1.36225         84.3925         17.4825         100.695 
        1.37447         82.5969         17.1171         99.6137 
        1.38676         82.5412         16.7605         98.5237 
        1.39907         80.8142         16.4135         97.7944 
        1.41133         79.5261         16.0779          97.024 
        1.42358         78.6772          15.752         95.8886 
        1.43591         78.1117         15.4328         94.9614 
        1.44818         77.0536         15.1243         94.0863 
        1.46037         75.9535         14.8261         93.2884 
        1.47263         74.7348         14.5343         92.5447 
        1.48494         74.1675         14.2493         91.6087 
        1.49724         72.8908         13.9721          90.645 
        1.50952         72.1836         13.7029         89.8173 
        1.52178          71.293         13.4412         89.1005 
        1.53409          70.724         13.1853         88.3242 
        1.54637         68.9832         12.9365         87.4714 
        1.55858         68.3851         12.6957         86.6504 
        1.57081         67.7138         12.4606         85.9726 
        1.58313         66.6534           12.23         85.2419 
        1.59544         65.8865         12.0054         84.4202 
        1.60767         65.1927         11.7879         83.7012 
        1.61994          64.278          11.575         83.1281 
        1.63225         63.3482          11.367         82.1729 
        1.64452         62.6669         11.1646         81.5857 
        1.65676         61.7216         10.9679         80.8259 
          1.669         61.3127         10.7757         80.1862 
        1.68133         60.6554         10.5869         79.4558 
        1.69363         59.6168         10.4032         78.8884 
        1.70585         59.2211          10.225         78.1696 
        1.71809         57.9627         10.0507         77.6086 
        1.73038         57.4415         9.87983         76.8677 
        1.74268         56.6875         9.71287         76.2596 
        1.75493         56.1083         9.55054         75.5914 
        1.76714         55.3935         9.39234         74.9448 
        1.77942         55.0786         9.23692         74.3515 
        1.79173         54.0995         9.08462         73.6697 
        1.80402         53.5708         8.93608          73.164 
         1.8163         52.9006         8.79094          72.468 
         1.8286         52.1088         8.64879         72.0244 
         1.8409         51.4111         8.50989         71.3291 
        1.85315         50.8215         8.37452         70.8959 
        1.86537         50.2773         8.24236          70.267 
        1.87765         49.7314         8.11257         69.5984 
        1.88995         49.1044         7.98526         69.0746 
        1.90221         48.7054         7.86113         68.5178 
        1.91445         47.9397         7.73985         68.0404 
        1.92674          47.455          7.6207         67.4625 
        1.93902         46.8934         7.50406         66.8921 
        1.95124          46.503         7.39049         66.4717 
         1.9635         45.6575         7.27897          65.859 
        1.97583         45.2382         7.16906         65.4297 
        1.98812         44.5357         7.06183         64.8546 
        2.00039         44.2637         6.95701         64.3399 
        2.01264         43.5154         6.85442           63.88 
        2.02492          43.135         6.75375         63.4006 
        2.03717         42.5129         6.65527         62.8514 
        2.04942         42.0068         6.55889          62.416 
        2.06171         41.5846         6.46408         61.8634 
        2.07397           40.98         6.37136          61.461 
        2.08629         40.5561         6.28007         60.9391 
        2.09857         40.2324         6.19079         60.5355 
        2.11081         39.5712         6.10362         60.0197 
        2.12309         39.2004         6.01791          59.571 
        2.13538         38.7288         5.93373         59.1546 
        2.14763         38.3807         5.85144         58.7039 
        2.15986         38.1569          5.7709         58.2375 
        2.17214         37.4056         5.69155          57.886 
        2.18443         37.2092         5.61362         57.3718 
        2.19671         36.5615         5.53724         56.9316 
        2.20898         36.1233         5.46238         56.5006 
        2.22126          35.855         5.38881         56.0762 
        2.23354         35.3898         5.31663         55.7225 
         2.2458         35.1026          5.2459         55.2891 
        2.25807         34.5061         5.17639         54.8516 
        2.27035         34.1655         5.10809         54.4649 
        2.28263          33.747         5.04105         54.0739 
         2.2949         33.3866         4.97524         53.6874 
        2.30718          33.084         4.91059         53.2917 
        2.31946         32.6735         4.84706         52.9139 
        2.33169         32.3863         4.78493          52.505 
        2.34393         31.9071         4.72379         52.1028 
        2.35622          31.567         4.66352          51.769 
        2.36847         31.2021         4.60448          51.356 
        2.38076         30.9922         4.54628         51.0332 
        2.39305         30.6103          4.4891         50.6694 
        2.40534         30.3025          4.4329         50.2342 
        2.41762         29.9112         4.37767         49.8943 
        2.42989         29.5963         4.32347         49.5658 
        2.44216         29.3111         4.27019         49.2052 
         2.4544         29.0114         4.21793         48.8732 
        2.46667         28.5458         4.16643         48.4965 
        2.47897         28.3622         4.11566         48.1781 
        2.49124         28.0844         4.06588         47.8207 
        2.50349          27.729           4.017         47.5212 
        2.51578         27.3674         3.96877         47.1905 
        2.52805         27.1601         3.92142         46.8337 
        2.54029          26.983         3.87496         46.5175 
        2.55257         26.6442         3.82911         46.1977 
        2.56487         26.4281         3.78392         45.8749 
        2.57716         26.1318         3.73952           45.56 
        2.58942         25.8271         3.69593         45.2589 
        2.60167         25.5434         3.65308         44.9123 
        2.61395         25.3216         3.61085         44.6139 
        2.62624         25.0675         3.56922         44.3225 
        2.63849         24.8837         3.52838         44.0128 
        2.65073         24.6075         3.48823         43.6907 
        2.66302         24.2789         3.44855         43.4208 
         2.6753         24.1029         3.40952         43.1232 
        2.68756         23.8773         3.37118         42.8412 
        2.69983         23.7072         3.33339         42.5367 
        2.71213         23.4639         3.29611         42.2594 
        2.72441         23.2946         3.25946         41.9523 
        2.73665         23.0266         3.22346         41.6748 
         2.7489         22.8394         3.18802         41.4014 
        2.76118         22.6722         3.15301         41.0957 
        2.77349         22.5212         3.11843         40.8489 
        2.78576         22.3368         3.08452         40.5761 
        2.79802         22.0259         3.05112         40.3018 
        2.81031           21.93         3.01815         40.0538 
        2.82259         21.7934         2.98567         39.7749 
        2.83483         21.5515         2.95379         39.5002 
         2.8471          21.486         2.92232          39.238 
         2.8594         21.2562         2.89121         38.9941 
         2.8717         21.0553         2.86056          38.728 
        2.88396         20.9058         2.83048         38.4626 
        2.89619         20.8476         2.80087         38.2185 
        2.90847         20.6755         2.77158         37.9633 
        2.92072         20.4992         2.74276         37.7365 
        2.93299         20.4433         2.71434         37.4872 
        2.94526         20.3159         2.68629         37.2415 
        2.95753         20.1723         2.65865         37.0057 
        2.96982         20.1317         2.63135         36.7676 
        2.98209         19.9486         2.60448          36.535 
        2.99436         19.9318         2.57797         36.3016 
        3.00666         19.7714         2.55179         36.0624 
        3.01894         19.7186         2.52602          35.819 
        3.03119         19.5641         2.50064         35.5852 
        3.04345         19.5394         2.47561         35.3685 
        3.05573          19.459         2.45087         35.1488 
          3.068         19.4237         2.42649         34.9104 
        3.08026         19.4085         2.40247          34.691 
        3.09254         19.2969         2.37874         34.4825 
        3.10483         19.2618         2.35531         34.2698 
         3.1171         19.2316         2.33224         34.0529 
        3.12933         19.1886         2.30954         33.8364 
        3.14159         19.1524         2.28709         33.6189 
