# k  (h/Mpc)    P(k)  (Mpc/h)^3    P_linear(k)  (Mpc/h)^3     P_NL(k)  ShotnoiseSubtracted = false
      0.0156606          4235.7         4178.14         4156.61 
      0.0273761         3668.55         3609.59         3597.39 
      0.0384619          2785.7         2718.42         2712.63 
      0.0498308         2178.48         2137.77         2133.58 
      0.0625568         1837.59          1816.6         1811.41 
      0.0751274         1597.75         1543.27         1534.59 
      0.0867833         1262.33         1242.44         1241.01 
      0.0984825         1028.76         983.199         988.232 
       0.111151         863.468         820.931         825.928 
       0.123864         775.715         739.809         743.849 
       0.135742         697.936         665.263         669.367 
        0.14762         594.006         568.827         578.472 
       0.160083         493.117         474.145         485.086 
       0.172465         436.031         413.835         427.104 
       0.184281         404.104         381.505         395.602 
       0.196406          368.56         352.317          363.34 
       0.209011         333.722         313.471         325.817 
       0.221538         297.753         273.943           291.2 
       0.233611         269.869         245.107         264.336 
       0.245665          253.51         226.224         243.365 
       0.258103         229.544         210.595         227.671 
       0.270422         214.965         193.512         210.217 
       0.282519           195.3         175.622         193.322 
       0.294636         188.512         160.011         178.686 
       0.306978         166.369         148.037          167.39 
       0.319417         159.078         138.406         157.071 
        0.33169         148.116         129.187         147.224 
       0.343948         141.129         119.699         138.264 
       0.356249          130.13         110.801         130.753 
       0.368458         124.731         103.348         122.064 
        0.38068         117.512         97.1165         115.639 
       0.392856         109.616         91.4268         110.072 
       0.405069         104.026         85.8634         104.237 
       0.417459         98.2275         80.4772         98.6662 
       0.429752         94.2715         75.6419         93.9369 
       0.441978         90.0544         71.3978         90.2356 
       0.454294         83.7593         67.5439         85.4611 
        0.46658         83.5911         63.9279         81.8851 
       0.478753         77.8219         60.5166         78.5146 
       0.490964         75.3733         57.3122         75.3622 
       0.503334         72.2125         54.3549         72.1449 
       0.515665         69.1716          51.658         69.9456 
       0.527909          66.393         49.1682         66.3445 
       0.540159          63.941         46.8126         64.0767 
        0.55248         60.2592         44.5776         61.5519 
       0.564743         59.2116         42.5082         59.6099 
        0.57686         57.3573         40.6062         57.4966 
       0.589077         54.2889         38.8107         55.7711 
       0.601441         52.6984         37.1035         53.9179 
        0.61382         51.0775         35.4938         51.9292 
       0.626067         48.9732         33.9917         50.4796 
       0.638306         47.4994         32.5772         48.7815 
       0.650632         46.0079          31.237         47.1611 
       0.662899         44.7076         29.9811         45.7049 
       0.675076         42.8002         28.8041         44.3847 
       0.687267         42.2554         27.6889         43.0788 
       0.699615         40.7373         26.6187         42.0536 
       0.711937         38.9628         25.6071         40.6273 
       0.724148         38.7816         24.6566         39.8152 
       0.736433         36.6101         23.7496         38.6178 
       0.748747         36.1292          22.887         37.5986 
       0.761037         35.1307         22.0692          36.706 
       0.773197          34.229         21.2999          35.891 
       0.785376         32.9521         20.5664         34.9636 
       0.797761         32.4706         19.8561         34.1859 
       0.810096           31.71         19.1821         33.3411 
       0.822371         30.9133         18.5427         32.4736 
       0.834626          30.012         17.9336         31.8876 
       0.846916         29.2346         17.3505         31.1119 
       0.859215          28.272          16.793         30.4199 
       0.871383         27.8628         16.2658         29.8425 
        0.88363         27.1581         15.7581         29.2476 
       0.895928         26.5639         15.2703         28.5311 
       0.908253         26.0057         14.8024         28.0531 
       0.920535         25.4287         14.3557         27.4432 
       0.932774           25.01         13.9291         26.8691 
        0.94508         24.3913         13.5177         26.3314 
       0.957324         23.9121         13.1251         25.8612 
        0.96953         23.2794         12.7493         25.3334 
       0.981769         22.9608         12.3874          24.928 
       0.994071         22.3707         12.0379         24.4334 
         1.0064         21.8443         11.7013         24.0141 
        1.01868         21.4009         11.3786         23.6136 
        1.03092         21.2228         11.0696         23.1666 
         1.0432         20.5683          10.771         22.7194 
        1.05553          20.216         10.4823         22.4677 
        1.06777         19.6561         10.2064         21.9753 
           1.08         19.2795         9.94064         21.6355 
        1.09227         18.9769         9.68357         21.3361 
         1.1046         18.6991         9.43466         20.9334 
         1.1169         18.3085         9.19498         20.6026 
        1.12915         18.1592         8.96485          20.317 
        1.14142         17.5414         8.74214         19.9749 
        1.15365         17.4134         8.52769          19.677 
        1.16585         17.1971         8.32103         19.4177 
        1.17807         16.7286         8.12099          19.052 
        1.19037         16.5566         7.92624          18.857 
        1.20276         16.2734         7.73657         18.5478 
        1.21504         15.9929         7.55464         18.3199 
        1.22728         15.6328         7.37932         18.0342 
        1.23954         15.4277         7.20917         17.7811 
        1.25184         15.1453         7.04409         17.5506 
        1.26414          14.943         6.88411         17.2821 
        1.27632         14.6746         6.73055         17.0496 
         1.2886         14.5177         6.58061         16.8433 
        1.30093         14.1811         6.43473         16.6724 
        1.31316         14.0084         6.29433         16.4069 
        1.32541         13.8144         6.15812         16.2465 
        1.33772         13.5579         6.02519         16.0156 
        1.35005         13.3958         5.89611         15.8352 
        1.36225         13.1868         5.77213         15.6177 
        1.37447         12.9425         5.65149         15.4289 
        1.38676         12.7668         5.53375         15.2598 
        1.39907         12.5581         5.41918         15.0696 
        1.41133         12.3833         5.30836         14.8958 
        1.42358         12.1956         5.20075         14.7045 
        1.43591         12.0362         5.09539         14.5731 
        1.44818         11.8289         4.99353         14.4067 
        1.46037         11.7476         4.89507         14.2139 
        1.47263         11.5271         4.79873         14.0923 
        1.48494         11.4379         4.70461          13.894 
        1.49724         11.2262          4.6131         13.7773 
        1.50952         11.1297         4.52422          13.633 
        1.52178         10.9455         4.43781         13.4673 
        1.53409         10.7412         4.35331         13.3258 
        1.54637         10.7001          4.2712         13.1586 
        1.55858         10.5575         4.19167         13.0434 
        1.57081          10.331         4.11405         12.9242 
        1.58313         10.2677         4.03793         12.7901 
        1.59544         10.0772         3.96377         12.6703 
        1.60767         9.97655         3.89196         12.5285 
        1.61994         9.81165         3.82167         12.4197 
        1.63225         9.73301         3.75298         12.3045 
        1.64452         9.60225         3.68618         12.1899 
        1.65676          9.4691         3.62121         12.0618 
          1.669         9.39759         3.55775         11.9396 
        1.68133         9.20602         3.49542         11.8247 
        1.69363         9.10313         3.43477         11.7125 
        1.70585          8.9942         3.37594         11.6205 
        1.71809         8.89589         3.31838         11.5111 
        1.73038         8.81389         3.26198         11.4163 
        1.74268         8.70364         3.20685         11.3071 
        1.75493         8.56049         3.15326         11.1883 
        1.76714         8.55612         3.10102         11.1078 
        1.77942         8.43256         3.04971         10.9916 
        1.79173         8.28408         2.99943         10.9058 
        1.80402         8.23922         2.95038         10.8139 
         1.8163         8.13264         2.90246         10.7276 
         1.8286         8.00492         2.85553         10.6365 
         1.8409         7.93112         2.80967         10.5519 
        1.85315         7.83867         2.76498         10.4514 
        1.86537          7.7776         2.72134         10.3704 
        1.87765         7.69695         2.67849         10.2844 
        1.88995         7.55365         2.63646          10.206 
        1.90221         7.52626         2.59547         10.1061 
        1.91445         7.42354         2.55543         10.0476 
        1.92674         7.34457         2.51609          9.9514 
        1.93902         7.29076         2.47758          9.8857 
        1.95124         7.19248         2.44008         9.79298 
         1.9635           7.126         2.40327         9.72729 
        1.97583         7.06819         2.36698         9.64031 
        1.98812          6.9956         2.33157         9.55446 
        2.00039         6.91516         2.29696          9.5041 
        2.01264         6.85328         2.26309         9.43153 
        2.02492          6.7922         2.22986         9.35099 
        2.03717         6.70178         2.19734         9.28308 
        2.04942         6.61563         2.16552          9.2201 
        2.06171          6.5936         2.13422         9.15228 
        2.07397         6.51166          2.1036         9.08546 
        2.08629         6.44595         2.07346         9.02283 
        2.09857         6.38132         2.04399         8.95252 
        2.11081         6.33655          2.0152         8.90053 
        2.12309         6.25601         1.98691         8.81717 
        2.13538         6.20432         1.95911         8.76673 
        2.14763         6.13323         1.93194         8.70445 
        2.15986         6.09849         1.90535         8.64428 
        2.17214         6.04129         1.87915         8.57305 
        2.18443         5.97575         1.85342         8.52186 
        2.19671         5.93041         1.82821         8.46518 
        2.20898          5.8549         1.80349         8.40796 
        2.22126         5.80975          1.7792         8.34614 
        2.23354         5.76852         1.75537         8.28391 
         2.2458         5.70377         1.73202          8.2316 
        2.25807         5.66453         1.70907         8.17726 
        2.27035         5.61349         1.68651         8.12633 
        2.28263         5.57137         1.66438         8.06965 
         2.2949         5.51532         1.64265         8.02225 
        2.30718         5.46858         1.62131         7.98028 
        2.31946         5.43469         1.60033         7.92539 
        2.33169         5.37743         1.57982         7.87026 
        2.34393          5.3502         1.55963         7.81855 
        2.35622         5.30887         1.53973         7.76853 
        2.36847         5.26205         1.52024         7.71919 
        2.38076         5.22039         1.50102         7.67076 
        2.39305         5.15964         1.48215         7.61525 
        2.40534         5.13241         1.46359         7.56757 
        2.41762         5.08049         1.44536         7.53076 
        2.42989         5.06092         1.42746         7.48684 
        2.44216         5.02752         1.40987         7.43743 
         2.4544         4.97024         1.39262         7.38917 
        2.46667         4.95937         1.37561         7.34543 
        2.47897         4.91199         1.35885         7.29657 
        2.49124         4.86283         1.34241         7.25296 
        2.50349         4.84343         1.32627          7.2187 
        2.51578         4.78698         1.31035         7.17493 
        2.52805         4.76689         1.29472         7.13135 
        2.54029         4.72962         1.27938         7.08981 
        2.55257         4.72005         1.26424           7.051 
        2.56487         4.67068         1.24932         7.00166 
        2.57716         4.64389         1.23466          6.9641 
        2.58942         4.61103         1.22027         6.92463 
        2.60167         4.58325         1.20612         6.88254 
        2.61395         4.53385         1.19218         6.84607 
        2.62624         4.53833         1.17843         6.80864 
        2.63849         4.50839         1.16495         6.76711 
        2.65073         4.47016         1.15169         6.72574 
        2.66302         4.45362         1.13859         6.68762 
         2.6753         4.41809         1.12571         6.65134 
        2.68756         4.39277         1.11305         6.61876 
        2.69983         4.37289         1.10057          6.5762 
        2.71213         4.34555         1.08826         6.53979 
        2.72441          4.3211         1.07616         6.50563 
        2.73665          4.3053         1.06428           6.467 
         2.7489         4.27778         1.05257         6.43508 
        2.76118         4.24932         1.04101         6.40732 
        2.77349         4.24106          1.0296          6.3651 
        2.78576         4.22101          1.0184         6.33107 
        2.79802         4.20424         1.00738         6.29931 
        2.81031         4.17768        0.996488         6.26688 
        2.82259         4.16263        0.985766         6.23336 
        2.83483         4.15637        0.975241         6.19952 
         2.8471         4.13609         0.96485         6.16792 
         2.8594         4.12438        0.954578         6.13703 
         2.8717         4.09613         0.94446         6.10053 
        2.88396         4.09256        0.934526         6.06911 
        2.89619         4.05999        0.924753         6.04155 
        2.90847         4.05826        0.915083         6.00526 
        2.92072         4.05934        0.905567         5.97504 
        2.93299         4.05371        0.896182         5.94647 
        2.94526         4.04341        0.886921          5.9143 
        2.95753         4.02676        0.877795         5.88355 
        2.96982         4.00382        0.868781         5.85504 
        2.98209         4.00579        0.859912         5.82368 
        2.99436         3.99892        0.851159         5.79431 
        3.00666         4.00804        0.842513          5.7672 
        3.01894         3.99572        0.834005         5.73302 
        3.03119         3.99721        0.825626         5.70621 
        3.04345         3.98616        0.817361         5.67984 
        3.05573         3.98817        0.809193         5.64898 
          3.068         3.97533        0.801145          5.6241 
        3.08026          3.9929        0.793215         5.59735 
        3.09254         3.99336        0.785378         5.56821 
        3.10483          3.9962        0.777645         5.54262 
         3.1171         4.00208        0.770027         5.51711 
        3.12933         4.01227        0.762531         5.48713 
        3.14159         4.00449         0.75512         5.45886 
