# k  (h/Mpc)    Pcb(k)  (Mpc/h)^3    Pcb_linear(k) (Mpc/h)^3    Pcb_NL(k) (Mpc/h)^3   ShotnoiseSubtracted = false
      0.0156606          2836.6          2838.7         2824.69 
      0.0273761         2464.18         2456.33         2449.44 
      0.0384619         1872.52         1851.23         1848.86 
      0.0498308         1467.54          1456.4         1455.17 
      0.0625568          1238.2         1237.92          1235.7 
      0.0751274         1071.94         1051.82         1047.72 
      0.0867833         850.067         846.871         846.338 
      0.0984825         689.252         670.211         672.867 
       0.111151         577.442         559.627         562.208 
       0.123864          518.71         504.346         506.297 
       0.135742         466.115         453.538          455.47 
        0.14762         396.114         387.801         392.394 
       0.160083         328.915         323.257         328.498 
       0.172465         289.921         282.144         288.434 
       0.184281         268.774         260.104         266.783 
       0.196406         245.137         240.206         245.342 
       0.209011             221         213.723         219.555 
       0.221538         196.351         186.774         194.937 
       0.233611          177.04         167.115         176.183 
       0.245665         166.272         154.241         162.305 
       0.258103         149.908         143.585         151.615 
       0.270422         140.713         131.939         139.734 
       0.282519         127.683         119.742         128.068 
       0.294636         121.795         109.098         117.879 
       0.306978         107.746         100.934         110.008 
       0.319417         102.815         94.3678         103.143 
        0.33169         95.5818         88.0822         96.5621 
       0.343948         90.7444         81.6134         90.2364 
       0.356249         83.2947         75.5467         84.9889 
       0.368458         79.4918         70.4654         79.1727 
        0.38068          74.543         66.2159         74.8506 
       0.392856         69.6681         62.3369         71.0462 
       0.405069          65.925         58.5439         67.0007 
       0.417459         61.7441         54.8712         63.3893 
       0.429752         59.1343         51.5744          60.098 
       0.441978         56.3114         48.6808         57.5232 
       0.454294         52.3946         46.0532         54.4394 
        0.46658         51.9492         43.5878         51.9346 
       0.478753          48.309         41.2619         49.6308 
       0.490964         46.6687         39.0772         47.5811 
       0.503334         44.7141         37.0606         45.3272 
       0.515665         42.4876         35.2218           43.79 
       0.527909         40.6578         33.5243         41.4899 
       0.540159         38.9747         31.9183         39.8924 
        0.55248         36.4491         30.3944         38.2064 
       0.564743         35.9479         28.9834         36.9363 
        0.57686         34.7424         27.6866         35.5201 
       0.589077          32.724         26.4624         34.3616 
       0.601441          31.581         25.2983         33.1041 
        0.61382         30.4844         24.2008         31.7899 
       0.626067          29.254         23.1766         30.7992 
       0.638306         28.2883         22.2121         29.6658 
       0.650632         27.4995         21.2984         28.7145 
       0.662899         26.3403         20.4421         27.7125 
       0.675076         25.1401         19.6396         26.8221 
       0.687267         24.7734         18.8792         25.9422 
       0.699615         23.9196         18.1495         25.2122 
       0.711937         22.7175         17.4598         24.3858 
       0.724148         22.5951         16.8117         23.7573 
       0.736433         21.2834         16.1933         22.9947 
       0.748747         20.9027         15.6051         22.3594 
       0.761037         20.3758         15.0475         21.7681 
       0.773197         19.6712          14.523         21.1997 
       0.785376         18.9236         14.0229         20.6228 
       0.797761         18.5124         13.5385         20.0657 
       0.810096          18.083          13.079         19.5789 
       0.822371         17.5825          12.643         19.0029 
       0.834626         17.0275         12.2277         18.5897 
       0.846916         16.5084         11.8301         18.1039 
       0.859215         15.9111         11.4501         17.6759 
       0.871383         15.6211         11.0906         17.2949 
        0.88363         15.2111         10.7444         16.8758 
       0.895928         14.9126         10.4118         16.4427 
       0.908253         14.5283         10.0928         16.1049 
       0.920535         14.0955          9.7882         15.7204 
       0.932774         13.8728         9.49732         15.3212 
        0.94508         13.4177         9.21686         15.0316 
       0.957324         13.1693         8.94915         14.7355 
        0.96953         12.7112         8.69294         14.4007 
       0.981769         12.6045         8.44617         14.1025 
       0.994071         12.2556         8.20785         13.8031 
         1.0064         11.8762         7.97835         13.5367 
        1.01868         11.6492         7.75834         13.2726 
        1.03092         11.4668         7.54765         12.9921 
         1.0432         11.0509         7.34406          12.731 
        1.05553         10.8771         7.14722          12.532 
        1.06777         10.5592         6.95905         12.2607 
           1.08         10.3712         6.77788         12.0427 
        1.09227         10.1631          6.6026         11.8234 
         1.1046         9.97784         6.43288         11.5838 
         1.1169         9.67147         6.26946         11.3758 
        1.12915         9.64607         6.11255         11.2195 
        1.14142         9.27319          5.9607         10.9916 
        1.15365         9.17387         5.81448         10.7988 
        1.16585         9.05586         5.67357         10.6426 
        1.17807         8.78651         5.53717         10.4286 
        1.19037         8.63978         5.40438         10.2687 
        1.20276         8.43391         5.27506         10.0878 
        1.21504          8.3161         5.15101         9.94178 
        1.22728         8.10133         5.03148         9.76321 
        1.23954          7.9802         4.91547         9.63089 
        1.25184         7.81403          4.8029         9.47196 
        1.26414         7.71435         4.69383         9.30672 
        1.27632         7.50099         4.58913         9.17449 
         1.2886         7.41569         4.48689         9.03819 
        1.30093          7.2661         4.38742         8.93115 
        1.31316         7.10948          4.2917         8.77614 
        1.32541         7.00437         4.19882         8.67077 
        1.33772         6.86897         4.10818         8.52214 
        1.35005         6.78246         4.02017         8.41251 
        1.36225         6.64596         3.93564         8.27663 
        1.37447         6.53125         3.85338         8.17765 
        1.38676         6.41105         3.77311          8.0677 
        1.39907         6.29391         3.69499         7.95608 
        1.41133         6.20408         3.61943          7.8465 
        1.42358         6.07902         3.54605         7.73566 
        1.43591         6.01477         3.47422         7.64989 
        1.44818         5.86955         3.40477         7.54479 
        1.46037         5.77572         3.33764         7.44219 
        1.47263         5.69257         3.27194         7.35617 
        1.48494         5.63184         3.20777         7.25273 
        1.49724         5.52236         3.14538         7.16655 
        1.50952         5.49219         3.08477         7.08123 
        1.52178         5.36496         3.02585          6.9924 
        1.53409         5.26291         2.96824         6.89739 
        1.54637         5.20393         2.91225         6.81476 
        1.55858         5.13812         2.85803          6.7285 
        1.57081         5.02602         2.80511         6.66745 
        1.58313         4.97238          2.7532         6.58125 
        1.59544         4.87792         2.70264         6.51288 
        1.60767         4.82685         2.65368         6.42896 
        1.61994         4.74917         2.60575         6.36687 
        1.63225         4.66861         2.55892           6.291 
        1.64452         4.59069         2.51337         6.21763 
        1.65676         4.52758         2.46907         6.15174 
          1.669         4.48949          2.4258         6.08473 
        1.68133         4.37695          2.3833         6.01772 
        1.69363         4.35386         2.34195         5.96067 
        1.70585         4.28795         2.30184         5.88843 
        1.71809         4.24077         2.26259         5.83303 
        1.73038         4.18221         2.22413         5.76863 
        1.74268         4.11528         2.18655           5.711 
        1.75493         4.06106            2.15         5.64713 
        1.76714         4.03036         2.11439         5.59065 
        1.77942         3.96329          2.0794         5.53342 
        1.79173         3.90932         2.04512         5.47341 
        1.80402         3.86244         2.01168         5.42223 
         1.8163         3.82919           1.979         5.37529 
         1.8286         3.76499           1.947         5.32505 
         1.8409         3.70501         1.91573         5.27509 
        1.85315         3.66711         1.88526         5.21183 
        1.86537         3.63658         1.85551         5.17126 
        1.87765         3.57249         1.82629         5.11727 
        1.88995          3.5243         1.79763         5.07455 
        1.90221          3.4844         1.76969         5.02358 
        1.91445         3.44683         1.74238         4.98896 
        1.92674         3.42089         1.71556         4.93092 
        1.93902         3.36193          1.6893         4.88354 
        1.95124         3.32123         1.66374         4.84244 
         1.9635         3.30059         1.63863         4.80234 
        1.97583         3.24496         1.61389         4.76085 
        1.98812         3.20284         1.58975         4.71521 
        2.00039          3.1708         1.56615         4.67491 
        2.01264         3.13186         1.54306         4.64151 
        2.02492         3.10071         1.52039         4.59931 
        2.03717          3.0611         1.49822         4.55694 
        2.04942         3.02168         1.47653         4.52038 
        2.06171         2.98779         1.45518         4.47951 
        2.07397         2.96145         1.43431         4.44236 
        2.08629         2.93352         1.41376         4.41076 
        2.09857         2.89766         1.39366         4.37129 
        2.11081         2.85983         1.37404         4.33623 
        2.12309         2.83751         1.35474         4.30059 
        2.13538         2.80199         1.33579         4.26963 
        2.14763          2.7836         1.31727         4.23254 
        2.15986         2.75606         1.29914         4.20241 
        2.17214         2.71157         1.28127         4.16175 
        2.18443         2.69851         1.26373           4.131 
        2.19671         2.65983         1.24653          4.0998 
        2.20898         2.63672         1.22968         4.07123 
        2.22126         2.61595         1.21312         4.03961 
        2.23354         2.58238         1.19687         4.00748 
         2.2458         2.56938         1.18095         3.97283 
        2.25807         2.53495          1.1653         3.94741 
        2.27035         2.50818         1.14992         3.92034 
        2.28263         2.48271         1.13483         3.89004 
         2.2949         2.46608         1.12002         3.86331 
        2.30718         2.44085         1.10546         3.83789 
        2.31946          2.4151         1.09116         3.80932 
        2.33169         2.39441         1.07718          3.7801 
        2.34393         2.38248         1.06341         3.75315 
        2.35622         2.35661         1.04985         3.72585 
        2.36847         2.32958         1.03655         3.69832 
        2.38076         2.31298         1.02345         3.67157 
        2.39305         2.28804         1.01058         3.64381 
        2.40534         2.26894        0.997928         3.62186 
        2.41762         2.24228        0.985495          3.5998 
        2.42989         2.23015        0.973293         3.57226 
        2.44216         2.21623        0.961299         3.54992 
         2.4544         2.19297        0.949535         3.52701 
        2.46667         2.17592         0.93794         3.50297 
        2.47897         2.15881        0.926511         3.47839 
        2.49124         2.13712        0.915305         3.45602 
        2.50349         2.12502          0.9043         3.43264 
        2.51578         2.10257        0.893443         3.40715 
        2.52805          2.0846        0.882784         3.38657 
        2.54029         2.07433        0.872324         3.36482 
        2.55257         2.05546        0.862003         3.34327 
        2.56487         2.04106         0.85183          3.3209 
        2.57716         2.03362        0.841835         3.29981 
        2.58942         2.01132        0.832022         3.27934 
        2.60167         1.99874        0.822376         3.25711 
        2.61395         1.97503        0.812868         3.23955 
        2.62624         1.97136        0.803497         3.21891 
        2.63849         1.95613        0.794304         3.19685 
        2.65073         1.93988        0.785264         3.17729 
        2.66302         1.92591        0.776333         3.15907 
         2.6753         1.92498        0.767547         3.13967 
        2.68756         1.90049        0.758914         3.12093 
        2.69983         1.88916        0.750408         3.10053 
        2.71213         1.88355        0.742014         3.08219 
        2.72441         1.87038        0.733764         3.06395 
        2.73665         1.85513         0.72566         3.04734 
         2.7489          1.8438        0.717682         3.03124 
        2.76118         1.83447          0.7098         3.01303 
        2.77349         1.83125        0.702017         2.99486 
        2.78576         1.82047        0.694382         2.97681 
        2.79802         1.81196        0.686864         2.95949 
        2.81031          1.7959         0.67944         2.94153 
        2.82259         1.78884        0.672129         2.92427 
        2.83483         1.78431        0.664953         2.90892 
         2.8471         1.77457        0.657868         2.89226 
         2.8594         1.76541        0.650865         2.87661 
         2.8717         1.75783        0.643965         2.86053 
        2.88396         1.75464        0.637192         2.84357 
        2.89619         1.73986        0.630528          2.8274 
        2.90847         1.73689        0.623935         2.81066 
        2.92072         1.73147        0.617447         2.79649 
        2.93299          1.7301        0.611048         2.78127 
        2.94526         1.72291        0.604734         2.76659 
        2.95753         1.71335         0.59851         2.75137 
        2.96982         1.71169        0.592365         2.73598 
        2.98209         1.71147        0.586317         2.72235 
        2.99436          1.7037        0.580349         2.70778 
        3.00666         1.70726        0.574454          2.6936 
        3.01894         1.69962        0.568653         2.67765 
        3.03119         1.70029         0.56294         2.66373 
        3.04345         1.69701        0.557305         2.65115 
        3.05573         1.69523        0.551735         2.63771 
          3.068         1.69596        0.546248         2.62383 
        3.08026         1.69252        0.540841         2.60891 
        3.09254         1.69666        0.535497           2.595 
        3.10483         1.69679        0.530225         2.58264 
         3.1171         1.69669         0.52503         2.56993 
        3.12933         1.69795         0.51992         2.55597 
        3.14159         1.69808        0.514866          2.5422 
