# k  (h/Mpc)    Pcb(k)  (Mpc/h)^3    Pcb_linear(k) (Mpc/h)^3    Pcb_NL(k) (Mpc/h)^3   ShotnoiseSubtracted = false
      0.0156606         14580.8           14636         14536.8 
      0.0273761           12548           12656         12555.9 
      0.0384619         9511.97         9535.45          9453.1 
      0.0498308         7376.69          7500.5         7419.92 
      0.0625568         6228.92         6374.62         6300.81 
      0.0751274         5513.19         5415.98         5310.19 
      0.0867833         4293.34         4360.49         4330.26 
      0.0984825         3586.24         3450.79         3485.74 
       0.111151         3047.15         2881.35         2920.95 
       0.123864         2734.12         2596.69          2629.4 
       0.135742         2479.77         2335.07         2368.41 
        0.14762         2143.04          1996.6         2083.93 
       0.160083         1798.11         1664.28         1768.71 
       0.172465         1603.36          1452.6         1584.31 
       0.184281         1467.88         1339.13         1473.84 
       0.196406         1361.59         1236.68         1352.72 
       0.209011         1260.83         1100.33         1222.49 
       0.221538         1137.56         961.586         1129.07 
       0.233611         1070.68          860.37         1048.77 
       0.245665         981.501         794.089         965.741 
       0.258103         945.168         739.228         909.492 
       0.270422         852.045         679.265         849.968 
       0.282519         792.202         616.471         796.427 
       0.294636         784.809         561.674         749.952 
       0.306978         704.991         519.643         714.802 
       0.319417         682.548         485.836         672.803 
        0.33169         643.235         453.476          634.32 
       0.343948         613.282         420.171         611.442 
       0.356249          576.51         388.938         586.075 
       0.368458         559.202         362.778         555.271 
        0.38068         539.798           340.9         531.563 
       0.392856         508.568         320.929         510.612 
       0.405069         487.289         301.402         494.542 
       0.417459         467.129         282.494         471.288 
       0.429752         454.689          265.52         454.191 
       0.441978          439.82         250.623          441.05 
       0.454294         415.592         237.096         421.717 
        0.46658         408.762         224.403         411.241 
       0.478753         395.411         212.428         397.332 
       0.490964         381.304         201.181         384.099 
       0.503334          360.31         190.799         373.803 
       0.515665         358.729         181.332         365.611 
       0.527909          346.31         172.593         354.907 
       0.540159         337.496         164.325         344.865 
        0.55248         330.955         156.479         335.255 
       0.564743          325.24         149.215         328.755 
        0.57686         312.802         142.538          319.04 
       0.589077         301.624         136.236          312.05 
       0.601441         298.357         130.243          304.85 
        0.61382         293.677         124.592         298.634 
       0.626067         288.224          119.32         291.982 
       0.638306         275.294         114.354         286.391 
       0.650632         270.071          109.65         277.926 
       0.662899         268.425         105.242         274.174 
       0.675076         258.205          101.11         268.675 
       0.687267         251.807         97.1954         262.563 
       0.699615         247.774         93.4388         257.851 
       0.711937         243.408         89.8877         253.156 
       0.724148         236.845         86.5512          249.34 
       0.736433         231.788         83.3676         244.096 
       0.748747         227.608         80.3394         239.376 
       0.761037         223.849         77.4689         235.291 
       0.773197         220.435         74.7684         232.286 
       0.785376          217.67         72.1935         227.795 
       0.797761         212.519         69.7001         224.619 
       0.810096         209.401         67.3343         221.101 
       0.822371         201.578         65.0899         217.426 
       0.834626         200.829         62.9518         214.014 
       0.846916         197.177         60.9048         210.906 
       0.859215         196.553         58.9481         207.782 
       0.871383         191.469         57.0972         204.453 
        0.88363         189.528         55.3153         202.299 
       0.895928         185.245          53.603          199.22 
       0.908253         180.189         51.9603         195.814 
       0.920535         179.648         50.3923         193.198 
       0.932774         173.679         48.8948          190.42 
        0.94508         172.271         47.4509         188.383 
       0.957324         171.772         46.0727         185.524 
        0.96953         169.635         44.7537         182.735 
       0.981769         164.395         43.4832         181.094 
       0.994071         163.666         42.2562         178.676 
         1.0064         159.774         41.0747         175.951 
        1.01868         157.762         39.9421         174.014 
        1.03092         155.246         38.8574         172.082 
         1.0432         152.265         37.8092          169.91 
        1.05553         149.684         36.7958          167.95 
        1.06777         149.525         35.8271         166.229 
           1.08         145.995         34.8944         164.019 
        1.09227         144.414          33.992         162.378 
         1.1046         142.059         33.1182          160.48 
         1.1169         140.206         32.2769         158.305 
        1.12915         137.988         31.4691         156.739 
        1.14142         135.862         30.6873         154.703 
        1.15365         134.049         29.9345         153.074 
        1.16585         132.182         29.2091         151.099 
        1.17807          130.28         28.5069         150.019 
        1.19037          129.68         27.8232          148.43 
        1.20276         127.038         27.1575         146.621 
        1.21504         125.535         26.5188          145.03 
        1.22728         123.057         25.9034         143.307 
        1.23954          122.35         25.3062         142.076 
        1.25184         119.828         24.7267         140.501 
        1.26414          118.28         24.1651         139.042 
        1.27632         117.649         23.6261         138.318 
         1.2886         115.471         23.0997         136.293 
        1.30093         112.768         22.5876         134.841 
        1.31316         112.432         22.0948         133.468 
        1.32541         110.793         21.6167         132.438 
        1.33772         109.602         21.1501         131.017 
        1.35005         108.251         20.6969         129.578 
        1.36225          106.92         20.2617         128.418 
        1.37447          104.83         19.8383         127.013 
        1.38676         104.318          19.425         125.674 
        1.39907          101.97         19.0228         124.604 
        1.41133         100.637         18.6338         123.593 
        1.42358          99.353          18.256         122.343 
        1.43591         98.7309         17.8862         120.997 
        1.44818         97.6457         17.5287         120.001 
        1.46037         95.8398         17.1831         118.819 
        1.47263         94.5047         16.8449         117.916 
        1.48494         93.7413         16.5145         116.656 
        1.49724         92.2215         16.1933         115.441 
        1.50952         90.8082         15.8812          114.44 
        1.52178         90.0129         15.5779         113.414 
        1.53409         89.0549         15.2813         112.424 
        1.54637         87.2086         14.9931         111.398 
        1.55858           86.27         14.7139         110.336 
        1.57081         85.0722         14.4415         109.388 
        1.58313         84.0474         14.1742         108.397 
        1.59544         83.1611         13.9139         107.421 
        1.60767         81.9364         13.6618         106.416 
        1.61994         80.8785         13.4151         105.736 
        1.63225         79.6862          13.174         104.455 
        1.64452         78.6469         12.9395          103.64 
        1.65676         77.5471         12.7114         102.752 
          1.669         77.0149         12.4887         101.924 
        1.68133          76.046         12.2699         100.963 
        1.69363         75.0606          12.057         100.179 
        1.70585         74.1657         11.8505         99.2382 
        1.71809         72.8702         11.6484         98.4879 
        1.73038         72.1155         11.4504         97.5337 
        1.74268         71.0059         11.2569         96.7438 
        1.75493         70.4446         11.0688         95.8701 
        1.76714         69.2815         10.8854         95.0776 
        1.77942           68.87         10.7053         94.2434 
        1.79173         67.6841         10.5288         93.4446 
        1.80402         66.9578         10.3567         92.7403 
         1.8163           66.14         10.1884         91.8057 
         1.8286         65.1842         10.0237         91.1732 
         1.8409         64.2642         9.86271         90.3619 
        1.85315         63.3692         9.70582         89.7163 
        1.86537         62.7598         9.55265         88.9113 
        1.87765         62.0126         9.40223         88.0597 
        1.88995         61.1793         9.25468         87.4349 
        1.90221         60.5514         9.11082         86.6925 
        1.91445         59.4646         8.97025         86.0124 
        1.92674         58.9607         8.83217         85.3152 
        1.93902         58.2374         8.69699         84.5543 
        1.95124         57.8009         8.56536         83.9892 
         1.9635         56.7035         8.43612         83.1601 
        1.97583         56.1775         8.30873         82.6187 
        1.98812         55.4845         8.18446         81.8783 
        2.00039         54.7134         8.06297         81.2275 
        2.01264         54.0685         7.94407         80.5668 
        2.02492          53.361          7.8274         79.9543 
        2.03717         52.6585         7.71326         79.2432 
        2.04942         52.0127         7.60156         78.7025 
        2.06171         51.3317         7.49168         78.0113 
        2.07397         50.6918         7.38422         77.4605 
        2.08629         50.1691         7.27842         76.7801 
        2.09857         49.6661         7.17495         76.2215 
        2.11081         48.5901         7.07391         75.5512 
        2.12309         48.3078         6.97458         75.0141 
        2.13538         47.6932         6.87701         74.4148 
        2.14763         47.2038         6.78164         73.8443 
        2.15986         46.5593          6.6883         73.2545 
        2.17214         45.9041         6.59634         72.7364 
        2.18443         45.6314         6.50602         72.1551 
        2.19671         44.7796          6.4175          71.553 
        2.20898         44.4596         6.33073          71.007 
        2.22126         43.8747         6.24548         70.4374 
        2.23354         43.2946         6.16182          69.951 
         2.2458         42.8925         6.07985         69.4281 
        2.25807         42.4586         5.99929         68.8456 
        2.27035          41.875         5.92012         68.3291 
        2.28263         41.3092         5.84242         67.7998 
         2.2949         40.7888         5.76616          67.306 
        2.30718         40.3812         5.69123         66.8173 
        2.31946         39.8046          5.6176         66.3345 
        2.33169         39.3873         5.54559         65.8131 
        2.34393         38.7779         5.47473         65.3126 
        2.35622         38.5033         5.40489         64.8227 
        2.36847         38.0144         5.33645         64.3513 
        2.38076         37.6966           5.269         63.8709 
        2.39305         37.2175         5.20273         63.4065 
        2.40534         36.8308          5.1376         62.8774 
        2.41762         36.4094          5.0736         62.4067 
        2.42989         35.8423         5.01078         62.0005 
        2.44216         35.6182         4.94903         61.5244 
         2.4544          35.263         4.88846         61.0812 
        2.46667         34.6946         4.82877         60.5935 
        2.47897         34.3911         4.76993         60.1729 
        2.49124         33.9494         4.71224         59.7353 
        2.50349           33.54         4.65558         59.3092 
        2.51578          33.189         4.59968         58.9007 
        2.52805         33.0552         4.54481         58.4494 
        2.54029         32.6256         4.49096         58.0281 
        2.55257         32.1958         4.43783         57.6244 
        2.56487         31.8649         4.38545          57.219 
        2.57716         31.5496         4.33399         56.8378 
        2.58942         31.1596         4.28348          56.408 
        2.60167         30.7626         4.23381         55.9765 
        2.61395         30.5375         4.18486         55.5995 
        2.62624         30.2911         4.13662         55.2037 
        2.63849         29.9854         4.08929         54.8172 
        2.65073         29.6382         4.04275         54.4029 
        2.66302         29.3497         3.99677         54.0417 
         2.6753         29.0205         3.95154         53.6652 
        2.68756         28.6693         3.90709         53.2718 
        2.69983         28.4495          3.8633         52.9165 
        2.71213         28.0901         3.82009         52.5627 
        2.72441         27.9783         3.77762         52.1718 
        2.73665         27.6843         3.73589         51.8086 
         2.7489         27.4878         3.69482          51.458 
        2.76118         27.1787         3.65424         51.0924 
        2.77349         26.9613         3.61417         50.7579 
        2.78576         26.7732         3.57487         50.3938 
        2.79802         26.4448         3.53616         50.0534 
        2.81031         26.2278         3.49794         49.7229 
        2.82259         26.0117          3.4603         49.3643 
        2.83483         25.7656         3.42336          49.026 
         2.8471          25.557         3.38688         48.7024 
         2.8594         25.3462         3.35083         48.3893 
         2.8717         25.0774         3.31531         48.0519 
        2.88396         24.9754         3.28044          47.708 
        2.89619         24.7849         3.24613         47.3909 
        2.90847         24.5809         3.21218         47.0763 
        2.92072         24.4751         3.17878         46.7627 
        2.93299         24.3502         3.14584         46.4383 
        2.94526         24.1205         3.11333         46.1435 
        2.95753         23.9537         3.08129         45.8522 
        2.96982         23.9328         3.04965         45.5424 
        2.98209         23.7126         3.01852         45.2415 
        2.99436          23.533         2.98779         44.9384 
        3.00666         23.4883         2.95745         44.6425 
        3.01894         23.3638         2.92758         44.3316 
        3.03119         23.1917         2.89817         44.0416 
        3.04345         23.0918         2.86915         43.7678 
        3.05573          23.022         2.84048         43.4855 
          3.068          22.963         2.81223         43.1979 
        3.08026         22.8908          2.7844         42.9131 
        3.09254         22.7667         2.75688         42.6413 
        3.10483         22.7892         2.72974         42.3708 
         3.1171          22.676           2.703         42.0958 
        3.12933         22.7026         2.67669         41.8243 
        3.14159         22.6162         2.65067         41.5518 
