# k  (h/Mpc)    P(k)  (Mpc/h)^3    P_linear(k)  (Mpc/h)^3     P_NL(k)  ShotnoiseSubtracted = false
      0.0156606         2729.46         2775.23         2761.53 
      0.0273761         2368.21         2398.17         2391.44 
      0.0384619         1798.47         1806.32         1804.01 
      0.0498308         1409.24         1420.61          1419.4 
      0.0625568         1188.76         1207.24         1205.08 
      0.0751274         1028.68         1025.63         1021.63 
      0.0867833         815.917         825.724         825.205 
      0.0984825          661.29         653.442         656.032 
       0.111151         553.925         545.604          548.12 
       0.123864         497.566         491.694         493.595 
       0.135742         447.065         442.152         444.034 
        0.14762         379.893         378.059         382.537 
       0.160083         315.453         315.132         320.241 
       0.172465         277.988         275.049         281.181 
       0.184281         257.705         253.562         260.073 
       0.196406         235.047         234.163          239.17 
       0.209011         211.838         208.345          214.03 
       0.221538         188.151         182.073         190.031 
       0.233611         169.593         162.908         171.748 
       0.245665         159.259         150.358         158.218 
       0.258103         143.566          139.97         147.797 
       0.270422         134.762         128.616         136.216 
       0.282519         122.276         116.726         124.843 
       0.294636         116.534          106.35          114.91 
       0.306978          103.12          98.392         107.237 
       0.319417         98.3829         91.9907         100.545 
        0.33169         91.4541         85.8634         94.1297 
       0.343948         86.7955         79.5574         87.9632 
       0.356249         79.6469         73.6435         82.8478 
       0.368458         75.9842           68.69         77.1779 
        0.38068           71.23         64.5481         72.9652 
       0.392856         66.5835         60.7665         69.2564 
       0.405069         62.9979         57.0688         65.3126 
       0.417459         58.9622         53.4889         61.7924 
       0.429752         56.4589         50.2752         58.5841 
       0.441978         53.7547         47.4543         56.0739 
       0.454294         50.0181         44.8929         53.0678 
        0.46658         49.5623         42.4895          50.626 
       0.478753         46.0909         40.2222         48.3802 
       0.490964         44.5146         38.0924          46.382 
       0.503334         42.6447         36.1268         44.1851 
       0.515665         40.4989         34.3343         42.6866 
       0.527909         38.7511         32.6795         40.4444 
       0.540159         37.1301         31.1139          38.887 
        0.55248          34.716         29.6284         37.2435 
       0.564743         34.2405          28.253         36.0055 
        0.57686          33.082         26.9888          34.625 
       0.589077         31.1504         25.7955         33.4956 
       0.601441         30.0511         24.6607         32.2699 
        0.61382         28.9998         23.5909         30.9887 
       0.626067         27.8285         22.5925          30.023 
       0.638306         26.9018         21.6524         28.9181 
       0.650632         26.1554         20.7616         27.9909 
       0.662899         25.0335         19.9269         27.0141 
       0.675076         23.8884         19.1446         26.1462 
       0.687267         23.5289         18.4034         25.2884 
       0.699615         22.7218         17.6921         24.5768 
       0.711937         21.5718         17.0197         23.7712 
       0.724148         21.4511          16.388         23.1586 
       0.736433         20.2053         15.7852         22.4152 
       0.748747          19.833         15.2118         21.7958 
       0.761037          19.336         14.6683         21.2195 
       0.773197         18.6529         14.1569         20.6654 
       0.785376         17.9467         13.6694          20.103 
       0.797761          17.547         13.1973         19.5599 
       0.810096         17.1357         12.7493         19.0854 
       0.822371         16.6608         12.3244         18.5239 
       0.834626         16.1314         11.9196         18.1211 
       0.846916         15.6342          11.532         17.6476 
       0.859215         15.0657         11.1615         17.2304 
       0.871383         14.7848          10.811         16.8589 
        0.88363         14.3964         10.4736         16.4505 
       0.895928         14.1133         10.1494         16.0282 
       0.908253         13.7441         9.83837          15.699 
       0.920535         13.3293         9.54148         15.3242 
       0.932774         13.1168         9.25794         14.9351 
        0.94508         12.6814         8.98455         14.6527 
       0.957324         12.4442         8.72358         14.3641 
        0.96953         12.0077         8.47383         14.0377 
       0.981769         11.9034         8.23328         13.7471 
       0.994071         11.5774         8.00096         13.4552 
         1.0064         11.2121         7.77725         13.1955 
        1.01868         10.9965         7.56279         12.9381 
        1.03092         10.8181         7.35741         12.6646 
         1.0432         10.4232         7.15895         12.4101 
        1.05553         10.2585         6.96707         12.2162 
        1.06777         9.95783         6.78364         11.9517 
           1.08         9.78097         6.60704         11.7391 
        1.09227         9.58145         6.43617         11.5253 
         1.1046         9.40227         6.27074         11.2918 
         1.1169           9.109         6.11144         11.0891 
        1.12915         9.08571         5.95848         10.9367 
        1.14142         8.73426         5.81046         10.7146 
        1.15365         8.63446         5.66792         10.5266 
        1.16585         8.52244         5.53056         10.3743 
        1.17807          8.2702         5.39761         10.1657 
        1.19037         8.12645         5.26817         10.0099 
        1.20276         7.93062         5.14211          9.8335 
        1.21504         7.81756         5.02118         9.69119 
        1.22728         7.61609         4.90466         9.51713 
        1.23954          7.5005         4.79157         9.38815 
        1.25184         7.34209         4.68185         9.23322 
        1.26414         7.24925         4.57552         9.07215 
        1.27632         7.04459         4.47346         8.94325 
         1.2886         6.96303          4.3738         8.81039 
        1.30093         6.82256         4.27684         8.70604 
        1.31316         6.66978         4.18352         8.55493 
        1.32541         6.57212         4.09299         8.45222 
        1.33772         6.44515         4.00464         8.30734 
        1.35005         6.36143         3.91884         8.20047 
        1.36225         6.23289         3.83644         8.06802 
        1.37447         6.12314         3.75626         7.97153 
        1.38676         6.00852           3.678         7.86435 
        1.39907          5.8978         3.60186         7.75554 
        1.41133         5.81314          3.5282         7.64873 
        1.42358         5.69651         3.45667         7.54068 
        1.43591         5.63418         3.38665         7.45707 
        1.44818         5.49651         3.31895         7.35462 
        1.46037         5.40539         3.25351         7.25461 
        1.47263         5.32828         3.18947         7.17075 
        1.48494         5.26975         3.12692         7.06992 
        1.49724         5.16661          3.0661         6.98592 
        1.50952         5.13797         3.00702         6.90274 
        1.52178         5.01732         2.94958         6.81615 
        1.53409         4.92045         2.89343         6.72353 
        1.54637         4.86393         2.83885         6.64299 
        1.55858         4.80038         2.78599          6.5589 
        1.57081         4.69736          2.7344         6.49939 
        1.58313         4.64309         2.68381         6.41536 
        1.59544         4.55718         2.63452         6.34872 
        1.60767         4.50833         2.58679         6.26692 
        1.61994         4.43342         2.54007         6.20639 
        1.63225         4.35688         2.49442         6.13243 
        1.64452         4.28465         2.45001         6.06091 
        1.65676         4.22417         2.40683         5.99668 
          1.669         4.18709         2.36466         5.93136 
        1.68133          4.0809         2.32323         5.86604 
        1.69363         4.06184         2.28292         5.81043 
        1.70585         3.99901         2.24382         5.74001 
        1.71809         3.95526         2.20556         5.68601 
        1.73038         3.89767         2.16807         5.62323 
        1.74268         3.83382         2.13143         5.56705 
        1.75493          3.7846         2.09581         5.50479 
        1.76714         3.75386         2.06109         5.44973 
        1.77942         3.69108         2.02699         5.39394 
        1.79173         3.64099         1.99357         5.33545 
        1.80402         3.59531         1.96097         5.28556 
         1.8163         3.56491         1.92912          5.2398 
         1.8286         3.50409         1.89793         5.19083 
         1.8409         3.44771         1.86745         5.14213 
        1.85315         3.41232         1.83774         5.08046 
        1.86537         3.38229         1.80874         5.04091 
        1.87765          3.3229         1.78026         4.98829 
        1.88995         3.27784         1.75232         4.94664 
        1.90221         3.23948         1.72508         4.89696 
        1.91445         3.20511         1.69846         4.86321 
        1.92674         3.18014         1.67232         4.80663 
        1.93902         3.12375         1.64672         4.76045 
        1.95124         3.08515          1.6218         4.72038 
         1.9635         3.06679         1.59733          4.6813 
        1.97583         3.01286         1.57321         4.64085 
        1.98812         2.97397         1.54968         4.59637 
        2.00039         2.94374         1.52668         4.55708 
        2.01264         2.90623         1.50416         4.52452 
        2.02492         2.87726         1.48207         4.48338 
        2.03717          2.8406         1.46046         4.44209 
        2.04942         2.80447         1.43931         4.40645 
        2.06171         2.77145         1.41851          4.3666 
        2.07397         2.74641         1.39816         4.33039 
        2.08629         2.72061         1.37813         4.29959 
        2.09857         2.68741         1.35853         4.26111 
        2.11081         2.65107          1.3394         4.22694 
        2.12309         2.63098          1.3206          4.1922 
        2.13538         2.59664         1.30212         4.16201 
        2.14763         2.58061         1.28406         4.12586 
        2.15986         2.55352         1.26639         4.09649 
        2.17214         2.51121         1.24898         4.05685 
        2.18443         2.49977         1.23188         4.02688 
        2.19671         2.46441         1.21512         3.99647 
        2.20898         2.44165         1.19869         3.96862 
        2.22126         2.42195         1.18254         3.93779 
        2.23354         2.39118         1.16671         3.90647 
         2.2458         2.37897         1.15118          3.8727 
        2.25807         2.34587         1.13593         3.84792 
        2.27035         2.32057         1.12094         3.82153 
        2.28263         2.29608         1.10623         3.79199 
         2.2949         2.28167         1.09179         3.76594 
        2.30718         2.25743          1.0776         3.74115 
        2.31946         2.23236         1.06366         3.71331 
        2.33169         2.21412         1.05003         3.68483 
        2.34393          2.2029         1.03661         3.65856 
        2.35622         2.17757         1.02338         3.63194 
        2.36847         2.15286         1.01043          3.6051 
        2.38076         2.13603        0.997655         3.57903 
        2.39305         2.11366        0.985108         3.55197 
        2.40534         2.09561        0.972776         3.53057 
        2.41762         2.07146        0.960656         3.50907 
        2.42989         2.05933        0.948762         3.48223 
        2.44216         2.04535         0.93707         3.46045 
         2.4544         2.02531        0.925602         3.43811 
        2.46667         2.00791          0.9143         3.41468 
        2.47897          1.9928        0.903159         3.39072 
        2.49124         1.97203        0.892235         3.36891 
        2.50349         1.96004        0.881508         3.34613 
        2.51578         1.93967        0.870924         3.32128 
        2.52805         1.92198        0.860534         3.30121 
        2.54029         1.91302        0.850338         3.28001 
        2.55257         1.89459        0.840277           3.259 
        2.56487           1.881         0.83036          3.2372 
        2.57716         1.87375        0.820617         3.21665 
        2.58942         1.85403        0.811052         3.19669 
        2.60167           1.842        0.801649         3.17501 
        2.61395         1.81944        0.792381          3.1579 
        2.62624         1.81532        0.783246         3.13778 
        2.63849         1.80193        0.774285         3.11628 
        2.65073         1.78641        0.765473         3.09721 
        2.66302         1.77331        0.756767         3.07945 
         2.6753         1.77268        0.748201         3.06054 
        2.68756         1.74981        0.739786         3.04227 
        2.69983         1.73893        0.731495         3.02239 
        2.71213         1.73251        0.723313          3.0045 
        2.72441         1.72047        0.715271         2.98673 
        2.73665         1.70637         0.70737         2.97053 
         2.7489         1.69639        0.699594         2.95484 
        2.76118         1.68702         0.69191         2.93709 
        2.77349         1.68413        0.684324         2.91938 
        2.78576          1.6741        0.676881         2.90178 
        2.79802         1.66601        0.669553          2.8849 
        2.81031         1.65045        0.662316         2.86739 
        2.82259         1.64369        0.655189         2.85057 
        2.83483         1.63948        0.648194         2.83561 
         2.8471         1.63083        0.641287         2.81937 
         2.8594         1.62186        0.634461         2.80411 
         2.8717          1.6148        0.627735         2.78843 
        2.88396         1.61142        0.621133         2.77191 
        2.89619         1.59846        0.614637         2.75614 
        2.90847         1.59471         0.60821         2.73982 
        2.92072         1.58978        0.601885         2.72601 
        2.93299         1.58874        0.595647         2.71117 
        2.94526         1.58151        0.589492         2.69686 
        2.95753         1.57317        0.583426         2.68202 
        2.96982         1.57143        0.577435         2.66702 
        2.98209         1.57056         0.57154         2.65374 
        2.99436         1.56389        0.565723         2.63953 
        3.00666         1.56652        0.559977         2.62571 
        3.01894         1.55978        0.554321         2.61017 
        3.03119         1.55972        0.548752          2.5966 
        3.04345         1.55659        0.543259         2.58434 
        3.05573         1.55482         0.53783         2.57123 
          3.068         1.55523        0.532481          2.5577 
        3.08026         1.55138         0.52721         2.54316 
        3.09254         1.55621        0.522001          2.5296 
        3.10483         1.55639        0.516862         2.51755 
         3.1171         1.55624        0.511798         2.50516 
        3.12933           1.557        0.506817         2.49156 
        3.14159         1.55711         0.50189         2.47813 
