# k  (h/Mpc)    Pcb(k)  (Mpc/h)^3    Pcb_linear(k) (Mpc/h)^3    Pcb_NL(k) (Mpc/h)^3   ShotnoiseSubtracted = false
      0.0156606         802.336         802.908         799.204 
      0.0273761         699.256         695.038         693.626 
      0.0384619         531.129         523.905         523.866 
      0.0498308         417.804           412.2         412.465 
      0.0625568         352.627          350.38         350.217 
      0.0751274         302.324         297.716         297.222 
      0.0867833         241.702         239.709         239.668 
      0.0984825         193.961         189.707         190.063 
       0.111151         162.075         158.407         158.726 
       0.123864           145.5          142.76         142.897 
       0.135742         130.543         128.379         128.471 
        0.14762         111.003         109.772         110.136 
       0.160083         92.3882         91.5022         91.9715 
       0.172465         80.9153         79.8646         80.4107 
       0.184281         74.8705         73.6261         74.1775 
       0.196406         68.5086         67.9938         68.3857 
       0.209011         61.3159         60.4975         60.9657 
       0.221538          54.015         52.8693         53.5547 
       0.233611         48.3868         47.3045         48.0651 
       0.245665         45.1314         43.6603         44.3258 
       0.258103         40.9679         40.6441         41.2984 
       0.270422         38.2281         37.3473         37.9731 
       0.282519         34.6786         33.8948         34.5822 
       0.294636         32.2743          30.882         31.6087 
       0.306978          28.987         28.5711         29.3176 
       0.319417         27.4514         26.7123         27.4351 
        0.33169         25.5411         24.9331         25.6282 
       0.343948         23.9519          23.102         23.7938 
       0.356249         21.9324         21.3848         22.1783 
       0.368458         20.6932         19.9464         20.6488 
        0.38068         19.3059         18.7435         19.4424 
       0.392856         18.1536         17.6455          18.351 
       0.405069          17.137         16.5718         17.2385 
       0.417459         15.8257         15.5322         16.2328 
       0.429752         15.0519          14.599         15.2887 
       0.441978         14.2885         13.7799         14.5097 
       0.454294         13.3678         13.0361         13.7252 
        0.46658         12.9397         12.3383         13.0119 
       0.478753         12.1219         11.6799         12.3496 
       0.490964         11.6169         11.0615         11.7694 
       0.503334         11.0665         10.4906         11.1543 
       0.515665         10.4117         9.97014         10.6686 
       0.527909         9.98412         9.48963         10.1333 
       0.540159         9.46105         9.03503         9.66866 
        0.55248         8.90825         8.60367         9.21136 
       0.564743           8.699         8.20425         8.85334 
        0.57686          8.3165         7.83716         8.46199 
       0.589077         7.82421         7.49063         8.13539 
       0.601441         7.50851         7.16112         7.79174 
        0.61382         7.19961         6.85044         7.45771 
       0.626067         6.88019         6.56053         7.16263 
       0.638306         6.62778         6.28753         6.87666 
       0.650632         6.42811         6.02887         6.62618 
       0.662899         6.13234         5.78649         6.36372 
       0.675076         5.82893         5.55933         6.13338 
       0.687267         5.62877         5.34408         5.89207 
       0.699615         5.47242         5.13754         5.68029 
       0.711937         5.20354         4.94229         5.49511 
       0.724148         5.09348         4.75884         5.30072 
       0.736433         4.83742         4.58379         5.10515 
       0.748747         4.68042         4.41729          4.9538 
       0.761037         4.53583         4.25947         4.78094 
       0.773197         4.34195         4.11098         4.63776 
       0.785376         4.19039         3.96941         4.48234 
       0.797761          4.0539         3.83232         4.32862 
       0.810096         3.95064         3.70224         4.21303 
       0.822371          3.8436         3.57883         4.06838 
       0.834626         3.70921         3.46128         3.94229 
       0.846916         3.57371         3.34872         3.83811 
       0.859215         3.43188         3.24114         3.72911 
       0.871383         3.32984         3.13937         3.61695 
        0.88363         3.23905          3.0414         3.51373 
       0.895928          3.1605         2.94725         3.40969 
       0.908253         3.06133         2.85693         3.31623 
       0.920535         2.96615         2.77072         3.21891 
       0.932774         2.88002         2.68838         3.12359 
        0.94508         2.79773         2.60899         3.04487 
       0.957324         2.72463         2.53321         2.97293 
        0.96953          2.6322         2.46069         2.89262 
       0.981769         2.54955         2.39083          2.8084 
       0.994071         2.49691         2.32337         2.74799 
         1.0064         2.41852         2.25841         2.67429 
        1.01868         2.33877         2.19613         2.60692 
        1.03092         2.30668         2.13649         2.53683 
         1.0432         2.22793         2.07886         2.47744 
        1.05553         2.17222         2.02314         2.42199 
        1.06777         2.10638         1.96988         2.36567 
           1.08         2.06576          1.9186         2.30599 
        1.09227         1.99715         1.86898         2.25007 
         1.1046         1.95169         1.82094         2.20182 
         1.1169         1.89857         1.77468         2.15035 
        1.12915         1.85645         1.73026         2.10248 
        1.14142          1.8114         1.68728         2.05372 
        1.15365         1.76983         1.64589         2.01108 
        1.16585           1.728           1.606         1.96521 
        1.17807         1.69978         1.56739         1.92441 
        1.19037         1.63309         1.52981          1.8801 
        1.20276         1.59967          1.4932         1.83666 
        1.21504         1.56845         1.45808         1.80641 
        1.22728         1.53564         1.42425         1.76154 
        1.23954         1.50043         1.39141         1.73295 
        1.25184         1.47014         1.35955         1.69158 
        1.26414         1.43569         1.32867         1.65608 
        1.27632          1.3931         1.29903         1.62611 
         1.2886         1.36949         1.27009         1.59002 
        1.30093          1.3292         1.24194         1.56425 
        1.31316         1.29205         1.21484         1.53139 
        1.32541         1.27493         1.18855         1.50403 
        1.33772         1.25316         1.16289         1.47499 
        1.35005         1.22878         1.13798         1.44794 
        1.36225         1.19983         1.11405         1.41836 
        1.37447         1.17564         1.09077         1.39529 
        1.38676         1.14967         1.06804         1.36616 
        1.39907         1.12466         1.04593         1.34396 
        1.41133         1.09716         1.02454         1.31924 
        1.42358         1.08691         1.00377         1.29198 
        1.43591         1.06148        0.983438         1.27565 
        1.44818         1.04007        0.963779         1.25242 
        1.46037         1.01497        0.944776         1.22734 
        1.47263           0.994        0.926181         1.20836 
        1.48494        0.978394        0.908016         1.18802 
        1.49724        0.958237        0.890354         1.16787 
        1.50952        0.940923        0.873199          1.1448 
        1.52178        0.918795        0.856521         1.12766 
        1.53409        0.905327        0.840213         1.10837 
        1.54637        0.881743        0.824364         1.08892 
        1.55858        0.870561        0.809015         1.07182 
        1.57081        0.858416        0.794035          1.0533 
        1.58313        0.839156        0.779342         1.03928 
        1.59544         0.82475         0.76503         1.02093 
        1.60767        0.810806        0.751169         1.00504 
        1.61994        0.792814        0.737604        0.990536 
        1.63225        0.779878        0.724347        0.975575 
        1.64452        0.767796        0.711452        0.958968 
        1.65676        0.752838        0.698913        0.944947 
          1.669         0.74071        0.686666        0.929314 
        1.68133        0.726228        0.674636        0.917028 
        1.69363        0.717995        0.662929        0.902612 
        1.70585        0.702568        0.651576        0.889687 
        1.71809        0.691744        0.640466        0.876001 
        1.73038        0.677643         0.62958        0.863457 
        1.74268        0.664488         0.61894        0.849976 
        1.75493         0.65948        0.608596        0.839517 
        1.76714        0.645298        0.598515        0.826449 
        1.77942        0.632165        0.588611        0.814831 
        1.79173        0.624925        0.578906        0.802483 
        1.80402        0.614801         0.56944        0.791622 
         1.8163        0.604537        0.560191        0.779133 
         1.8286        0.590554        0.551133        0.771577 
         1.8409        0.586002        0.542282        0.759447 
        1.85315        0.577592        0.533655        0.748608 
        1.86537         0.56417        0.525234        0.739098 
        1.87765         0.55664        0.516963        0.728472 
        1.88995        0.549051         0.50885        0.719755 
        1.90221        0.539441         0.50094        0.709494 
        1.91445         0.53264        0.493212        0.700571 
        1.92674        0.522759         0.48562        0.691524 
        1.93902        0.513604        0.478187        0.681642 
        1.95124          0.5067        0.470949        0.672821 
         1.9635        0.500783        0.463843         0.66396 
        1.97583        0.491478        0.456839        0.654976 
        1.98812        0.484529        0.450006        0.648386 
        2.00039        0.477667        0.443327        0.639066 
        2.01264        0.471465        0.436789        0.631421 
        2.02492        0.464568        0.430374         0.62386 
        2.03717        0.457258        0.424099        0.616068 
        2.04942        0.450728        0.417957        0.607931 
        2.06171        0.444784        0.411915        0.600528 
        2.07397        0.437007        0.406007        0.593731 
        2.08629        0.433147         0.40019        0.586202 
        2.09857        0.425386          0.3945        0.579389 
        2.11081         0.41852        0.388945        0.571747 
        2.12309        0.413431        0.383484        0.565936 
        2.13538        0.407251        0.378119        0.558697 
        2.14763        0.402899        0.372875        0.552535 
        2.15986        0.397284        0.367743        0.546538 
        2.17214        0.390867        0.362687        0.539578 
        2.18443        0.386856        0.357721        0.533168 
        2.19671         0.38157        0.352854        0.527603 
        2.20898        0.376218        0.348083        0.521169 
        2.22126        0.370397        0.343395        0.515598 
        2.23354        0.366616        0.338796        0.510206 
         2.2458         0.36301        0.334288        0.503292 
        2.25807        0.357602        0.329859        0.498635 
        2.27035        0.352683        0.325506        0.492803 
        2.28263         0.34781        0.321234        0.487715 
         2.2949        0.344109        0.317041        0.482026 
        2.30718        0.339731        0.312921        0.477056 
        2.31946        0.336454        0.308873        0.472072 
        2.33169        0.330617        0.304913        0.466649 
        2.34393        0.327178        0.301017        0.462092 
        2.35622        0.323216        0.297177        0.456587 
        2.36847        0.320124        0.293414        0.451961 
        2.38076        0.315767        0.289706        0.447282 
        2.39305        0.311562        0.286062        0.442744 
        2.40534        0.308096        0.282481        0.438261 
        2.41762        0.305278        0.278962         0.43344 
        2.42989        0.300643        0.275508        0.428806 
        2.44216        0.298129        0.272113        0.424767 
         2.4544        0.295093        0.268782        0.420551 
        2.46667        0.291946          0.2655        0.415897 
        2.47897        0.288071        0.262265        0.411903 
        2.49124        0.284836        0.259093        0.407693 
        2.50349        0.280959        0.255978        0.403503 
        2.51578        0.278501        0.252905        0.399513 
        2.52805         0.27668        0.249887        0.395706 
        2.54029        0.273391        0.246927        0.391897 
        2.55257         0.26969        0.244005        0.388282 
        2.56487        0.267628        0.241125        0.384333 
        2.57716        0.264859        0.238296        0.380582 
        2.58942        0.262632        0.235519        0.376886 
        2.60167        0.259283        0.232788        0.373101 
        2.61395        0.256687        0.230097        0.369831 
        2.62624        0.254002        0.227444        0.366474 
        2.63849        0.252591        0.224842        0.362905 
        2.65073        0.249356        0.222283        0.359383 
        2.66302        0.247581        0.219755        0.356002 
         2.6753        0.244963        0.217268        0.352709 
        2.68756        0.243324        0.214824        0.349541 
        2.69983        0.240426        0.212416         0.34601 
        2.71213        0.237825         0.21004        0.343028 
        2.72441        0.236531        0.207705        0.340129 
        2.73665         0.23463        0.205411        0.337008 
         2.7489        0.233041        0.203152        0.333897 
        2.76118        0.231391        0.200921         0.33093 
        2.77349        0.228561        0.198718        0.328094 
        2.78576        0.227422        0.196557        0.325134 
        2.79802        0.225681        0.194429        0.321903 
        2.81031        0.223926        0.192327        0.319431 
        2.82259        0.222454        0.190258        0.316332 
        2.83483         0.22037        0.188227        0.313517 
         2.8471        0.219049        0.186221         0.31119 
         2.8594        0.217651        0.184239        0.308555 
         2.8717        0.216721        0.182286        0.305743 
        2.88396        0.215496        0.180368          0.3032 
        2.89619        0.213718        0.178482        0.300736 
        2.90847        0.212773        0.176616        0.298219 
        2.92072        0.210824        0.174779        0.295471 
        2.93299         0.20996        0.172968        0.292908 
        2.94526        0.208898         0.17118        0.290588 
        2.95753        0.208205        0.169419        0.288264 
        2.96982        0.206852        0.167679        0.285732 
        2.98209        0.206303        0.165967        0.283221 
        2.99436        0.204729        0.164278        0.280954 
        3.00666        0.204572        0.162609        0.278719 
        3.01894        0.203753        0.160967        0.276541 
        3.03119         0.20307         0.15935        0.274218 
        3.04345        0.202031        0.157755        0.272061 
        3.05573        0.201896        0.156178        0.270022 
          3.068        0.200984        0.154625        0.267677 
        3.08026        0.200392        0.153095        0.265471 
        3.09254        0.200828        0.151582        0.263445 
        3.10483        0.200054        0.150089        0.261445 
         3.1171        0.199627        0.148619        0.259305 
        3.12933        0.199556        0.147172        0.257156 
        3.14159         0.19888        0.145742        0.255307 
