# k  (h/Mpc)    Pcb(k)  (Mpc/h)^3    Pcb_linear(k) (Mpc/h)^3    Pcb_NL(k) (Mpc/h)^3   ShotnoiseSubtracted = false
      0.0156606         88.0546         89.1958         88.7864 
      0.0273761         76.9252         77.2656         77.1129 
      0.0384619         58.3907         58.2529         58.2548 
      0.0498308         46.0506         45.8365         45.8711 
      0.0625568         38.8919         38.9637         38.9491 
      0.0751274         33.1037         33.1081          33.059 
      0.0867833         26.6406         26.6578         26.6537 
      0.0984825         21.2397         21.0975         21.1324 
       0.111151         17.7311         17.6167         17.6474 
       0.123864         15.9208         15.8766          15.887 
       0.135742         14.2821         14.2773         14.2821 
        0.14762         12.1967          12.208         12.2383 
       0.160083         10.1776         10.1762         10.2175 
       0.172465         8.89611           8.882          8.9296 
       0.184281         8.20387         8.18818          8.2351 
       0.196406         7.53586          7.5618         7.59407 
       0.209011           6.722         6.72812         6.76745 
       0.221538         5.89296         5.87979         5.93865 
       0.233611         5.28103         5.26091         5.32635 
       0.245665         4.89105         4.85563          4.9125 
       0.258103         4.50364         4.52018         4.57575 
       0.270422         4.16409         4.15353         4.20656 
       0.282519         3.78044         3.76958         3.82828 
       0.294636         3.46932         3.43451         3.49673 
       0.306978         3.17397          3.1775         3.24135 
       0.319417         2.98565         2.97078         3.03252 
        0.33169         2.78366         2.77291         2.83217 
       0.343948         2.58835         2.56927         2.62814 
       0.356249          2.3846         2.37829         2.44635 
       0.368458         2.23086         2.21832         2.27821 
        0.38068         2.09225         2.08454         2.14414 
       0.392856         1.96979         1.96243         2.02257 
       0.405069         1.85973         1.84302         1.89967 
       0.417459          1.7242          1.7274          1.7873 
       0.429752         1.62916         1.62362         1.68245 
       0.441978          1.5425         1.53252         1.59498 
       0.454294         1.45576          1.4498         1.50871 
        0.46658         1.38486         1.37219         1.42964 
       0.478753         1.31118         1.29897         1.35598 
       0.490964         1.24622         1.23019         1.29084 
       0.503334         1.18463         1.16671         1.22326 
       0.515665         1.12007         1.10882         1.16847 
       0.527909         1.07322         1.05538         1.11031 
       0.540159          1.0176         1.00482         1.05877 
        0.55248        0.965339         0.95685         1.00835 
       0.564743        0.929752        0.912429        0.967931 
        0.57686        0.886914        0.871603        0.924801 
       0.589077        0.842072        0.833064          0.8882 
       0.601441        0.811541        0.796419        0.850226 
        0.61382        0.775278        0.761867        0.813631 
       0.626067        0.740712        0.729625        0.780839 
       0.638306        0.712369        0.699263        0.749398 
       0.650632        0.685448        0.670497        0.721413 
       0.662899        0.659486         0.64354        0.692611 
       0.675076        0.628174        0.618276        0.667233 
       0.687267        0.603937        0.594338        0.640792 
       0.699615        0.585967        0.571367        0.617334 
       0.711937        0.562433        0.549653        0.596774 
       0.724148        0.544643        0.529251        0.575264 
       0.736433        0.522647        0.509783        0.553888 
       0.748747        0.504043        0.491266        0.537025 
       0.761037        0.485122        0.473714        0.517947 
       0.773197         0.46888          0.4572        0.502022 
       0.785376        0.451565        0.441455        0.485007 
       0.797761        0.437191        0.426208        0.468176 
       0.810096        0.425885        0.411742        0.455136 
       0.822371        0.411874        0.398017         0.43942 
       0.834626        0.398816        0.384943        0.425497 
       0.846916         0.38641        0.372426        0.414113 
       0.859215        0.371282        0.360461        0.402027 
       0.871383        0.361438        0.349143        0.389534 
        0.88363        0.349895        0.338247        0.378314 
       0.895928        0.340911        0.327776        0.366942 
       0.908253        0.330823        0.317732        0.356666 
       0.920535        0.321253        0.308144        0.346026 
       0.932774        0.311803        0.298987        0.335742 
        0.94508        0.302906        0.290157        0.326872 
       0.957324        0.294924         0.28173        0.318912 
        0.96953        0.285244        0.273664        0.310117 
       0.981769        0.277563        0.265895        0.300998 
       0.994071        0.270592        0.258392        0.294365 
         1.0064        0.262797        0.251168        0.286198 
        1.01868        0.256418        0.244242        0.278951 
        1.03092         0.25049        0.237609        0.271274 
         1.0432        0.244379        0.231199        0.264727 
        1.05553        0.237084        0.225003        0.258629 
        1.06777        0.230591        0.219079        0.252368 
           1.08        0.226016        0.213375        0.245965 
        1.09227        0.219597        0.207857        0.239877 
         1.1046        0.214262        0.202515        0.234589 
         1.1169        0.208992         0.19737        0.228993 
        1.12915        0.203433         0.19243        0.223671 
        1.14142        0.199976         0.18765        0.218493 
        1.15365        0.195166        0.183046        0.213706 
        1.16585        0.190191         0.17861        0.208685 
        1.17807         0.18669        0.174317        0.204361 
        1.19037        0.181368        0.170136        0.199516 
        1.20276        0.178168        0.166065        0.194784 
        1.21504        0.174044         0.16216        0.191475 
        1.22728        0.170662        0.158397        0.186614 
        1.23954        0.166977        0.154745        0.183367 
        1.25184        0.163567        0.151201        0.178992 
        1.26414         0.15998        0.147767        0.175204 
        1.27632        0.155749        0.144471        0.171729 
         1.2886        0.152237        0.141253        0.167895 
        1.30093        0.149198        0.138121        0.165111 
        1.31316        0.145686        0.135108        0.161554 
        1.32541        0.143038        0.132184        0.158561 
        1.33772        0.140289         0.12933        0.155419 
        1.35005        0.138116         0.12656         0.15247 
        1.36225        0.135207        0.123899        0.149296 
        1.37447          0.1326        0.121309        0.146749 
        1.38676        0.130388        0.118782        0.143657 
        1.39907        0.127934        0.116323         0.14116 
        1.41133        0.124953        0.113944        0.138504 
        1.42358         0.12287        0.111634        0.135616 
        1.43591        0.120865        0.109372        0.133683 
        1.44818         0.11848        0.107186        0.131263 
        1.46037        0.116173        0.105073        0.128558 
        1.47263        0.114106        0.103005         0.12647 
        1.48494        0.111854        0.100984         0.12433 
        1.49724        0.109722       0.0990202        0.122166 
        1.50952        0.107965       0.0971122        0.119604 
        1.52178         0.10623       0.0952574        0.117706 
        1.53409        0.104694       0.0934438         0.11573 
        1.54637        0.102675       0.0916811        0.113633 
        1.55858        0.100646       0.0899741        0.111763 
        1.57081       0.0991143       0.0883081        0.109787 
        1.58313       0.0976992       0.0866741        0.108196 
        1.59544       0.0963176       0.0850823        0.106255 
        1.60767       0.0947671       0.0835408        0.104546 
        1.61994       0.0927222       0.0820322        0.102995 
        1.63225       0.0909581       0.0805578        0.101362 
        1.64452       0.0899663       0.0791237       0.0995892 
        1.65676       0.0888549       0.0777291       0.0980758 
          1.669       0.0874096       0.0763672       0.0964268 
        1.68133       0.0857345       0.0750292       0.0950387 
        1.69363       0.0842705       0.0737273       0.0935491 
        1.70585       0.0830509       0.0724646       0.0921072 
        1.71809       0.0817739        0.071229       0.0906556 
        1.73038       0.0806003       0.0700183       0.0893211 
        1.74268       0.0790182       0.0688351        0.087856 
        1.75493       0.0784758       0.0676846       0.0867378 
        1.76714       0.0771185       0.0665634       0.0853775 
        1.77942       0.0762016        0.065462       0.0841344 
        1.79173       0.0751809       0.0643827       0.0827542 
        1.80402       0.0739269       0.0633299       0.0816331 
         1.8163       0.0728831       0.0623014       0.0802668 
         1.8286       0.0718083       0.0612939       0.0794522 
         1.8409       0.0706448       0.0603096       0.0781359 
        1.85315       0.0699692       0.0593502       0.0770111 
        1.86537       0.0685836       0.0584136       0.0759564 
        1.87765       0.0678863       0.0574937       0.0748738 
        1.88995       0.0670814       0.0565915       0.0739133 
        1.90221       0.0663318       0.0557118       0.0728223 
        1.91445       0.0651419       0.0548522       0.0718657 
        1.92674        0.064416       0.0540079       0.0708874 
        1.93902       0.0634284       0.0531813       0.0698427 
        1.95124       0.0627128       0.0523764       0.0689111 
         1.9635       0.0618074       0.0515861       0.0679618 
        1.97583       0.0611903       0.0508071       0.0670208 
        1.98812       0.0602994       0.0500472       0.0662905 
        2.00039       0.0596193       0.0493043       0.0653007 
        2.01264        0.058867       0.0485773       0.0644978 
        2.02492       0.0583158       0.0478638       0.0636547 
        2.03717       0.0573164       0.0471659       0.0628363 
        2.04942       0.0568933       0.0464828       0.0619876 
        2.06171       0.0560119       0.0458109       0.0611937 
        2.07397       0.0552125       0.0451538       0.0604549 
        2.08629       0.0546138       0.0445068       0.0596548 
        2.09857       0.0540712       0.0438741        0.058929 
        2.11081       0.0535159       0.0432563       0.0581031 
        2.12309       0.0527216       0.0426489       0.0575131 
        2.13538       0.0522291       0.0420523       0.0567457 
        2.14763       0.0516475       0.0414691       0.0560845 
        2.15986       0.0511018       0.0408983       0.0554257 
        2.17214       0.0504023        0.040336       0.0547198 
        2.18443       0.0500406       0.0397837       0.0540339 
        2.19671       0.0493345       0.0392424       0.0534478 
        2.20898       0.0489341       0.0387118       0.0527526 
        2.22126        0.048174       0.0381905       0.0521748 
        2.23354       0.0477471        0.037679       0.0515916 
         2.2458       0.0472587       0.0371777       0.0508519 
        2.25807       0.0467112       0.0366851       0.0503674 
        2.27035       0.0463132        0.036201       0.0497616 
        2.28263       0.0456963       0.0357259       0.0492166 
         2.2949       0.0453444       0.0352595       0.0486019 
        2.30718        0.044849       0.0348014       0.0480703 
        2.31946       0.0444631       0.0343511       0.0475423 
        2.33169         0.04374       0.0339108       0.0469823 
        2.34393       0.0436874       0.0334775       0.0465101 
        2.35622       0.0430679       0.0330504       0.0459338 
        2.36847       0.0427859       0.0326319       0.0454405 
        2.38076       0.0421999       0.0322195       0.0449501 
        2.39305       0.0420133       0.0318142       0.0444536 
        2.40534       0.0415207        0.031416       0.0439762 
        2.41762       0.0410574       0.0310246       0.0434893 
        2.42989       0.0406933       0.0306404       0.0429991 
        2.44216       0.0403702       0.0302628       0.0425596 
         2.4544       0.0399554       0.0298925       0.0421226 
        2.46667       0.0396908       0.0295275       0.0416338 
        2.47897       0.0391391       0.0291677       0.0412002 
        2.49124       0.0388633       0.0288149       0.0407708 
        2.50349        0.038466       0.0284684       0.0403276 
        2.51578       0.0381255       0.0281267       0.0399054 
        2.52805       0.0379512       0.0277911       0.0395043 
        2.54029       0.0374844       0.0274618       0.0391077 
        2.55257       0.0371933       0.0271369       0.0387177 
        2.56487       0.0369201       0.0268166       0.0383138 
        2.57716       0.0367213        0.026502       0.0379167 
        2.58942       0.0362688       0.0261931       0.0375164 
        2.60167       0.0359511       0.0258894       0.0371427 
        2.61395       0.0356952       0.0255901        0.036786 
        2.62624       0.0355744       0.0252951       0.0364218 
        2.63849       0.0351762       0.0250057       0.0360583 
        2.65073       0.0347905       0.0247211       0.0356904 
        2.66302       0.0346678       0.0244399       0.0353328 
         2.6753       0.0343921       0.0241633       0.0349927 
        2.68756       0.0342219       0.0238915       0.0346586 
        2.69983        0.033874       0.0236237       0.0342778 
        2.71213       0.0336279       0.0233595       0.0339778 
        2.72441       0.0333239       0.0230998        0.033673 
        2.73665       0.0331678       0.0228446       0.0333404 
         2.7489        0.032922       0.0225935       0.0330193 
        2.76118       0.0327572       0.0223453       0.0327078 
        2.77349       0.0324216       0.0221003       0.0324116 
        2.78576       0.0323168         0.02186         0.03212 
        2.79802       0.0320944       0.0216233        0.031765 
        2.81031       0.0318544       0.0213896       0.0315029 
        2.82259       0.0315626       0.0211594       0.0311938 
        2.83483       0.0313137       0.0209335       0.0308934 
         2.8471       0.0312625       0.0207105       0.0306518 
         2.8594       0.0310518         0.02049       0.0303735 
         2.8717       0.0308231       0.0202728       0.0300773 
        2.88396       0.0307626       0.0200596       0.0298191 
        2.89619        0.030498       0.0198498       0.0295588 
        2.90847       0.0303814       0.0196422       0.0292899 
        2.92072       0.0301626        0.019438       0.0290071 
        2.93299       0.0299919       0.0192365       0.0287475 
        2.94526       0.0298863       0.0190377       0.0285082 
        2.95753        0.029667       0.0188418       0.0282576 
        2.96982       0.0295313       0.0186484       0.0279915 
        2.98209       0.0293409        0.018458       0.0277401 
        2.99436       0.0292753       0.0182701       0.0274987 
        3.00666       0.0291207       0.0180845       0.0272566 
        3.01894       0.0290512       0.0179019       0.0270374 
        3.03119       0.0289277        0.017722       0.0268035 
        3.04345       0.0287772       0.0175446       0.0265748 
        3.05573       0.0287252       0.0173693       0.0263551 
          3.068       0.0285441       0.0171966       0.0261148 
        3.08026       0.0284378       0.0170263       0.0259017 
        3.09254       0.0283909       0.0168581       0.0256871 
        3.10483       0.0282963       0.0166921       0.0254731 
         3.1171       0.0282511       0.0165286       0.0252496 
        3.12933       0.0280336       0.0163677       0.0250189 
        3.14159       0.0279422       0.0162086       0.0248341 
