# k  (h/Mpc)    Pcb(k)  (Mpc/h)^3    Pcb_linear(k) (Mpc/h)^3    Pcb_NL(k) (Mpc/h)^3   ShotnoiseSubtracted = false
      0.0156606         12534.5         12575.4         12494.4 
      0.0273761           10801           10875         10798.7 
      0.0384619         8192.72         8193.83         8133.51 
      0.0498308         6362.49         6445.32         6387.21 
      0.0625568         5371.52         5477.89         5423.91 
      0.0751274         4742.76         4654.15         4575.98 
      0.0867833         3700.81         3747.15         3725.77 
      0.0984825         3079.13         2965.41         2993.35 
       0.111151         2610.46         2476.08         2506.86 
       0.123864         2343.17         2231.45         2257.08 
       0.135742         2121.94         2006.64         2032.87 
        0.14762         1828.75         1715.78         1783.47 
       0.160083         1529.53          1430.2         1510.22 
       0.172465         1363.05          1248.3         1348.74 
       0.184281          1251.7         1150.78         1254.31 
       0.196406         1155.67         1062.74         1150.38 
       0.209011         1066.27         945.572          1038.6 
       0.221538         961.577         826.342         954.837 
       0.233611          898.99         739.361         883.826 
       0.245665         828.335         682.403         813.375 
       0.258103         788.659         635.258         765.281 
       0.270422         715.389         583.729         713.796 
       0.282519         661.478         529.767         666.549 
       0.294636         655.459         482.676         626.099 
       0.306978         585.864         446.557          595.41 
       0.319417         565.357         417.505         560.133 
        0.33169         532.327         389.696          527.48 
       0.343948          507.29         361.076         506.877 
       0.356249         475.739         334.236         484.928 
       0.368458         461.555         311.755         458.296 
        0.38068         443.135         292.954         437.976 
       0.392856         416.258         275.792         420.164 
       0.405069         399.566         259.011         406.224 
       0.417459         382.339         242.762         385.882 
       0.429752         370.342         228.176         371.612 
       0.441978         358.291         215.374         360.387 
       0.454294         336.934         203.749         344.091 
        0.46658         333.578         192.842         334.855 
       0.478753         320.486         182.551          323.19 
       0.490964         309.517         172.886         312.018 
       0.503334         292.075         163.964           303.2 
       0.515665         289.646         155.829          296.34 
       0.527909         280.378         148.319           286.7 
       0.540159         272.777         141.213         278.496 
        0.55248         267.404         134.471         270.352 
       0.564743         261.289         128.229         264.694 
        0.57686         251.724         122.491         256.561 
       0.589077         241.976         117.075             251 
       0.601441         238.756         111.925          244.99 
        0.61382         235.945         107.069         239.361 
       0.626067         230.398         102.538         233.789 
       0.638306         219.813          98.271         229.171 
       0.650632         214.572         94.2283         222.054 
       0.662899         214.003         90.4399         218.548 
       0.675076         206.102         86.8895         213.804 
       0.687267         200.865         83.5253         209.085 
       0.699615         197.193         80.2971         205.036 
       0.711937         192.888         77.2454         201.072 
       0.724148         188.826         74.3782         198.084 
       0.736433         184.545         71.6424         193.662 
       0.748747         180.663         69.0401          189.78 
       0.761037         177.952         66.5733         186.126 
       0.773197         174.529         64.2526         183.929 
       0.785376         172.575         62.0399         179.963 
       0.797761         168.719         59.8971         177.643 
       0.810096         165.324         57.8641          174.43 
       0.822371         159.665         55.9353         171.515 
       0.834626         158.215          54.098         168.644 
       0.846916         156.175         52.3388         166.155 
       0.859215         154.649         50.6573         163.533 
       0.871383           151.2         49.0668         160.808 
        0.88363         148.816         47.5355         159.003 
       0.895928         145.769          46.064         156.709 
       0.908253         141.848         44.6523         153.869 
       0.920535         141.279         43.3049         151.894 
       0.932774         136.889          42.018         149.465 
        0.94508         135.882         40.7772         147.706 
       0.957324         134.778         39.5928         145.527 
        0.96953         133.714         38.4593         143.215 
       0.981769         129.527         37.3675         141.934 
       0.994071         128.823         36.3131         139.951 
         1.0064         125.677         35.2978         137.856 
        1.01868         124.397         34.3244         136.331 
        1.03092         122.336         33.3923         134.705 
         1.0432         120.175         32.4916         132.953 
        1.05553         117.624         31.6207         131.568 
        1.06777         117.417         30.7882         130.122 
           1.08         115.009         29.9867         128.376 
        1.09227         113.593         29.2112         126.995 
         1.1046         111.624         28.4603         125.422 
         1.1169         110.325         27.7373          123.73 
        1.12915         108.633         27.0431         122.438 
        1.14142         106.957         26.3713         120.887 
        1.15365         105.072         25.7244          119.57 
        1.16585         103.782          25.101         118.109 
        1.17807         102.149         24.4975         117.166 
        1.19037         101.922         23.9101         115.921 
        1.20276         99.6762         23.3379         114.523 
        1.21504         98.8955         22.7891         113.211 
        1.22728         96.7967         22.2602          112.01 
        1.23954         96.1014          21.747         110.834 
        1.25184         94.1018          21.249         109.718 
        1.26414          93.009         20.7664         108.611 
        1.27632         92.1613         20.3032         107.958 
         1.2886         90.5586         19.8509         106.363 
        1.30093         89.1058         19.4108         105.204 
        1.31316         88.4046         18.9873         104.316 
        1.32541         87.4015         18.5764         103.381 
        1.33772         86.1601         18.1754         102.305 
        1.35005         85.3215          17.786         101.246 
        1.36225         84.0953          17.412         100.289 
        1.37447         82.3062         17.0481          99.212 
        1.38676         82.2599          16.693         98.1264 
        1.39907         80.5472         16.3474            97.4 
        1.41133         79.2609          16.013         96.6328 
        1.42358         78.4179         15.6884         95.5019 
        1.43591         77.8556         15.3706         94.5785 
        1.44818         76.8013         15.0634         93.7069 
        1.46037          75.715         14.7663         92.9122 
        1.47263         74.5058         14.4757         92.1715 
        1.48494         73.9322         14.1918         91.2393 
        1.49724         72.6658         13.9158         90.2795 
        1.50952         71.9731         13.6476         89.4551 
        1.52178          71.086          13.387         88.7412 
        1.53409         70.5196         13.1321          87.968 
        1.54637         68.7867         12.8844         87.1187 
        1.55858         68.1903         12.6445          86.301 
        1.57081         67.5322         12.4103         85.6259 
        1.58313         66.4746         12.1807         84.8981 
        1.59544          65.706          11.957         84.0798 
        1.60767         65.0222         11.7404         83.3636 
        1.61994         64.1087         11.5284         82.7929 
        1.63225         63.1885         11.3211         81.8415 
        1.64452         62.5124         11.1196         81.2567 
        1.65676         61.5707         10.9236         80.4999 
          1.669         61.1655         10.7322         79.8629 
        1.68133         60.5133         10.5442         79.1354 
        1.69363         59.4759         10.3612         78.5702 
        1.70585         59.0881         10.1838         77.8544 
        1.71809         57.8328         10.0101         77.2956 
        1.73038         57.3204         9.83999         76.5577 
        1.74268         56.5696          9.6737         75.9521 
        1.75493         55.9911         9.51203         75.2865 
        1.76714         55.2834         9.35446         74.6425 
        1.77942         54.9702         9.19967         74.0517 
        1.79173         53.9946         9.04799         73.3726 
        1.80402         53.4715         8.90004         72.8689 
         1.8163         52.8031         8.75549         72.1758 
         1.8286         52.0156         8.61391         71.7339 
         1.8409         51.3258         8.47558         71.0414 
        1.85315         50.7401         8.34075           70.61 
        1.86537         50.1964         8.20912         69.9836 
        1.87765         49.6569         8.07985         69.3177 
        1.88995         49.0304         7.95306          68.796 
        1.90221         48.6336         7.82943         68.2415 
        1.91445         47.8724         7.70863          67.766 
        1.92674         47.3897         7.58997         67.1904 
        1.93902         46.8331          7.4738         66.6223 
        1.95124         46.4412         7.36068         66.2037 
         1.9635         45.6011         7.24962         65.5935 
        1.97583         45.1861         7.14015         65.1659 
        1.98812         44.4822         7.03335         64.5931 
        2.00039         44.2166         6.92896         64.0804 
        2.01264          43.471         6.82678         63.6224 
        2.02492         43.0941         6.72652          63.145 
        2.03717          42.472         6.62843          62.598 
        2.04942         41.9692         6.53244         62.1643 
        2.06171         41.5516         6.43801          61.614 
        2.07397         40.9485         6.34567         61.2131 
        2.08629         40.5277         6.25475         60.6933 
        2.09857         40.2035         6.16583         60.2914 
        2.11081         39.5496           6.079         59.7776 
        2.12309         39.1794         5.99364         59.3308 
        2.13538          38.708          5.9098         58.9161 
        2.14763         38.3604         5.82784         58.4672 
        2.15986         38.1406         5.74763         58.0026 
        2.17214         37.3901          5.6686         57.6526 
        2.18443         37.1917         5.59098         57.1405 
        2.19671         36.5492         5.51491          56.702 
        2.20898         36.1083         5.44035         56.2727 
        2.22126         35.8472         5.36708         55.8501 
        2.23354          35.384         5.29519         55.4978 
         2.2458         35.0951         5.22475         55.0662 
        2.25807         34.4973         5.15552         54.6304 
        2.27035         34.1598         5.08749         54.2453 
        2.28263         33.7433         5.02072         53.8559 
         2.2949         33.3902         4.95518         53.4709 
        2.30718         33.0837         4.89079         53.0768 
        2.31946         32.6786         4.82751         52.7005 
        2.33169         32.3913         4.76563         52.2933 
        2.34393         31.9133         4.70474         51.8927 
        2.35622          31.573         4.64472         51.5602 
        2.36847         31.2099         4.58591         51.1489 
        2.38076         30.9978         4.52794         50.8274 
        2.39305         30.6181           4.471         50.4651 
        2.40534         30.3124         4.41503         50.0316 
        2.41762         29.9193         4.36002         49.6931 
        2.42989         29.6106         4.30604         49.3659 
        2.44216         29.3224         4.25297         49.0068 
         2.4544         29.0221         4.20092         48.6761 
        2.46667         28.5612         4.14963          48.301 
        2.47897         28.3766         4.09906         47.9838 
        2.49124         28.1024         4.04948         47.6279 
        2.50349          27.746          4.0008         47.3295 
        2.51578         27.3835         3.95276         47.0002 
        2.52805         27.1783          3.9056         46.6449 
        2.54029         26.9999         3.85933         46.3299 
        2.55257         26.6641         3.81367         46.0114 
        2.56487         26.4484         3.76866         45.6899 
        2.57716          26.151         3.72444         45.3763 
        2.58942         25.8493         3.68103         45.0764 
        2.60167         25.5673         3.63835         44.7312 
        2.61395         25.3453         3.59629         44.4339 
        2.62624         25.0919         3.55483         44.1438 
        2.63849         24.9088         3.51415         43.8353 
        2.65073         24.6321         3.47416         43.5145 
        2.66302         24.3034         3.43465         43.2457 
         2.6753         24.1304         3.39577         42.9493 
        2.68756         23.9073         3.35758         42.6684 
        2.69983         23.7362         3.31995         42.3652 
        2.71213         23.4967         3.28281          42.089 
        2.72441         23.3244         3.24631         41.7831 
        2.73665         23.0566         3.21046         41.5067 
         2.7489          22.868         3.17516         41.2345 
        2.76118          22.703         3.14029           40.93 
        2.77349         22.5543         3.10586         40.6842 
        2.78576         22.3672         3.07208         40.4125 
        2.79802         22.0587         3.03882         40.1393 
        2.81031         21.9638         3.00597         39.8923 
        2.82259         21.8287         2.97363         39.6145 
        2.83483          21.585         2.94188         39.3409 
         2.8471         21.5195         2.91053         39.0798 
         2.8594         21.2922         2.87955         38.8368 
         2.8717         21.0914         2.84903         38.5718 
        2.88396         20.9394         2.81906         38.3075 
        2.89619         20.8834         2.78958         38.0644 
        2.90847         20.7115         2.76041         37.8102 
        2.92072         20.5354          2.7317         37.5843 
        2.93299         20.4796         2.70339          37.336 
        2.94526         20.3529         2.67546         37.0913 
        2.95753         20.2117         2.64793         36.8564 
        2.96982         20.1698         2.62073         36.6193 
        2.98209         19.9877         2.59398         36.3877 
        2.99436         19.9718         2.56758         36.1552 
        3.00666         19.8122          2.5415          35.917 
        3.01894         19.7575         2.51583         35.6746 
        3.03119         19.6038         2.49055         35.4417 
        3.04345         19.5832         2.46562         35.2258 
        3.05573         19.5016         2.44098         35.0071 
          3.068         19.4642         2.41671         34.7696 
        3.08026         19.4493         2.39279         34.5511 
        3.09254         19.3381         2.36914         34.3435 
        3.10483         19.3022         2.34582         34.1316 
         3.1171         19.2748         2.32284         33.9155 
        3.12933         19.2309         2.30023         33.6999 
        3.14159         19.1923         2.27787         33.4834 
