# k  (h/Mpc)    Pcb(k)  (Mpc/h)^3    Pcb_linear(k) (Mpc/h)^3    Pcb_NL(k) (Mpc/h)^3   ShotnoiseSubtracted = false
      0.0156606         7554.97         7569.89         7526.97 
      0.0273761          6533.5         6547.77          6516.1 
      0.0384619         4962.15         4933.97         4913.02 
      0.0498308            3869         3881.32          3862.7 
      0.0625568         3265.04         3298.87         3280.26 
      0.0751274         2860.79         2802.87         2774.57 
      0.0867833         2246.53         2256.68          2250.3 
      0.0984825         1848.46          1785.9         1798.89 
       0.111151         1558.08         1491.22         1504.65 
       0.123864         1399.61          1343.9          1355.2 
       0.135742         1262.72         1208.51         1220.13 
        0.14762         1080.02         1033.34         1061.68 
       0.160083         898.041         861.353         893.903 
       0.172465         797.816         751.799         791.989 
       0.184281         737.416         693.071         735.331 
       0.196406         674.625         640.051         674.214 
       0.209011         616.079         569.483         606.759 
       0.221538         553.292         497.675          549.75 
       0.233611         507.877         445.291         503.627 
       0.245665         474.342         410.987         463.279 
       0.258103         437.614         382.594         434.628 
       0.270422         404.893          351.56         403.117 
       0.282519         369.793          319.06         373.226 
       0.294636         363.215           290.7         347.764 
       0.306978         321.347         268.946         328.268 
       0.319417         308.153         251.449         308.414 
        0.33169         288.425         234.701         289.686 
       0.343948          275.26         217.464         275.154 
       0.356249         256.089         201.299         261.752 
       0.368458         247.162         187.759         245.764 
        0.38068         234.739         176.436          233.74 
       0.392856         219.134           166.1         223.457 
       0.405069         209.583         155.994         213.879 
       0.417459         199.587         146.208          202.38 
       0.429752         192.081         137.423          194.08 
       0.441978         184.914         129.713         187.402 
       0.454294         172.253         122.712         178.063 
        0.46658         172.464         116.142         172.029 
       0.478753         162.276         109.945         165.603 
       0.490964         157.294         104.124         159.285 
       0.503334         149.509         98.7502           153.9 
       0.515665         145.656         93.8506         149.863 
       0.527909         141.079         89.3275         143.325 
       0.540159         136.341         85.0482         139.087 
        0.55248         131.823         80.9877         134.286 
       0.564743         128.085         77.2279         130.718 
        0.57686         124.036         73.7724         126.398 
       0.589077         118.471         70.5105         123.295 
       0.601441          115.86         67.4088         119.942 
        0.61382         113.823         64.4843         116.236 
       0.626067         109.361         61.7553         113.244 
       0.638306         105.587         59.1855         110.407 
       0.650632         101.835         56.7507         106.523 
       0.662899         101.479         54.4691          104.08 
       0.675076          97.812         52.3308         101.533 
       0.687267         95.6708         50.3046         99.0685 
       0.699615         92.7114         48.3604         97.0404 
       0.711937         89.8838         46.5225         94.2658 
       0.724148         89.0873         44.7956          92.936 
       0.736433         85.4208         43.1479         90.4113 
       0.748747         83.8688         41.5807         88.4038 
       0.761037         81.9717          40.095         86.3034 
       0.773197         80.1875         38.6973         85.2277 
       0.785376          78.233         37.3647         83.0402 
       0.797761         77.4796         36.0742         81.7294 
       0.810096         74.7915         34.8497         79.8628 
       0.822371         73.3853         33.6881         78.2912 
       0.834626          71.682         32.5815         76.9749 
       0.846916         70.5822          31.522         75.5717 
       0.859215         69.0064         30.5093         74.0182 
       0.871383         68.0856         29.5514         72.7713 
        0.88363         66.2134         28.6291         71.7394 
       0.895928         64.8364         27.7429          70.452 
       0.908253         63.2808         26.8927          69.248 
       0.920535         62.9275         26.0812         68.1297 
       0.932774         61.6519         25.3061         66.9564 
        0.94508         60.7804         24.5588         65.7429 
       0.957324         59.2395         23.8455         64.8769 
        0.96953         59.1637         23.1628         63.7005 
       0.981769         57.2097         22.5053         62.9409 
       0.994071         56.5399         21.8702         62.0008 
         1.0064         55.3094         21.2587         61.0375 
        1.01868          54.458         20.6725         60.2088 
        1.03092         53.6223         20.1111         59.3074 
         1.0432         52.7056         19.5686         58.3455 
        1.05553          51.411         19.0441         57.8822 
        1.06777         50.9166         18.5428         56.9706 
           1.08          49.723           18.06         56.1458 
        1.09227         49.1412          17.593         55.3663 
         1.1046         48.4116         17.1408         54.6139 
         1.1169         47.8517         16.7053         53.8314 
        1.12915         47.0341         16.2872         53.2467 
        1.14142         46.1306         15.8826         52.5741 
        1.15365         45.4556          15.493         51.9652 
        1.16585         44.7672         15.1175         51.2205 
        1.17807         44.0445         14.7541         50.5588 
        1.19037         43.9114         14.4003         50.1066 
        1.20276         43.1409         14.0557         49.4824 
        1.21504         42.5463         13.7252         48.9304 
        1.22728         41.7354         13.4066         48.3484 
        1.23954         41.2694         13.0975         47.6756 
        1.25184         40.5685         12.7976         47.2418 
        1.26414         40.0016          12.507         46.6302 
        1.27632          39.678          12.228         46.1532 
         1.2886         39.2577         11.9556         45.6537 
        1.30093         38.5739         11.6905         45.0657 
        1.31316         37.9913         11.4355         44.6963 
        1.32541         37.7327          11.188         44.1888 
        1.33772         37.0062         10.9465         43.7248 
        1.35005         36.5854          10.712         43.2955 
        1.36225         35.9983         10.4867         42.8755 
        1.37447         35.1577         10.2675         42.3924 
        1.38676         35.2759         10.0536           42.02 
        1.39907         34.7062          9.8455         41.6339 
        1.41133         33.9976         9.64416         41.1952 
        1.42358         33.6565         9.44865         40.7652 
        1.43591         33.2536         9.25723          40.416 
        1.44818         32.9201         9.07219         39.9499 
        1.46037         32.4972         8.89331          39.587 
        1.47263         32.2612         8.71827         39.2721 
        1.48494         31.6366         8.54728         38.8568 
        1.49724         31.5532         8.38102         38.4964 
        1.50952         31.0578         8.21954         38.1864 
        1.52178         30.6013         8.06255         37.8178 
        1.53409         30.3505         7.90904         37.4851 
        1.54637         29.9557         7.75985         37.1061 
        1.55858         29.2706         7.61537         36.7893 
        1.57081         29.3603         7.47436          36.504 
        1.58313         28.9939         7.33605         36.1559 
        1.59544         28.4522         7.20133         35.8556 
        1.60767         28.1342         7.07086         35.5004 
        1.61994         27.7943         6.94317         35.2248 
        1.63225         27.6622         6.81837         34.9622 
        1.64452         27.2379           6.697         34.6682 
        1.65676         26.9573         6.57896         34.3537 
          1.669         26.6962         6.46368         34.1069 
        1.68133         26.3511         6.35044         33.7958 
        1.69363         25.9846         6.24024         33.4665 
        1.70585         25.7782         6.13337         33.2906 
        1.71809         25.3615         6.02879          32.943 
        1.73038         25.2312         5.92632          32.737 
        1.74268         24.9183         5.82617         32.4079 
        1.75493         24.6004          5.7288         32.1824 
        1.76714         24.4699          5.6339         31.9472 
        1.77942         24.1964         5.54067         31.6789 
        1.79173         23.7524         5.44932         31.4305 
        1.80402         23.5188         5.36022         31.2654 
         1.8163         23.4216         5.27316         30.8954 
         1.8286           23.01         5.18789         30.7178 
         1.8409         22.8117         5.10457         30.4875 
        1.85315         22.5882         5.02337         30.2731 
        1.86537         22.2831          4.9441         30.0433 
        1.87765         22.1554         4.86624         29.8091 
        1.88995          21.853         4.78988         29.5468 
        1.90221         21.6392         4.71542         29.3365 
        1.91445         21.3712         4.64267         29.1233 
        1.92674         21.1826          4.5712         28.9069 
        1.93902          20.932         4.50124         28.7229 
        1.95124         20.6237         4.43311         28.5613 
         1.9635         20.5032         4.36622          28.304 
        1.97583         20.2911         4.30029         28.1048 
        1.98812         20.1212         4.23597         27.9217 
        2.00039         19.9048         4.17309         27.7131 
        2.01264         19.6757         4.11156         27.5336 
        2.02492         19.5182         4.05117         27.3024 
        2.03717         19.2235          3.9921         27.1259 
        2.04942         19.0719         3.93428         26.9213 
        2.06171         18.9343         3.87741         26.7452 
        2.07397         18.7438          3.8218         26.5363 
        2.08629         18.5657         3.76704         26.3475 
        2.09857         18.3852         3.71348         26.1837 
        2.11081         18.1493         3.66119          26.001 
        2.12309         18.0231         3.60978         25.8195 
        2.13538         17.7984         3.55929         25.6474 
        2.14763         17.6257         3.50992         25.4763 
        2.15986         17.5153         3.46161         25.3118 
        2.17214         17.3097         3.41402         25.1452 
        2.18443         17.1402         3.36727         24.9578 
        2.19671         16.9661         3.32146         24.7814 
        2.20898         16.8034         3.27655         24.6185 
        2.22126         16.6751         3.23243         24.4678 
        2.23354         16.5887         3.18913         24.3026 
         2.2458         16.3785          3.1467         24.1677 
        2.25807         16.1733         3.10501         23.9627 
        2.27035         16.0493         3.06403         23.8235 
        2.28263         15.8848         3.02382         23.6686 
         2.2949         15.7991         2.98435         23.5266 
        2.30718         15.6553         2.94557         23.3782 
        2.31946         15.5303         2.90746         23.2133 
        2.33169         15.3647         2.87019         23.0636 
        2.34393         15.2249         2.83352         22.9353 
        2.35622         15.0236         2.79737         22.7812 
        2.36847         14.9202         2.76195         22.6249 
        2.38076         14.7607         2.72704         22.4977 
        2.39305         14.6612         2.69274         22.3509 
        2.40534          14.512         2.65903         22.1825 
        2.41762         14.3741          2.6259         22.0793 
        2.42989         14.2595         2.59339         21.9173 
        2.44216         14.1267         2.56143         21.7845 
         2.4544         14.1072         2.53009         21.6353 
        2.46667         13.9216         2.49919         21.5144 
        2.47897         13.7506         2.46874         21.3699 
        2.49124         13.6965         2.43888         21.2391 
        2.50349         13.5367         2.40956         21.0971 
        2.51578         13.4404         2.38063         20.9956 
        2.52805         13.3366         2.35222         20.8574 
        2.54029         13.2511         2.32435         20.7287 
        2.55257         13.1583         2.29685         20.5985 
        2.56487         12.9768         2.26975         20.4762 
        2.57716          12.905         2.24311         20.3336 
        2.58942           12.83         2.21697          20.234 
        2.60167         12.6739         2.19126         20.1101 
        2.61395         12.6657         2.16593         19.9859 
        2.62624         12.5562         2.14096         19.8628 
        2.63849         12.4253         2.11647         19.7616 
        2.65073         12.3314         2.09238         19.6297 
        2.66302         12.2594         2.06858         19.5228 
         2.6753          12.201         2.04517         19.3974 
        2.68756         12.1009         2.02217         19.2915 
        2.69983         12.0028          1.9995         19.1704 
        2.71213         11.9056         1.97714         19.0439 
        2.72441         11.8641         1.95515          18.943 
        2.73665         11.7886         1.93356         18.8317 
         2.7489          11.729          1.9123         18.7143 
        2.76118         11.6043          1.8913         18.6116 
        2.77349         11.5442         1.87056         18.5023 
        2.78576         11.4504         1.85022         18.4021 
        2.79802         11.4157         1.83019         18.2875 
        2.81031         11.3428          1.8104          18.178 
        2.82259          11.296         1.79092         18.0801 
        2.83483         11.2301          1.7718         17.9786 
         2.8471         11.1662         1.75292         17.8688 
         2.8594         11.1301         1.73426         17.7602 
         2.8717         11.0691         1.71588         17.6646 
        2.88396          10.997         1.69783         17.5631 
        2.89619         10.9623         1.68008         17.4604 
        2.90847          10.916         1.66251         17.3697 
        2.92072         10.8798         1.64522         17.2549 
        2.93299         10.7938         1.62817         17.1669 
        2.94526         10.7811         1.61134         17.0765 
        2.95753         10.7332         1.59476         16.9735 
        2.96982         10.6885         1.57839         16.8767 
        2.98209         10.6831         1.56227         16.7825 
        2.99436         10.6586         1.54637         16.6827 
        3.00666         10.6273         1.53066         16.5906 
        3.01894         10.6034         1.51521         16.5117 
        3.03119         10.5654         1.49998          16.414 
        3.04345         10.5015         1.48497           16.31 
        3.05573         10.5259         1.47013         16.2236 
          3.068         10.5053         1.45551         16.1421 
        3.08026         10.4823          1.4411         16.0393 
        3.09254         10.4856         1.42686         15.9584 
        3.10483         10.4765         1.41281         15.8804 
         3.1171         10.4986         1.39897         15.7873 
        3.12933         10.4717         1.38535         15.6987 
        3.14159         10.4375         1.37189         15.6092 
