# k  (h/Mpc)    Pcb(k)  (Mpc/h)^3    Pcb_linear(k) (Mpc/h)^3    Pcb_NL(k) (Mpc/h)^3   ShotnoiseSubtracted = false
      0.0156606          2749.6         2751.56         2737.98 
      0.0273761         2388.89         2380.98         2374.29 
      0.0384619         1815.31         1794.46         1792.16 
      0.0498308         1422.88         1411.75         1410.55 
      0.0625568         1200.53         1199.97         1197.81 
      0.0751274         1039.01         1019.58          1015.6 
      0.0867833         824.161         820.912         820.396 
      0.0984825          668.02         649.668         652.243 
       0.111151         559.588         542.475         544.976 
       0.123864         502.667         488.888         490.779 
       0.135742          451.66         439.638          441.51 
        0.14762         383.805         375.916         380.368 
       0.160083         318.705          313.35          318.43 
       0.172465          280.86         273.496         279.594 
       0.184281         260.369         252.132         258.606 
       0.196406         237.478         232.844         237.823 
       0.209011         214.034         207.173         212.826 
       0.221538         190.106          181.05         188.963 
       0.233611         171.358         161.993         170.784 
       0.245665         160.918         149.514         157.331 
       0.258103         145.063         139.185         146.968 
       0.270422         136.168         127.895         135.452 
       0.282519         123.551         116.072         124.143 
       0.294636         117.756         105.755         114.266 
       0.306978         104.199         97.8409         106.637 
       0.319417         99.4138         91.4757         99.9823 
        0.33169         92.4129         85.3828         93.6028 
       0.343948         87.7071         79.1122         87.4709 
       0.356249         80.4846         73.2315         82.3843 
       0.368458         76.7848         68.3059         76.7463 
        0.38068         71.9818         64.1866         72.5566 
       0.392856         67.2856         60.4264         68.8688 
       0.405069         63.6627         56.7497         64.9474 
       0.417459         59.5865         53.1896         61.4467 
       0.429752         57.0573         49.9938         58.2562 
       0.441978         54.3249         47.1889         55.7603 
       0.454294         50.5485         44.6418         52.7711 
        0.46658         50.0895          42.252          50.343 
       0.478753         46.5811         39.9974         48.1098 
       0.490964         44.9886         37.8796         46.1229 
       0.503334         43.0991         35.9249         43.9381 
       0.515665         40.9315         34.1424          42.448 
       0.527909         39.1653         32.4969         40.2184 
       0.540159         37.5278         30.9401         38.6699 
        0.55248         35.0882          29.463         37.0355 
       0.564743         34.6076         28.0952         35.8043 
        0.57686         33.4372         26.8381         34.4316 
       0.589077         31.4853         25.6514         33.3085 
       0.601441         30.3747          24.523         32.0896 
        0.61382         29.3125         23.4591         30.8157 
       0.626067         28.1287         22.4663         29.8553 
       0.638306         27.1924         21.5314         28.7566 
       0.650632         26.4377         20.6457         27.8346 
       0.662899         25.3046         19.8156         26.8632 
       0.675076         24.1474         19.0377         26.0001 
       0.687267         23.7846         18.3006         25.1472 
       0.699615         22.9685         17.5933         24.4396 
       0.711937         21.8064         16.9247         23.6385 
       0.724148         21.6847         16.2965         23.0293 
       0.736433         20.4253          15.697           22.29 
       0.748747         20.0495         15.1269         21.6741 
       0.761037         19.5469         14.5864          21.101 
       0.773197         18.8571         14.0779           20.55 
       0.785376          18.143         13.5931         19.9908 
       0.797761         17.7395         13.1236         19.4507 
       0.810096         17.3239         12.6782         18.9789 
       0.822371         16.8438         12.2556         18.4205 
       0.834626         16.3088          11.853           18.02 
       0.846916         15.8064         11.4676         17.5491 
       0.859215         15.2317         11.0992         17.1342 
       0.871383         14.9481         10.7507         16.7648 
        0.88363         14.5554         10.4151         16.3586 
       0.895928         14.2692         10.0927         15.9388 
       0.908253         13.8962         9.78345         15.6114 
       0.920535         13.4771         9.48822         15.2387 
       0.932774         13.2623         9.20626         14.8517 
        0.94508         12.8223          8.9344         14.5709 
       0.957324         12.5826         8.67489         14.2839 
        0.96953         12.1415         8.42654         13.9594 
       0.981769         12.0362         8.18732         13.6703 
       0.994071         11.7064         7.95631         13.3801 
         1.0064         11.3373         7.73384         13.1218 
        1.01868         11.1194         7.52058         12.8659 
        1.03092         10.9393         7.31634         12.5939 
         1.0432         10.5401         7.11899         12.3408 
        1.05553         10.3736         6.92818          12.148 
        1.06777         10.0696         6.74578         11.8849 
           1.08         9.89073         6.57016         11.6736 
        1.09227         9.68914         6.40025          11.461 
         1.1046         9.50818         6.23574         11.2288 
         1.1169         9.21182         6.07732         11.0272 
        1.12915         9.18824         5.92522         10.8757 
        1.14142         8.83283         5.77802         10.6548 
        1.15365         8.73223         5.63628         10.4678 
        1.16585         8.61899         5.49969         10.3164 
        1.17807         8.36382         5.36748          10.109 
        1.19037         8.21874         5.23876           9.954 
        1.20276         8.02078          5.1134         9.77861 
        1.21504         7.90657         4.99315          9.6371 
        1.22728         7.70277         4.87728         9.46401 
        1.23954         7.58595         4.76482         9.33574 
        1.25184         7.42585         4.65571         9.18168 
        1.26414         7.33191         4.54998         9.02151 
        1.27632         7.12513         4.44849         8.89333 
         1.2886          7.0427         4.34938         8.76121 
        1.30093         6.90064         4.25296         8.65744 
        1.31316         6.74639         4.16017         8.50718 
        1.32541         6.64756         4.07014         8.40504 
        1.33772         6.51913         3.98228         8.26097 
        1.35005         6.43458         3.89697          8.1547 
        1.36225         6.30458         3.81503         8.02298 
        1.37447         6.19368         3.73529         7.92703 
        1.38676         6.07784         3.65748         7.82046 
        1.39907         5.96589         3.58175         7.71226 
        1.41133         5.88028         3.50851         7.60604 
        1.42358         5.76227         3.43738         7.49859 
        1.43591         5.69933         3.36774         7.41545 
        1.44818         5.56014         3.30042         7.31357 
        1.46037         5.46813         3.23535         7.21412 
        1.47263          5.3901         3.17167         7.13073 
        1.48494         5.33097         3.10947         7.03046 
        1.49724         5.22666         3.04898         6.94693 
        1.50952         5.19772         2.99024         6.86422 
        1.52178         5.07575         2.93312         6.77811 
        1.53409         4.97783         2.87728         6.68601 
        1.54637         4.92072           2.823         6.60592 
        1.55858         4.85653         2.77044         6.52229 
        1.57081         4.75221         2.71914         6.46312 
        1.58313         4.69752         2.66883         6.37956 
        1.59544         4.61048         2.61981         6.31329 
        1.60767         4.56112         2.57235         6.23194 
        1.61994         4.48546          2.5259         6.17175 
        1.63225         4.40807          2.4805         6.09821 
        1.64452         4.33497         2.43634         6.02709 
        1.65676         4.27387          2.3934         5.96321 
          1.669         4.23643         2.35146         5.89825 
        1.68133         4.12905         2.31026          5.8333 
        1.69363         4.10964         2.27018           5.778 
        1.70585         4.04614          2.2313         5.70797 
        1.71809         4.00186         2.19325         5.65427 
        1.73038         3.94374         2.15597         5.59185 
        1.74268         3.87921         2.11954         5.53598 
        1.75493         3.82934         2.08411         5.47407 
        1.76714         3.79835         2.04959         5.41932 
        1.77942         3.73485         2.01567         5.36384 
        1.79173         3.68415         1.98244         5.30567 
        1.80402         3.63803         1.95003         5.25606 
         1.8163         3.60724         1.91835         5.21055 
         1.8286         3.54576         1.88733         5.16186 
         1.8409         3.48873         1.85702         5.11343 
        1.85315         3.45292         1.82748          5.0521 
        1.86537         3.42263         1.79864         5.01278 
        1.87765          3.3625         1.77032         4.96045 
        1.88995         3.31693         1.74254         4.91903 
        1.90221         3.27817         1.71545         4.86962 
        1.91445         3.24336         1.68898         4.83607 
        1.92674         3.21814         1.66299          4.7798 
        1.93902         3.16115         1.63753         4.73387 
        1.95124         3.12213         1.61275         4.69403 
         1.9635         3.10352         1.58841         4.65517 
        1.97583         3.04904         1.56443         4.61494 
        1.98812         3.00968         1.54103         4.57071 
        2.00039         2.97911         1.51816         4.53164 
        2.01264         2.94122         1.49577         4.49926 
        2.02492          2.9119          1.4738         4.45836 
        2.03717         2.87479         1.45231         4.41729 
        2.04942         2.83821         1.43128         4.38185 
        2.06171         2.80487         1.41059         4.34223 
        2.07397         2.77956         1.39035         4.30622 
        2.08629         2.75344         1.37043         4.27559 
        2.09857         2.71984         1.35095         4.23733 
        2.11081         2.68312         1.33193         4.20335 
        2.12309         2.66277         1.31322          4.1688 
        2.13538         2.62808         1.29485         4.13878 
        2.14763         2.61181          1.2769         4.10283 
        2.15986         2.58447         1.25932         4.07363 
        2.17214         2.54169         1.24201          4.0342 
        2.18443          2.5301           1.225          4.0044 
        2.19671         2.49427         1.20833         3.97416 
        2.20898         2.47131           1.192         3.94647 
        2.22126         2.45139         1.17594         3.91581 
        2.23354         2.42023         1.16019         3.88467 
         2.2458         2.40788         1.14476         3.85108 
        2.25807         2.37444         1.12959         3.82644 
        2.27035         2.34886         1.11468         3.80019 
        2.28263         2.32412         1.10005         3.77082 
         2.2949         2.30949         1.08569         3.74492 
        2.30718           2.285         1.07159         3.72027 
        2.31946         2.25968         1.05772         3.69258 
        2.33169         2.24118         1.04416         3.66426 
        2.34393         2.22983         1.03082         3.63813 
        2.35622         2.20426         1.01767         3.61167 
        2.36847         2.17923         1.00479         3.58498 
        2.38076         2.16227        0.992086         3.55905 
        2.39305         2.13959        0.979609         3.53214 
        2.40534         2.12134        0.967345         3.51086 
        2.41762         2.09687        0.955293         3.48948 
        2.42989         2.08464        0.943465         3.46279 
        2.44216         2.07055        0.931839         3.44113 
         2.4544         2.05019        0.920435         3.41892 
        2.46667         2.03266        0.909196         3.39562 
        2.47897         2.01734        0.898117         3.37179 
        2.49124         1.99634        0.887254         3.35011 
        2.50349         1.98425        0.876587         3.32745 
        2.51578         1.96361        0.866062         3.30274 
        2.52805         1.94575         0.85573         3.28278 
        2.54029         1.93667        0.845591          3.2617 
        2.55257         1.91805        0.835586         3.24081 
        2.56487         1.90432        0.825725         3.21912 
        2.57716         1.89699        0.816036         3.19869 
        2.58942         1.87698        0.806524         3.17884 
        2.60167         1.86484        0.797173         3.15729 
        2.61395         1.84202        0.787957         3.14027 
        2.62624         1.83789        0.778873         3.12026 
        2.63849         1.82432        0.769962         3.09888 
        2.65073         1.80861        0.761199         3.07992 
        2.66302         1.79537        0.752542         3.06226 
         2.6753         1.79472        0.744024         3.04345 
        2.68756         1.77158        0.735656         3.02528 
        2.69983         1.76059        0.727411         3.00551 
        2.71213         1.75416        0.719274         2.98773 
        2.72441         1.74197        0.711277         2.97005 
        2.73665         1.72769        0.703421         2.95395 
         2.7489         1.71756        0.695688         2.93834 
        2.76118         1.70811        0.688047         2.92069 
        2.77349         1.70518        0.680503         2.90308 
        2.78576         1.69505        0.673102         2.88558 
        2.79802         1.68687        0.665814         2.86879 
        2.81031         1.67113        0.658618         2.85138 
        2.82259         1.66431        0.651531         2.83466 
        2.83483         1.66006        0.644575         2.81977 
         2.8471         1.65128        0.637707         2.80363 
         2.8594         1.64223        0.630918         2.78845 
         2.8717         1.63508         0.62423         2.77286 
        2.88396         1.63169        0.617665         2.75643 
        2.89619         1.61853        0.611205         2.74075 
        2.90847         1.61479        0.604814         2.72452 
        2.92072         1.60978        0.598524         2.71079 
        2.93299         1.60873        0.592321         2.69603 
        2.94526         1.60142        0.586201          2.6818 
        2.95753         1.59297        0.580168         2.66705 
        2.96982         1.59122        0.574211         2.65213 
        2.98209         1.59037        0.568349         2.63892 
        2.99436         1.58359        0.562564         2.62479 
        3.00666         1.58628         0.55685         2.61105 
        3.01894         1.57945        0.551226         2.59559 
        3.03119         1.57942        0.545688          2.5821 
        3.04345         1.57626        0.540225         2.56991 
        3.05573         1.57447        0.534827         2.55687 
          3.068         1.57491        0.529508         2.54342 
        3.08026         1.57103        0.524266         2.52896 
        3.09254         1.57588        0.519086         2.51547 
        3.10483         1.57606        0.513975         2.50349 
         3.1171         1.57591         0.50894         2.49117 
        3.12933         1.57669        0.503986         2.47764 
        3.14159         1.57681        0.499088         2.46429 
