# k  (h/Mpc)    P(k)  (Mpc/h)^3    P_linear(k)  (Mpc/h)^3     P_NL(k)  ShotnoiseSubtracted = false
      0.0156606         23150.7         23309.4         23119.6 
      0.0273761         19795.2         20118.3           19886 
      0.0384619         14946.9         15142.6         14934.5 
      0.0498308         11528.9         11903.5         11693.6 
      0.0625568         9739.22         10112.1         9926.36 
      0.0751274         8682.45         8588.91         8328.84 
      0.0867833         6718.75         6913.76          6832.6 
      0.0984825         5692.92         5470.62         5540.42 
       0.111151         4877.78         4567.38         4656.23 
       0.123864         4368.79         4115.79         4187.43 
       0.135742         3988.58          3700.9          3772.5 
        0.14762         3477.55          3164.3          3353.2 
       0.160083         2965.29         2637.52         2871.84 
       0.172465         2644.74         2301.97         2600.65 
       0.184281         2392.48         2122.09         2420.52 
       0.196406         2266.73          1959.7         2231.94 
       0.209011         2126.27          1743.6         2024.99 
       0.221538         1913.09         1523.71         1894.96 
       0.233611         1840.73         1363.31         1779.24 
       0.245665         1666.76         1258.27         1644.88 
       0.258103         1657.95         1171.33         1554.31 
       0.270422         1479.15          1076.3         1462.18 
       0.282519          1401.6         976.798         1387.87 
       0.294636         1372.76         889.964         1316.44 
       0.306978         1259.16         823.362         1263.25 
       0.319417         1238.42         769.791         1191.64 
        0.33169         1163.29         718.514         1130.16 
       0.343948         1119.45         665.741         1096.36 
       0.356249         1064.06         616.251         1056.95 
       0.368458         1019.41         574.798         1012.34 
        0.38068          1006.9         540.136         975.166 
       0.392856         958.075         508.491         942.551 
       0.405069         907.398         477.548         911.425 
       0.417459         873.202         447.589         881.855 
       0.429752         873.027         420.696         851.422 
       0.441978         842.562         397.091          830.62 
       0.454294         807.164         375.657         797.682 
        0.46658         784.699         355.545         781.927 
       0.478753         771.287         336.572         759.112 
       0.490964         742.541          318.75         736.452 
       0.503334         711.989         302.302         720.972 
       0.515665         709.036         287.302         704.554 
       0.527909         679.371         273.455         690.837 
       0.540159         664.124         260.354         674.214 
        0.55248         650.716         247.924         657.141 
       0.564743         645.176         236.415           646.1 
        0.57686         625.487         225.836         629.546 
       0.589077         616.639          215.85         616.117 
       0.601441         600.655         206.355         604.604 
        0.61382         583.592         197.402          593.96 
       0.626067         578.314         189.048         583.479 
       0.638306         557.679         181.181         571.591 
       0.650632          552.68         173.727         558.836 
       0.662899         548.543         166.742         551.887 
       0.675076         532.292         160.197           544.9 
       0.687267         516.868         153.994          532.29 
       0.699615         516.656         148.042         523.903 
       0.711937         504.871         142.416         513.962 
       0.724148         489.249         137.129          507.48 
       0.736433          478.21         132.085         498.745 
       0.748747         472.406         127.287         490.152 
       0.761037         464.423         122.739         484.476 
       0.773197         456.844         118.461         476.254 
       0.785376         452.032         114.381         469.571 
       0.797761         438.691         110.431         463.046 
       0.810096         432.929         106.682         457.053 
       0.822371         422.765         103.126         449.768 
       0.834626          418.31         99.7388         444.778 
       0.846916         412.932         96.4955         437.835 
       0.859215         407.117         93.3953         431.391 
       0.871383         398.625         90.4629          425.84 
        0.88363         393.417         87.6396         421.577 
       0.895928         388.637         84.9267         415.128 
       0.908253         379.315          82.324         408.256 
       0.920535         370.975         79.8398         404.162 
       0.932774          366.28         77.4672         397.929 
        0.94508         360.843         75.1795         394.081 
       0.957324         356.387         72.9959         388.855 
        0.96953         352.072          70.906         384.169 
       0.981769         344.103         68.8931         379.882 
       0.994071          342.94         66.9492         375.334 
         1.0064         336.865         65.0772         369.901 
        1.01868           332.9         63.2827         365.273 
        1.03092         323.412         61.5641         362.114 
         1.0432         320.499         59.9035         357.745 
        1.05553         317.478         58.2979         352.799 
        1.06777         312.857          56.763         348.745 
           1.08         305.936         55.2852         344.932 
        1.09227          305.71         53.8555          340.82 
         1.1046         299.423         52.4712          337.68 
         1.1169         293.618         51.1382         333.246 
        1.12915         289.304         49.8583          329.75 
        1.14142         283.594         48.6197         325.954 
        1.15365         280.544          47.427         322.552 
        1.16585         276.129         46.2776         318.993 
        1.17807         273.532         45.1651         315.403 
        1.19037         268.307          44.082         312.743 
        1.20276         265.624         43.0271         308.687 
        1.21504         260.329         42.0153         305.212 
        1.22728         256.607         41.0403         302.085 
        1.23954         255.087          40.094         298.848 
        1.25184         249.307         39.1759         295.735 
        1.26414         244.654         38.2861         292.955 
        1.27632         242.233         37.4321         290.219 
         1.2886         239.809         36.5982         286.978 
        1.30093         234.926         35.7869         283.286 
        1.31316         230.145         35.0061         280.715 
        1.32541         229.054         34.2485         277.594 
        1.33772         224.772         33.5092         275.154 
        1.35005           222.3         32.7913         272.038 
        1.36225         218.217         32.1018         269.502 
        1.37447         214.748         31.4309         266.289 
        1.38676         212.802         30.7761         264.409 
        1.39907         209.773         30.1389          261.15 
        1.41133         205.809         29.5226         258.395 
        1.42358         203.301         28.9241         255.977 
        1.43591         200.601         28.3381         253.731 
        1.44818         196.828         27.7716         250.999 
        1.46037         195.344         27.2241         248.313 
        1.47263         191.667         26.6882         245.873 
        1.48494         190.321         26.1648         242.975 
        1.49724         186.721         25.6559         241.493 
        1.50952         183.669         25.1615         238.579 
        1.52178         181.309         24.6809          236.35 
        1.53409         178.406          24.211         234.107 
        1.54637         175.584         23.7543         232.178 
        1.55858         173.753          23.312         229.745 
        1.57081         170.844         22.8804         227.437 
        1.58313         168.788          22.457         225.139 
        1.59544         165.669         22.0446         223.144 
        1.60767         164.277         21.6452         221.171 
        1.61994         161.477         21.2543         218.893 
        1.63225         158.897         20.8723          216.69 
        1.64452         156.434         20.5007         214.776 
        1.65676          154.58         20.1394         212.956 
          1.669         152.771         19.7865         210.768 
        1.68133         149.815         19.4399         208.842 
        1.69363         147.306         19.1025         207.147 
        1.70585         145.122         18.7754          205.17 
        1.71809         143.262         18.4552         202.997 
        1.73038          141.31         18.1415         201.273 
        1.74268         140.132          17.835         199.309 
        1.75493         137.228         17.5369         197.714 
        1.76714         136.432         17.2464         195.962 
        1.77942         133.697          16.961         194.189 
        1.79173         131.917         16.6814         192.298 
        1.80402         129.993         16.4086         190.593 
         1.8163         127.833         16.1421         189.091 
         1.8286         126.041         15.8811         187.231 
         1.8409         124.431          15.626         185.498 
        1.85315         122.237         15.3774         183.969 
        1.86537         120.914         15.1348         182.401 
        1.87765         119.466         14.8964         180.836 
        1.88995         117.436         14.6627         179.107 
        1.90221          115.97         14.4348         177.718 
        1.91445           114.2          14.212         176.032 
        1.92674          112.35         13.9933         174.449 
        1.93902         111.088         13.7791         172.878 
        1.95124         109.569         13.5705         171.434 
         1.9635         107.803         13.3658         169.945 
        1.97583           106.2          13.164         168.415 
        1.98812         104.708         12.9671         167.256 
        2.00039         103.561         12.7746         165.627 
        2.01264          102.31         12.5862         164.261 
        2.02492         100.694         12.4014         162.751 
        2.03717         99.3178         12.2205         161.484 
        2.04942         98.0436         12.0435         160.078 
        2.06171         96.4233         11.8695         158.639 
        2.07397         95.1824         11.6992         157.455 
        2.08629         93.7787         11.5316         156.081 
        2.09857         92.7267         11.3676          154.84 
        2.11081          91.272         11.2076         153.413 
        2.12309         90.1302         11.0502         152.225 
        2.13538         88.6915         10.8956          150.91 
        2.14763         87.4159         10.7445         149.672 
        2.15986         86.5661         10.5966         148.334 
        2.17214         85.3408         10.4509         147.226 
        2.18443         84.3754         10.3078         146.138 
        2.19671         83.3054         10.1676         144.858 
        2.20898         82.1141         10.0301         143.557 
        2.22126         81.0004         9.89503         142.511 
        2.23354          79.967         9.76249         141.394 
         2.2458         78.4198         9.63261         140.168 
        2.25807         77.8016         9.50498         139.064 
        2.27035          76.678         9.37955         137.944 
        2.28263          75.746         9.25645         136.895 
         2.2949         74.3623         9.13562         135.813 
        2.30718         73.2994         9.01691         134.688 
        2.31946         72.5905         8.90025         133.539 
        2.33169         71.4744         8.78617         132.542 
        2.34393         70.7966          8.6739         131.623 
        2.35622         69.7065         8.56324         130.481 
        2.36847         68.8987         8.45482         129.567 
        2.38076          67.705         8.34795         128.458 
        2.39305         67.1187         8.24296         127.552 
        2.40534          66.061         8.13977         126.488 
        2.41762         65.4788         8.03836         125.494 
        2.42989         64.3906         7.93883         124.569 
        2.44216         63.8269           7.841         123.536 
         2.4544         62.9299         7.74504         122.656 
        2.46667         61.9507         7.65047          121.72 
        2.47897         61.4602         7.55724         120.701 
        2.49124          60.657         7.46584         119.797 
        2.50349         59.5866         7.37608         118.919 
        2.51578         59.2124         7.28752         118.096 
        2.52805         58.2257         7.20057         117.127 
        2.54029         57.6782         7.11526         116.246 
        2.55257         56.9747         7.03108          115.43 
        2.56487         56.5288         6.94809         114.569 
        2.57716         55.9076         6.86657         113.712 
        2.58942         55.0263         6.78653         112.881 
        2.60167          54.417         6.70785          112.07 
        2.61395         54.0117         6.63029         111.213 
        2.62624         53.1847         6.55386         110.335 
        2.63849           52.59         6.47887         109.579 
        2.65073         51.8638         6.40514         108.757 
        2.66302         51.4516         6.33229         107.984 
         2.6753         50.7171         6.26062         107.215 
        2.68756         50.3892         6.19021         106.407 
        2.69983          49.794         6.12083         105.641 
        2.71213         49.2304         6.05236         104.889 
        2.72441         48.7707         5.98507         104.118 
        2.73665         48.2186         5.91896         103.404 
         2.7489         47.7357         5.85389          102.68 
        2.76118         47.2921          5.7896         101.914 
        2.77349          46.814         5.72612         101.213 
        2.78576         46.3435         5.66384          100.48 
        2.79802         45.9479         5.60252         99.8271 
        2.81031          45.415         5.54197         99.1073 
        2.82259         44.9288         5.48233         98.3677 
        2.83483         44.4841          5.4238         97.7245 
         2.8471         44.0004         5.36601          97.018 
         2.8594         43.6139         5.30888         96.3369 
         2.8717         43.3212         5.25261         95.7132 
        2.88396         42.8728         5.19736         95.0487 
        2.89619         42.5661         5.14301         94.3525 
        2.90847         42.1535         5.08923         93.6624 
        2.92072         41.8076         5.03631         93.0899 
        2.93299          41.592         4.98411         92.4673 
        2.94526         41.2291         4.93261         91.8075 
        2.95753         40.9501         4.88185         91.1787 
        2.96982         40.5182         4.83172           90.58 
        2.98209         40.3034         4.78239         89.9618 
        2.99436         40.0892         4.73371         89.3265 
        3.00666         39.8631         4.68563          88.727 
        3.01894         39.6363         4.63831         88.1411 
        3.03119         39.3512         4.59171         87.5791 
        3.04345         39.0864         4.54575          87.005 
        3.05573         39.0743         4.50032         86.4137 
          3.068         38.7638         4.45556         85.8475 
        3.08026         38.5491         4.41146         85.2753 
        3.09254         38.5281         4.36787         84.7207 
        3.10483         38.4183         4.32487         84.1682 
         3.1171         38.2581          4.2825          83.605 
        3.12933         38.0168         4.24081         83.0498 
        3.14159         37.9931         4.19959         82.5014 
