# k  (h/Mpc)    P(k)  (Mpc/h)^3    P_linear(k)  (Mpc/h)^3     P_NL(k)  ShotnoiseSubtracted = false
      0.0156606         19675.1           19722         19572.7 
      0.0273761         16853.8         17023.4         16852.4 
      0.0384619         12741.1         12813.9         12664.7 
      0.0498308         9843.82         10073.3         9924.09 
      0.0625568          8311.7         8557.65         8424.05 
      0.0751274         7389.84         7268.78         7080.36 
      0.0867833         5730.05          5851.2         5793.76 
      0.0984825         4827.65         4629.91         4683.94 
       0.111151         4122.16         3865.52         3931.05 
       0.123864         3693.91         3483.35         3536.62 
       0.135742         3363.15         3132.24         3185.88 
        0.14762          2922.8          2678.1         2820.62 
       0.160083          2474.3         2232.27         2406.75 
       0.172465         2206.92         1948.29         2170.07 
       0.184281         2005.11         1796.05         2019.48 
       0.196406            1883         1658.62         1858.14 
       0.209011         1757.26         1475.72         1682.97 
       0.221538         1583.55         1289.62         1567.73 
       0.233611         1511.86         1153.86         1466.36 
       0.245665         1372.99         1064.96         1353.04 
       0.258103         1351.54         991.376         1276.77 
       0.270422         1206.94         910.952         1198.05 
       0.282519         1135.97         826.733         1131.41 
       0.294636         1118.88         753.241         1070.39 
       0.306978         1017.85         696.871         1024.57 
       0.319417         994.463         651.531         965.623 
        0.33169         935.762         608.131         913.395 
       0.343948         896.191         563.466         884.491 
       0.356249         847.494          521.58         850.885 
       0.368458         816.814         486.495         811.321 
        0.38068         799.979         457.158         779.555 
       0.392856         758.184         430.375          751.44 
       0.405069         721.187         404.185         727.842 
       0.417459         693.397         378.829         699.926 
       0.429752         685.883         356.068         675.328 
       0.441978         662.056         336.089         657.677 
       0.454294         631.404         317.948         630.431 
        0.46658         614.333         300.926         617.003 
       0.478753         601.071         284.867         597.755 
       0.490964         577.793         269.783         579.196 
       0.503334         551.282         255.862         565.669 
       0.515665         549.903         243.167         553.231 
       0.527909         527.809         231.447         540.532 
       0.540159         514.417         220.358         526.275 
        0.55248         504.304         209.837         512.456 
       0.564743         500.087         200.096          503.65 
        0.57686         481.903         191.143         490.006 
       0.589077         470.447         182.691         479.065 
       0.601441         462.209         174.655          469.31 
        0.61382         450.429         167.077         461.105 
       0.626067         444.893         160.006         452.011 
       0.638306         427.966         153.348         443.099 
       0.650632         423.411         147.039         431.775 
       0.662899         419.658         141.128         426.721 
       0.675076         404.588         135.587         420.173 
       0.687267         393.827         130.337         410.146 
       0.699615         390.517           125.3         403.637 
       0.711937         383.983         120.538          396.25 
       0.724148         371.072         116.064         390.625 
       0.736433         362.438         111.794         383.392 
       0.748747         357.751         107.734         376.468 
       0.761037         351.018         103.884         371.545 
       0.773197         346.533         100.263         365.846 
       0.785376         341.317         96.8101         360.283 
       0.797761         331.772         93.4664         354.604 
       0.810096         329.047         90.2939         350.155 
       0.822371         318.454         87.2841         344.395 
       0.834626         316.394         84.4171         340.017 
       0.846916         310.065          81.672         334.801 
       0.859215         308.749         79.0481         330.006 
       0.871383         300.938         76.5661         325.465 
        0.88363         298.818         74.1765         322.129 
       0.895928         293.096         71.8803         317.026 
       0.908253         285.694         69.6775          311.94 
       0.920535         282.307         67.5749          308.13 
       0.932774         276.091         65.5668         303.702 
        0.94508         272.433         63.6306         300.553 
       0.957324         270.902         61.7823         296.425 
        0.96953         266.989         60.0135         292.694 
       0.981769         259.721         58.3099         289.611 
       0.994071         258.746         56.6645         285.991 
         1.0064         253.266         55.0802         281.802 
        1.01868         250.349         53.5613         278.235 
        1.03092         243.313         52.1067         275.686 
         1.0432         240.179         50.7012          272.34 
        1.05553         237.263         49.3422         268.691 
        1.06777         235.723         48.0432         265.831 
           1.08         230.001         46.7924         262.758 
        1.09227         228.067         45.5823         259.646 
         1.1046          224.32         44.4106         257.095 
         1.1169         219.221         43.2824         253.603 
        1.12915         216.369         42.1991         251.261 
        1.14142         212.593         41.1508         248.117 
        1.15365         209.799         40.1413           245.5 
        1.16585         206.257         39.1685         242.548 
        1.17807         203.955         38.2269         240.333 
        1.19037         201.412         37.3102         238.159 
        1.20276         198.559         36.4174         235.076 
        1.21504         194.275          35.561         232.504 
        1.22728         191.092         34.7357         229.614 
        1.23954         190.268         33.9348         227.804 
        1.25184         186.331         33.1577          225.29 
        1.26414         182.828         32.4047         223.059 
        1.27632         181.976         31.6819          221.26 
         1.2886         180.424         30.9761         218.544 
        1.30093         175.377         30.2894         215.978 
        1.31316         172.218         29.6285          213.62 
        1.32541         171.026         28.9873         211.741 
        1.33772          168.99         28.3616         209.605 
        1.35005         166.409          27.754         207.254 
        1.36225         163.509         27.1704         205.338 
        1.37447         161.234         26.6025         202.828 
        1.38676         159.378         26.0483         201.246 
        1.39907         156.869          25.509         198.975 
        1.41133         154.193         24.9874         197.067 
        1.42358         152.356         24.4808         195.211 
        1.43591         150.528         23.9849         193.249 
        1.44818         148.022         23.5054         191.399 
        1.46037         146.266         23.0419         189.379 
        1.47263         144.054         22.5884         187.818 
        1.48494         142.072         22.1454         185.514 
        1.49724         140.058         21.7147         184.142 
        1.50952         137.485         21.2963         182.259 
        1.52178         136.751         20.8895          180.27 
        1.53409         133.805         20.4918         178.771 
        1.54637         132.202         20.1052         177.286 
        1.55858         130.092         19.7309         175.355 
        1.57081         128.134         19.3655         173.834 
        1.58313         126.423         19.0072         172.061 
        1.59544         124.295         18.6581         170.545 
        1.60767         123.305         18.3201         168.976 
        1.61994         121.012         17.9893         167.526 
        1.63225          119.48         17.6659          165.69 
        1.64452         117.317         17.3515         164.206 
        1.65676          115.65         17.0456         162.813 
          1.669         114.758         16.7469         161.386 
        1.68133          112.32         16.4535          159.91 
        1.69363         110.705          16.168         158.481 
        1.70585         108.787         15.8911         157.081 
        1.71809         107.482         15.6202         155.408 
        1.73038         106.676         15.3547         154.167 
        1.74268         105.508         15.0952         152.691 
        1.75493         102.828         14.8429         151.392 
        1.76714         102.144          14.597         150.146 
        1.77942         100.376         14.3555         148.629 
        1.79173         98.8736         14.1188         147.412 
        1.80402         98.0269         13.8879         146.111 
         1.8163         95.9344         13.6624         144.818 
         1.8286          94.703         13.4414         143.495 
         1.8409         94.0392         13.2256         142.172 
        1.85315         92.1754         13.0152         141.032 
        1.86537         91.2721         12.8098         139.862 
        1.87765         90.2637         12.6081         138.661 
        1.88995         88.6864         12.4102         137.417 
        1.90221         87.4779         12.2173         136.282 
        1.91445         86.4031         12.0288         134.991 
        1.92674         84.9591         11.8437         133.858 
        1.93902         83.8287         11.6624         132.659 
        1.95124         82.8779         11.4859         131.554 
         1.9635         81.5114         11.3126         130.374 
        1.97583         80.2765         11.1417         129.335 
        1.98812         79.2688         10.9751         128.302 
        2.00039         78.3226         10.8122         127.139 
        2.01264         77.3513         10.6527          126.09 
        2.02492         76.5013         10.4963         124.979 
        2.03717         75.1713         10.3432         123.944 
        2.04942          74.677         10.1934         122.986 
        2.06171          72.971         10.0461         121.917 
        2.07397         72.2046           9.902         120.945 
        2.08629         71.3481         9.76013         119.894 
        2.09857          70.289         9.62137         118.932 
        2.11081         69.1107         9.48588         117.832 
        2.12309         68.1731         9.35268         117.006 
        2.13538         67.3406         9.22185         115.978 
        2.14763         66.4797         9.09396         115.054 
        2.15986         65.4304         8.96879          114.05 
        2.17214         64.7756         8.84547         113.121 
        2.18443         63.9472         8.72436         112.363 
        2.19671         62.8064         8.60565           111.4 
        2.20898          62.311          8.4893         110.432 
        2.22126         61.3828         8.37498         109.565 
        2.23354         60.6887          8.2628         108.711 
         2.2458         59.6222         8.15287         107.853 
        2.25807         58.8908         8.04485         106.956 
        2.27035         58.1387         7.93869         106.082 
        2.28263         57.3567          7.8345         105.254 
         2.2949         56.5925         7.73223         104.431 
        2.30718         55.6667         7.63175         103.629 
        2.31946         55.3213         7.53302         102.751 
        2.33169          54.306         7.43645         101.969 
        2.34393         53.8237         7.34143          101.22 
        2.35622         52.8939         7.24777         100.411 
        2.36847         52.5027         7.15601          99.726 
        2.38076          51.593         7.06556         98.8173 
        2.39305         51.0141         6.97669         98.1488 
        2.40534         50.3964         6.88935         97.3403 
        2.41762         49.8138         6.80352         96.5459 
        2.42989         49.0677         6.71928         95.8727 
        2.44216         48.5507         6.63648         95.0813 
         2.4544          47.837         6.55526          94.374 
        2.46667          47.298         6.47522         93.6377 
        2.47897          46.778         6.39632          92.903 
        2.49124         46.2214         6.31895         92.2403 
        2.50349         45.8756         6.24298         91.5204 
        2.51578         45.0821         6.16802         90.9212 
        2.52805         44.5792         6.09444         90.1602 
        2.54029         44.1397         6.02223         89.4414 
        2.55257         43.5343         5.95098         88.8312 
        2.56487         43.2165         5.88074         88.2085 
        2.57716           42.54         5.81174         87.5476 
        2.58942          41.961           5.744         86.8801 
        2.60167         41.5818          5.6774         86.2505 
        2.61395         41.0221         5.61176         85.6216 
        2.62624         40.6289         5.54707         84.9331 
        2.63849         40.1163         5.48361         84.3326 
        2.65073         39.7675          5.4212         83.7135 
        2.66302         39.2566         5.35954         83.0835 
         2.6753         38.8458         5.29888         82.5076 
        2.68756         38.4304         5.23928         81.8862 
        2.69983         37.9736         5.18056         81.3308 
        2.71213         37.6114         5.12261         80.7502 
        2.72441         37.2316         5.06566         80.1552 
        2.73665         36.7141         5.00971         79.5908 
         2.7489         36.4408         4.95463         79.0273 
        2.76118         36.0387         4.90021          78.464 
        2.77349         35.6592         4.84649         77.9048 
        2.78576           35.36         4.79378          77.317 
        2.79802          35.011         4.74187         76.8494 
        2.81031         34.5684         4.69062         76.2835 
        2.82259         34.4598         4.64015         75.7178 
        2.83483         33.9838         4.59061         75.2329 
         2.8471         33.6817          4.5417         74.6919 
         2.8594         33.3921         4.49335         74.1485 
         2.8717         33.2397         4.44572         73.6601 
        2.88396         32.8288         4.39896         73.1398 
        2.89619         32.6806         4.35295          72.594 
        2.90847         32.2855         4.30743         72.0814 
        2.92072         32.1113         4.26264         71.6266 
        2.93299         31.9422         4.21846         71.1459 
        2.94526         31.5904         4.17487         70.6564 
        2.95753         31.3892         4.13191         70.1616 
        2.96982         31.1606         4.08948         69.6881 
        2.98209         30.9215         4.04773         69.2295 
        2.99436         30.6904         4.00653         68.7252 
        3.00666         30.6605         3.96584         68.2708 
        3.01894         30.3327         3.92579         67.8032 
        3.03119         30.2892         3.88634         67.3658 
        3.04345         30.1638         3.84744         66.9362 
        3.05573         29.8155         3.80899         66.4833 
          3.068         29.8197         3.77111         66.0382 
        3.08026         29.6414         3.73378         65.5936 
        3.09254         29.5747         3.69689          65.167 
        3.10483         29.5373         3.66049         64.7438 
         3.1171         29.3394         3.62463          64.313 
        3.12933         29.2611         3.58935          63.881 
        3.14159         29.1419         3.55446         63.4448 
