# k  (h/Mpc)    Pcb(k)  (Mpc/h)^3    Pcb_linear(k) (Mpc/h)^3    Pcb_NL(k) (Mpc/h)^3   ShotnoiseSubtracted = false
      0.0156606         4893.05         4899.24         4873.42 
      0.0273761         4241.32         4238.49          4222.8 
      0.0384619          3222.7         3194.11         3185.78 
      0.0498308         2519.36         2512.76         2506.23 
      0.0625568         2125.73         2135.75         2128.33 
      0.0751274         1851.73         1814.66         1802.64 
      0.0867833         1461.08         1461.05         1458.87 
      0.0984825         1193.28         1156.26         1162.84 
       0.111151         1002.44         965.478         972.075 
       0.123864         900.615         870.103         875.532 
       0.135742         810.775         782.447         787.996 
        0.14762         690.656         669.036         682.141 
       0.160083         573.424         557.684         572.562 
       0.172465         507.636         486.754         504.887 
       0.184281          470.31         448.731         467.965 
       0.196406         429.077         414.403         429.562 
       0.209011         389.221         368.714         385.583 
       0.221538         347.821         322.222         345.803 
       0.233611         316.015         288.305          314.62 
       0.245665         296.683         266.095         289.578 
       0.258103         269.435         247.712         271.105 
       0.270422         251.856         227.619         250.586 
       0.282519         228.997         206.577         230.835 
       0.294636         221.998         188.215         213.809 
       0.306978          195.89         174.131         200.687 
       0.319417         187.424         162.802         188.381 
        0.33169         174.668         151.959         176.669 
       0.343948         166.569         140.798         166.376 
       0.356249         153.896         130.332         157.606 
       0.368458         147.741         121.566         147.333 
        0.38068         139.448         114.235         139.715 
       0.392856         130.033         107.543         133.158 
       0.405069         123.598         100.999         126.418 
       0.417459         117.006         94.6632         119.651 
       0.429752         112.365         88.9755         114.151 
       0.441978         107.505         83.9836         109.821 
       0.454294             100         79.4504         104.072 
        0.46658         99.9581         75.1971         99.9387 
       0.478753         93.1888         71.1845         95.9532 
       0.490964          90.316         67.4155         92.1423 
       0.503334         86.4415         63.9365         88.4362 
       0.515665         83.0895         60.7642         85.8545 
       0.527909         79.9085         57.8357         81.5501 
       0.540159         77.0443         55.0651         78.9059 
        0.55248         72.9698         52.4361         75.8991 
       0.564743          71.521         50.0018         73.5836 
        0.57686         69.2955         47.7645         71.0461 
       0.589077         65.7329         45.6525         69.0117 
       0.601441         63.9414         43.6443         66.8366 
        0.61382         62.1212         41.7508         64.4715 
       0.626067         59.5408         39.9839         62.7303 
       0.638306         57.7662         38.3201         60.7524 
       0.650632         55.8571         36.7437         58.6758 
       0.662899         54.6321         35.2664         56.9949 
       0.675076         52.3886          33.882          55.435 
       0.687267         51.6491         32.5701         53.8807 
       0.699615         49.8033         31.3113         52.6855 
       0.711937         47.7957         30.1213         50.9129 
       0.724148         47.5526         29.0033         50.0185 
       0.736433         44.9849         27.9364         48.5454 
       0.748747         44.4035         26.9217         47.3157 
       0.761037         43.1703         25.9598         46.2064 
       0.773197         42.1524         25.0549          45.311 
       0.785376         40.6662          24.192         44.1375 
       0.797761         40.1636         23.3565         43.2456 
       0.810096         39.1432         22.5637         42.1866 
       0.822371         38.2295         21.8116         41.1589 
       0.834626         37.1657         21.0951         40.4578 
       0.846916         36.2687         20.4092         39.5326 
       0.859215         35.1509         19.7535         38.6667 
       0.871383         34.6639         19.1333         37.9662 
        0.88363         33.7865         18.5361         37.2856 
       0.895928         33.0188         17.9623         36.4147 
       0.908253         32.3453         17.4119         35.8332 
       0.920535         31.7636         16.8865         35.0951 
       0.932774         31.2175         16.3846         34.4303 
        0.94508         30.5492         15.9008         33.7271 
       0.957324         29.8975          15.439         33.1703 
        0.96953         29.2722         14.9969         32.5206 
       0.981769         28.7145         14.5712         32.0453 
       0.994071         28.0774         14.1601         31.4598 
         1.0064         27.4544         13.7641         30.9314 
        1.01868         26.8968         13.3846         30.4496 
        1.03092         26.6864         13.0211         29.9047 
         1.0432         25.9671         12.6699         29.3386 
        1.05553         25.4832         12.3303         29.0659 
        1.06777         24.8312         12.0057         28.4588 
           1.08         24.3184         11.6931         28.0206 
        1.09227         23.9966         11.3907          27.674 
         1.1046         23.6471         11.0979         27.1761 
         1.1169         23.2371          10.816         26.7791 
        1.12915         22.9766         10.5453         26.4047 
        1.14142         22.2815         10.2833         25.9974 
        1.15365         22.0886         10.0311         25.6411 
        1.16585         21.8021         9.78796          25.302 
        1.17807         21.2859         9.55265         24.8497 
        1.19037         21.0992         9.32357         24.6389 
        1.20276         20.7799         9.10046         24.2502 
        1.21504         20.3691         8.88646           23.98 
        1.22728          19.967         8.68023         23.6237 
        1.23954         19.7161         8.48009         23.2823 
        1.25184         19.3444          8.2859         23.0117 
        1.26414         19.1093         8.09772         22.6828 
        1.27632         18.8311         7.91709         22.3933 
         1.2886         18.6259         7.74072         22.1391 
        1.30093         18.1785         7.56912          21.908 
        1.31316         17.9836         7.40397         21.5975 
        1.32541         17.7633         7.24374         21.3845 
        1.33772         17.4394         7.08738         21.1162 
        1.35005         17.2168         6.93554         20.8908 
        1.36225         16.9798         6.78971         20.6324 
        1.37447         16.6414          6.6478         20.3742 
        1.38676         16.4539         6.50931         20.1725 
        1.39907         16.2019         6.37454         19.9416 
        1.41133         15.9616         6.24418          19.709 
        1.42358          15.764          6.1176          19.479 
        1.43591         15.5283         5.99367         19.3104 
        1.44818           15.31         5.87386         19.1054 
        1.46037         15.2229         5.75804          18.858 
        1.47263          14.937         5.64471          18.711 
        1.48494          14.822           5.534         18.4676 
        1.49724         14.6007         5.42636         18.3146 
        1.50952         14.3969          5.3218         18.1427 
        1.52178          14.209         5.22016         17.9252 
        1.53409         13.9485         5.12077         17.7519 
        1.54637         13.9206         5.02418         17.5406 
        1.55858         13.6873         4.93063         17.3943 
        1.57081         13.4648         4.83933         17.2403 
        1.58313         13.3661         4.74979         17.0687 
        1.59544         13.1351         4.66256         16.9204 
        1.60767         13.0084         4.57808         16.7373 
        1.61994         12.7782         4.49541         16.5998 
        1.63225         12.7146         4.41461         16.4664 
        1.64452         12.5433         4.33602         16.3226 
        1.65676         12.3784          4.2596         16.1486 
          1.669         12.2769         4.18496         16.0003 
        1.68133         12.0396         4.11164          15.853 
        1.69363         11.9047          4.0403          15.683 
        1.70585         11.7682          3.9711          15.595 
        1.71809         11.6482         3.90339         15.4487 
        1.73038         11.5219         3.83704         15.3308 
        1.74268         11.4092          3.7722         15.1773 
        1.75493         11.2094         3.70915         15.0436 
        1.76714         11.2208         3.64771         14.9278 
        1.77942         11.0738         3.58735         14.7803 
        1.79173         10.8528          3.5282         14.6791 
        1.80402         10.7941         3.47051         14.5648 
         1.8163         10.6672         3.41415         14.4432 
         1.8286         10.5099         3.35894          14.331 
         1.8409          10.411           3.305         14.2159 
        1.85315         10.3049         3.25242         14.0916 
        1.86537         10.2116         3.20109         13.9892 
        1.87765         10.1214         3.15069         13.8781 
        1.88995         9.93833         3.10124         13.7741 
        1.90221         9.90143         3.05304          13.646 
        1.91445         9.77389         3.00593         13.5634 
        1.92674         9.66786         2.95966         13.4475 
        1.93902         9.58282         2.91436         13.3663 
        1.95124         9.45985         2.87025         13.2618 
         1.9635         9.36789         2.82694          13.153 
        1.97583         9.28952         2.78426         13.0368 
        1.98812         9.21483         2.74261         12.9405 
        2.00039         9.12891          2.7019         12.8626 
        2.01264         9.03631         2.66206         12.7746 
        2.02492         8.96092         2.62296         12.6653 
        2.03717         8.82303         2.58472         12.5782 
        2.04942         8.72845         2.54728         12.4885 
        2.06171         8.70358         2.51046         12.4027 
        2.07397         8.59329         2.47445         12.3206 
        2.08629         8.51687           2.439         12.2409 
        2.09857         8.43878         2.40432         12.1458 
        2.11081         8.36735         2.37047         12.0774 
        2.12309         8.25734         2.33718         11.9695 
        2.13538         8.18682         2.30449          11.895 
        2.14763         8.10401         2.27253         11.8174 
        2.15986         8.06858         2.24125         11.7455 
        2.17214         7.99058         2.21043         11.6457 
        2.18443         7.88803         2.18017         11.5807 
        2.19671          7.8614          2.1505         11.5029 
        2.20898         7.74562         2.12143         11.4301 
        2.22126           7.667         2.09286           11.35 
        2.23354         7.63414         2.06483         11.2669 
         2.2458          7.5442         2.03736         11.2068 
        2.25807         7.48336         2.01036          11.122 
        2.27035         7.42647         1.98383          11.055 
        2.28263         7.36476          1.9578         10.9796 
         2.2949         7.28086         1.93224         10.9155 
        2.30718         7.22659         1.90713         10.8591 
        2.31946         7.17481         1.88246         10.7853 
        2.33169         7.11137         1.85833         10.7189 
        2.34393         7.06277         1.83458         10.6454 
        2.35622         7.01269         1.81118         10.5831 
        2.36847         6.94829         1.78825         10.5149 
        2.38076         6.88962         1.76564         10.4519 
        2.39305         6.80483         1.74344         10.3771 
        2.40534         6.76929         1.72161         10.3103 
        2.41762         6.72012         1.70016         10.2643 
        2.42989         6.68118         1.67911         10.2026 
        2.44216         6.62474         1.65842         10.1328 
         2.4544         6.56192         1.63812         10.0741 
        2.46667         6.55155         1.61812         10.0147 
        2.47897         6.49371          1.5984         9.94523 
        2.49124         6.41828         1.57907         9.88816 
        2.50349         6.38686         1.56009         9.83961 
        2.51578         6.33035         1.54135         9.78462 
        2.52805         6.29691         1.52297          9.7276 
        2.54029         6.23727         1.50492         9.67205 
        2.55257         6.22596         1.48712         9.61459 
        2.56487         6.15632         1.46956         9.54947 
        2.57716         6.11792         1.45232         9.50268 
        2.58942         6.09515         1.43539         9.44974 
        2.60167         6.04922         1.41875         9.39286 
        2.61395         5.99244         1.40235         9.34216 
        2.62624         5.97556         1.38618         9.28816 
        2.63849         5.95321         1.37032         9.23791 
        2.65073         5.89967         1.35473         9.17992 
        2.66302         5.86538         1.33932         9.12616 
         2.6753         5.82581         1.32416         9.07638 
        2.68756         5.79817         1.30927         9.03458 
        2.69983         5.76096         1.29459         8.97516 
        2.71213         5.72559         1.28011          8.9254 
        2.72441         5.69037         1.26588         8.87891 
        2.73665         5.67699          1.2519         8.82556 
         2.7489         5.65511         1.23813         8.77968 
        2.76118         5.60314         1.22454         8.74037 
        2.77349         5.58167         1.21111         8.68696 
        2.78576         5.56456         1.19794         8.64089 
        2.79802         5.52561         1.18497          8.5943 
        2.81031         5.50826         1.17216          8.5517 
        2.82259         5.47511         1.15955         8.50587 
        2.83483         5.46156         1.14717         8.45812 
         2.8471         5.44324         1.13494         8.41745 
         2.8594         5.43525         1.12286           8.374 
         2.8717         5.39153         1.11096         8.32263 
        2.88396         5.37456         1.09927          8.2816 
        2.89619         5.34169         1.08778         8.24435 
        2.90847         5.34039          1.0764         8.19471 
        2.92072         5.34066         1.06521         8.15107 
        2.93299         5.33135         1.05417         8.11521 
        2.94526         5.31057         1.04328         8.06952 
        2.95753         5.29335         1.03254         8.02573 
        2.96982         5.27248         1.02194         7.98719 
        2.98209         5.26613         1.01151         7.94082 
        2.99436         5.26005         1.00121         7.90173 
        3.00666         5.26973         0.99104         7.86588 
        3.01894         5.24211        0.981032         7.82078 
        3.03119         5.24669        0.971175         7.78216 
        3.04345         5.24131        0.961454         7.74416 
        3.05573          5.2325        0.951846         7.70208 
          3.068         5.22605        0.942379         7.66685 
        3.08026         5.25074        0.933051         7.63035 
        3.09254         5.24349        0.923832         7.58958 
        3.10483         5.23634        0.914736         7.55431 
         3.1171         5.24654        0.905775         7.51929 
        3.12933         5.25133        0.896958         7.47748 
        3.14159         5.23975         0.88824         7.44132 
