# k  (h/Mpc)    P(k)  (Mpc/h)^3    P_linear(k)  (Mpc/h)^3     P_NL(k)  ShotnoiseSubtracted = false
      0.0156606         14503.7         14739.2         14639.4 
      0.0273761         12462.3         12724.4         12623.6 
      0.0384619         9438.81         9578.81         9496.08 
      0.0498308         7316.38         7530.69         7449.78 
      0.0625568         6175.71         6397.97         6323.89 
      0.0751274         5464.68         5434.58         5328.42 
      0.0867833         4255.05         4374.83          4344.5 
      0.0984825         3553.78         3461.77         3496.84 
       0.111151         3019.28         2890.28            2930 
       0.123864         2708.97         2604.57         2637.38 
       0.135742         2456.83         2342.05         2375.49 
        0.14762         2123.11          2002.5         2090.09 
       0.160083         1781.31         1669.15         1773.88 
       0.172465         1588.34         1456.82          1588.9 
       0.184281         1454.15         1342.99         1478.08 
       0.196406          1348.8         1240.23          1356.6 
       0.209011         1248.95         1103.47         1225.98 
       0.221538         1126.83         964.315         1132.27 
       0.233611         1060.54         862.804         1051.74 
       0.245665          972.23         796.329         968.466 
       0.258103          936.18         741.309         912.051 
       0.270422         843.976         681.172         852.355 
       0.282519         784.674         618.198         798.658 
       0.294636         777.358         563.244         752.049 
       0.306978         698.277         521.093         716.797 
       0.319417          676.04          487.19         674.678 
        0.33169         637.103         454.738         636.086 
       0.343948         607.434          421.34         613.142 
       0.356249          571.01         390.019         587.704 
       0.368458         553.872         363.784         556.812 
        0.38068          534.64         341.847          533.04 
       0.392856         503.701          321.82         512.029 
       0.405069         482.637         302.236         495.911 
       0.417459         462.669         283.276         472.594 
       0.429752         450.337         266.256          455.45 
       0.441978         435.612         251.317          442.27 
       0.454294          411.61         237.751         422.883 
        0.46658         404.861         225.023         412.377 
       0.478753         391.628         213.015         398.429 
       0.490964         377.662         201.735         385.157 
       0.503334         356.866         191.326         374.835 
       0.515665         355.296         181.833          366.62 
       0.527909         343.006         173.069         355.886 
       0.540159         334.277         164.777         345.815 
        0.55248           327.8          156.91         336.178 
       0.564743         322.133         149.626         329.661 
        0.57686         309.818         142.931         319.919 
       0.589077         298.743         136.611         312.909 
       0.601441          295.51         130.601          305.69 
        0.61382         290.882         124.935         299.456 
       0.626067         285.478         119.648         292.785 
       0.638306          272.67         114.669         287.179 
       0.650632         267.492         109.952         278.691 
       0.662899         265.869         105.531         274.928 
       0.675076         255.749         101.388         269.414 
       0.687267         249.415         97.4626         263.285 
       0.699615         245.419         93.6957          258.56 
       0.711937         241.093         90.1348         253.852 
       0.724148         234.601         86.7891         250.025 
       0.736433         229.595         83.5967         244.767 
       0.748747         225.452         80.5602         240.033 
       0.761037         221.733         77.6818         235.938 
       0.773197          218.35         74.9738         232.924 
       0.785376         215.615         72.3918          228.42 
       0.797761         210.516         69.8915         225.236 
       0.810096         207.424         67.5192         221.708 
       0.822371         199.678         65.2686         218.023 
       0.834626         198.935         63.1247         214.601 
       0.846916         195.325          61.072         211.485 
       0.859215         194.702         59.1099         208.352 
       0.871383         189.671          57.254         205.015 
        0.88363         187.746         55.4671         202.854 
       0.895928         183.507         53.7501         199.767 
       0.908253           178.5         52.1029         196.351 
       0.920535         177.966         50.5306         193.729 
       0.932774         172.054          49.029         190.942 
        0.94508         170.663         47.5811           188.9 
       0.957324         170.167         46.1991         186.033 
        0.96953         168.055         44.8764         183.237 
       0.981769         162.866         43.6025         181.591 
       0.994071         162.146         42.3722         179.166 
         1.0064          158.29         41.1874         176.434 
        1.01868           156.3         40.0516         174.492 
        1.03092         153.812          38.964         172.554 
         1.0432          150.86         37.9129         170.376 
        1.05553         148.302         36.8968         168.411 
        1.06777         148.145         35.9254         166.685 
           1.08         144.651         34.9901         164.469 
        1.09227         143.086         34.0852         162.824 
         1.1046         140.754         33.2091          160.92 
         1.1169         138.921         32.3654         158.739 
        1.12915         136.725         31.5554         157.168 
        1.14142         134.621         30.7714         155.127 
        1.15365         132.824         30.0166         153.494 
        1.16585         130.976         29.2892         151.513 
        1.17807         129.091          28.585          150.43 
        1.19037         128.501         27.8995         148.837 
        1.20276         125.882         27.2319         147.023 
        1.21504         124.398         26.5915         145.428 
        1.22728         121.944         25.9744           143.7 
        1.23954         121.242         25.3755         142.466 
        1.25184         118.743         24.7944         140.886 
        1.26414         117.213         24.2313         139.424 
        1.27632         116.586         23.6908         138.697 
         1.2886         114.429         23.1631         136.666 
        1.30093         111.756         22.6496         135.211 
        1.31316         111.423         22.1554         133.834 
        1.32541         109.802         21.6759         132.801 
        1.33772          108.62          21.208         131.376 
        1.35005         107.285         20.7537         129.933 
        1.36225         105.966         20.3173          128.77 
        1.37447         103.894         19.8926         127.361 
        1.38676         103.392         19.4782         126.018 
        1.39907         101.064         19.0749         124.946 
        1.41133         99.7446         18.6849         123.932 
        1.42358         98.4743         18.3061         122.678 
        1.43591         97.8592         17.9352         121.328 
        1.44818         96.7835         17.5767          120.33 
        1.46037         94.9958         17.2301         119.144 
        1.47263         93.6712          16.891         118.239 
        1.48494         92.9182         16.5597         116.976 
        1.49724         91.4116         16.2376         115.757 
        1.50952         90.0139         15.9248         114.753 
        1.52178         89.2248         15.6206         113.725 
        1.53409          88.279         15.3232         112.732 
        1.54637         86.4466         15.0342         111.703 
        1.55858         85.5192         14.7542         110.638 
        1.57081         84.3338          14.481         109.687 
        1.58313         83.3176         14.2131         108.694 
        1.59544         82.4399         13.9521         107.715 
        1.60767         81.2276         13.6993         106.708 
        1.61994         80.1809         13.4519         106.025 
        1.63225         78.9992         13.2101         104.741 
        1.64452         77.9713         12.9749         103.924 
        1.65676         76.8808         12.7463         103.034 
          1.669          76.354         12.5229         102.203 
        1.68133         75.3963         12.3035         101.239 
        1.69363         74.4182           12.09         100.454 
        1.70585         73.5341          11.883         99.5101 
        1.71809         72.2486         11.6803         98.7578 
        1.73038         71.5007         11.4818         97.8009 
        1.74268         70.4024         11.2878         97.0089 
        1.75493         69.8462         11.0991         96.1328 
        1.76714         68.6948         10.9153         95.3381 
        1.77942         68.2885         10.7346         94.5016 
        1.79173         67.1132         10.5577         93.7007 
        1.80402         66.3932          10.385         92.9944 
         1.8163         65.5844         10.2164         92.0572 
         1.8286         64.6368         10.0512          91.423 
         1.8409         63.7235         9.88974         90.6095 
        1.85315         62.8379         9.73241         89.9621 
        1.86537         62.2347         9.57883         89.1549 
        1.87765         61.4932         9.42799         88.3009 
        1.88995         60.6689         9.28004         87.6744 
        1.90221         60.0483         9.13578         86.9301 
        1.91445         58.9718         8.99483          86.248 
        1.92674         58.4726         8.85637          85.549 
        1.93902         57.7561         8.72081          84.786 
        1.95124         57.3235         8.58882         84.2193 
         1.9635         56.2353         8.45923         83.3879 
        1.97583         55.7144         8.33149          82.845 
        1.98812         55.0272         8.20688         82.1026 
        2.00039         54.2651         8.08506           81.45 
        2.01264         53.6237         7.96584         80.7875 
        2.02492         52.9238         7.84884         80.1734 
        2.03717         52.2279          7.7344         79.4603 
        2.04942         51.5871         7.62238         78.9181 
        2.06171         50.9134          7.5122          78.225 
        2.07397         50.2781         7.40445         77.6727 
        2.08629         49.7598         7.29836         76.9904 
        2.09857         49.2634          7.1946         76.4303 
        2.11081         48.1968         7.09329         75.7581 
        2.12309         47.9161         6.99369         75.2196 
        2.13538         47.3076         6.89585         74.6187 
        2.14763         46.8231         6.80022         74.0466 
        2.15986         46.1865         6.70662         73.4552 
        2.17214         45.5351         6.61441         72.9356 
        2.18443         45.2663         6.52384         72.3528 
        2.19671         44.4218         6.43508          71.749 
        2.20898         44.1031         6.34807         71.2015 
        2.22126         43.5246         6.26258         70.6303 
        2.23354         42.9498          6.1787         70.1426 
         2.2458         42.5518          6.0965         69.6183 
        2.25807         42.1205         6.01572         69.0342 
        2.27035         41.5423         5.93634         68.5163 
        2.28263         40.9822         5.85843         67.9856 
         2.2949         40.4653         5.78195         67.4904 
        2.30718         40.0624         5.70682         67.0004 
        2.31946         39.4909         5.63299         66.5162 
        2.33169         39.0778         5.56078         65.9934 
        2.34393         38.4735         5.48973         65.4914 
        2.35622         38.2009         5.41969         65.0003 
        2.36847          37.716         5.35107         64.5275 
        2.38076         37.4021         5.28343         64.0458 
        2.39305         36.9276         5.21698         63.5802 
        2.40534         36.5437         5.15167         63.0496 
        2.41762         36.1255         5.08749         62.5776 
        2.42989         35.5636          5.0245         62.1703 
        2.44216         35.3413         4.96258         61.6929 
         2.4544         34.9897         4.90185         61.2485 
        2.46667         34.4245         4.84199         60.7595 
        2.47897         34.1248         4.78299         60.3378 
        2.49124         33.6872         4.72514          59.899 
        2.50349         33.2818         4.66833         59.4717 
        2.51578         32.9332         4.61228         59.0621 
        2.52805         32.7999         4.55726         58.6095 
        2.54029         32.3752         4.50326          58.187 
        2.55257         31.9492         4.44998         57.7822 
        2.56487         31.6209         4.39746         57.3757 
        2.57716         31.3088         4.34586         56.9935 
        2.58942         30.9216         4.29521         56.5625 
        2.60167         30.5283         4.24541         56.1298 
        2.61395          30.305         4.19633         55.7518 
        2.62624         30.0602         4.14795         55.3549 
        2.63849         29.7575         4.10049         54.9673 
        2.65073         29.4128         4.05383         54.5519 
        2.66302         29.1265         4.00772         54.1897 
         2.6753         28.8007         3.96236         53.8122 
        2.68756         28.4526         3.91779         53.4177 
        2.69983         28.2347         3.87388         53.0614 
        2.71213         27.8773         3.83055         52.7067 
        2.72441          27.767         3.78796         52.3147 
        2.73665         27.4753         3.74612         51.9505 
         2.7489         27.2805         3.70494         51.5989 
        2.76118         26.9746         3.66425         51.2323 
        2.77349         26.7582         3.62407         50.8969 
        2.78576         26.5716         3.58466         50.5318 
        2.79802         26.2458         3.54585         50.1905 
        2.81031         26.0308         3.50752         49.8591 
        2.82259         25.8169         3.46978         49.4995 
        2.83483         25.5724         3.43273         49.1603 
         2.8471          25.367         3.39616         48.8358 
         2.8594         25.1565            3.36         48.5219 
         2.8717         24.8903         3.32439         48.1836 
        2.88396         24.7896         3.28942         47.8386 
        2.89619         24.6009         3.25502         47.5207 
        2.90847         24.3987         3.22098         47.2052 
        2.92072          24.293         3.18749         46.8908 
        2.93299         24.1696         3.15445         46.5655 
        2.94526         23.9422         3.12186         46.2699 
        2.95753         23.7764         3.08973         45.9778 
        2.96982         23.7559         3.05801         45.6671 
        2.98209         23.5374         3.02679         45.3654 
        2.99436         23.3599         2.99598         45.0615 
        3.00666         23.3144         2.96555         44.7648 
        3.01894         23.1918          2.9356         44.4531 
        3.03119         23.0208          2.9061         44.1623 
        3.04345         22.9214         2.87701         43.8877 
        3.05573         22.8519         2.84826         43.6046 
          3.068         22.7939         2.81994         43.3162 
        3.08026         22.7233         2.79202         43.0307 
        3.09254         22.5996         2.76444         42.7581 
        3.10483         22.6221         2.73722         42.4869 
         3.1171         22.5094          2.7104         42.2111 
        3.12933          22.536         2.68402         41.9389 
        3.14159         22.4511         2.65793         41.6656 
