# k  (h/Mpc)    Pcb(k)  (Mpc/h)^3    Pcb_linear(k) (Mpc/h)^3    Pcb_NL(k) (Mpc/h)^3   ShotnoiseSubtracted = false
      0.0156606         1609.18         1609.98         1602.33 
      0.0273761         1400.31         1393.41         1390.12 
      0.0384619         1063.94         1050.24         1049.62 
      0.0498308         835.468         826.285         826.305 
      0.0625568         704.985         702.348         701.648 
      0.0751274         607.228         596.774         595.233 
      0.0867833         483.561         480.496         480.343 
      0.0984825          389.92         380.265         381.346 
       0.111151          326.13         317.524         318.543 
       0.123864         292.882         286.159          286.82 
       0.135742         262.902         257.332         257.941 
        0.14762         223.336         220.035         221.612 
       0.160083         185.622         183.413         185.263 
       0.172465         163.039         160.086          162.28 
       0.184281         151.053         147.581         149.886 
       0.196406         137.931         136.291         138.023 
       0.209011         123.829         121.265         123.265 
       0.221538         109.502         105.975         108.799 
       0.233611         98.3241           94.82         97.9514 
       0.245665         92.0877         87.5155         90.2877 
       0.258103         83.1081         81.4696         84.2227 
       0.270422          77.894         74.8612         77.5142 
       0.282519         70.6458         67.9409          70.805 
       0.294636         66.4961         61.9018         64.9214 
       0.306978         59.1958         57.2696         60.3807 
       0.319417         56.2961         53.5438         56.5588 
        0.33169         52.3175         49.9775         52.8872 
       0.343948         49.3762         46.3071          49.231 
       0.356249         45.1931         42.8649         46.1371 
       0.368458         42.8826         39.9818         42.9401 
        0.38068         40.0499         37.5706         40.5104 
       0.392856         37.5589         35.3697         38.3375 
       0.405069         35.4815         33.2176         36.0584 
       0.417459         32.9267         31.1337         34.0543 
       0.429752         31.4283         29.2631         32.1639 
       0.441978          29.868         27.6213         30.6574 
       0.454294         27.8457         26.1304         29.0042 
        0.46658         27.2978         24.7315         27.5674 
       0.478753         25.4495         23.4119          26.247 
       0.490964         24.4907         22.1723         25.1055 
       0.503334         23.3936         21.0281         23.8308 
       0.515665         22.0788         19.9847          22.913 
       0.527909         21.1365         19.0216         21.7277 
       0.540159          20.125         18.1103          20.798 
        0.55248         18.8344         17.2457         19.8583 
       0.564743         18.5282         16.4451         19.1575 
        0.57686         17.8069         15.7093         18.3575 
       0.589077         16.7304         15.0146         17.7095 
       0.601441         16.0701         14.3542         17.0066 
        0.61382         15.4554         13.7314         16.2962 
       0.626067         14.8131         13.1503         15.7145 
       0.638306         14.2783         12.6031          15.108 
       0.650632         13.8903         12.0846         14.6047 
       0.662899         13.2171         11.5988          14.053 
       0.675076         12.5812         11.1434         13.5673 
       0.687267          12.277          10.712         13.0693 
       0.699615         11.8934          10.298         12.6435 
       0.711937          11.272          9.9066         12.2441 
       0.724148          11.147         9.53889         11.8599 
       0.736433         10.5224         9.18802         11.4463 
       0.748747         10.2472         8.85428         11.1245 
       0.761037         9.98696         8.53792         10.7792 
       0.773197         9.54955         8.24029         10.4797 
       0.785376         9.22317         7.95652         10.1577 
       0.797761         8.95414         7.68172         9.83854 
       0.810096         8.71005         7.42098         9.60108 
       0.822371         8.48542         7.17362         9.28926 
       0.834626         8.19617         6.93798         9.04055 
       0.846916         7.90856         6.71238         8.80117 
       0.859215         7.60931         6.49673         8.57453 
       0.871383          7.4143         6.29274         8.35652 
        0.88363         7.22529         6.09635         8.12909 
       0.895928         7.06649         5.90764         7.90646 
       0.908253         6.85257          5.7266         7.71176 
       0.920535         6.61899         5.55379         7.50644 
       0.932774         6.48141         5.38875         7.29241 
        0.94508         6.27098         5.22962         7.14227 
       0.957324         6.12064         5.07772         6.98964 
        0.96953         5.90668         4.93235         6.81638 
       0.981769         5.78183         4.79233         6.63771 
       0.994071         5.66294         4.65711         6.49912 
         1.0064         5.46529         4.52689         6.35085 
        1.01868         5.32481         4.40206         6.20333 
        1.03092         5.22645         4.28251         6.05516 
         1.0432          5.0318         4.16699         5.92635 
        1.05553         4.93722         4.05531         5.80995 
        1.06777         4.78498         3.94854         5.68867 
           1.08         4.70411         3.84575         5.56038 
        1.09227         4.57263         3.74629         5.43905 
         1.1046         4.46623            3.65         5.32551 
         1.1169          4.3229         3.55727         5.21913 
        1.12915         4.28604         3.46824         5.12736 
        1.14142         4.13866         3.38208         5.00858 
        1.15365         4.05439         3.29912         4.91707 
        1.16585         3.98736         3.21916         4.82805 
        1.17807         3.89708         3.14177          4.7234 
        1.19037         3.77101         3.06643          4.6329 
        1.20276         3.69354         2.99305         4.53824 
        1.21504         3.61445         2.92267         4.46805 
        1.22728          3.5311         2.85484         4.37245 
        1.23954         3.46951         2.78902         4.31167 
        1.25184         3.38704         2.72515         4.22035 
        1.26414         3.33318         2.66326          4.1378 
        1.27632         3.22716         2.60386         4.07951 
         1.2886         3.18907         2.54585         4.00154 
        1.30093         3.10279         2.48941         3.94138 
        1.31316         3.01749          2.4351         3.86711 
        1.32541          2.9794          2.3824         3.80961 
        1.33772          2.9266         2.33097         3.74006 
        1.35005         2.86728         2.28103         3.68085 
        1.36225         2.80825         2.23307         3.61431 
        1.37447         2.74841          2.1864         3.56538 
        1.38676         2.68924         2.14085         3.50001 
        1.39907          2.6282         2.09653         3.45252 
        1.41133         2.58348         2.05365         3.39684 
        1.42358         2.54665         2.01202         3.33634 
        1.43591         2.50125         1.97126         3.29983 
        1.44818         2.43808         1.93185         3.24576 
        1.46037         2.38556         1.89376         3.19193 
        1.47263         2.34232         1.85649          3.1479 
        1.48494         2.30808         1.82008         3.10087 
        1.49724         2.25812         1.78468         3.05282 
        1.50952         2.24344         1.75029         3.00875 
        1.52178         2.18276         1.71686         2.97052 
        1.53409         2.13918         1.68417         2.91962 
        1.54637         2.10073          1.6524         2.87907 
        1.55858          2.0676         1.62164         2.83407 
        1.57081         2.03187         1.59161         2.80114 
        1.58313         1.98993         1.56216         2.76319 
        1.59544         1.96012         1.53347         2.72661 
        1.60767          1.9315         1.50569         2.68809 
        1.61994         1.88836          1.4785           2.654 
        1.63225         1.86394         1.45192         2.61915 
        1.64452         1.83154         1.42608         2.58174 
        1.65676         1.79212         1.40094         2.54961 
          1.669         1.76953         1.37639          2.5147 
        1.68133         1.72788         1.35228         2.48697 
        1.69363         1.71953         1.32881         2.45368 
        1.70585         1.68884         1.30606         2.42225 
        1.71809         1.66367         1.28379         2.39164 
        1.73038         1.62961         1.26197         2.36128 
        1.74268         1.60016         1.24064          2.3326 
        1.75493         1.58323          1.2199         2.30635 
        1.76714         1.55762          1.1997         2.27305 
        1.77942         1.52956         1.17985         2.24855 
        1.79173         1.50764         1.16039         2.22002 
        1.80402         1.48458         1.14142         2.19436 
         1.8163          1.4644         1.12288         2.16835 
         1.8286         1.43433         1.10472         2.14795 
         1.8409         1.42283         1.08698         2.12211 
        1.85315         1.40124         1.06969         2.09285 
        1.86537         1.37609         1.05281         2.07311 
        1.87765         1.35953         1.03623         2.04998 
        1.88995         1.33722         1.01997         2.02612 
        1.90221         1.31863         1.00411         2.00276 
        1.91445         1.29764        0.988622         1.98381 
        1.92674         1.28133        0.973404         1.95865 
        1.93902          1.2579        0.958505         1.93568 
        1.95124          1.2407        0.943998         1.91731 
         1.9635         1.22452        0.929754         1.89507 
        1.97583         1.20339        0.915715         1.87419 
        1.98812         1.18907        0.902018          1.8568 
        2.00039         1.17055         0.88863         1.83553 
        2.01264         1.15209        0.875525         1.81913 
        2.02492         1.14211        0.862667         1.80122 
        2.03717         1.13185        0.850088          1.7814 
        2.04942         1.10843        0.837776         1.76106 
        2.06171         1.09384        0.825667         1.74305 
        2.07397         1.07946        0.813823         1.72748 
        2.08629         1.06795        0.802163         1.71138 
        2.09857          1.0511        0.790759         1.69407 
        2.11081         1.03743        0.779624         1.67616 
        2.12309         1.02606        0.768677         1.66201 
        2.13538         1.01306        0.757924         1.64371 
        2.14763         1.00372        0.747413          1.6283 
        2.15986        0.989952        0.737125         1.61476 
        2.17214        0.969739         0.72699         1.59539 
        2.18443        0.961399        0.717036         1.58335 
        2.19671        0.951719         0.70728         1.56858 
        2.20898        0.937705        0.697717         1.55375 
        2.22126        0.925378        0.688321         1.53949 
        2.23354        0.913282        0.679102         1.52499 
         2.2458        0.905031        0.670067         1.51016 
        2.25807        0.891129        0.661189         1.49601 
        2.27035        0.883824        0.652463         1.48368 
        2.28263        0.867914          0.6439         1.47121 
         2.2949        0.860125        0.635495         1.45753 
        2.30718         0.85183        0.627237         1.44529 
        2.31946        0.838873        0.619122         1.43242 
        2.33169        0.829174        0.611186         1.42017 
        2.34393        0.825423        0.603377         1.40792 
        2.35622         0.81035        0.595679          1.3957 
        2.36847        0.804228        0.588137         1.38365 
        2.38076        0.790342        0.580703         1.37164 
        2.39305         0.78661        0.573399         1.35979 
        2.40534        0.775261        0.566221         1.34881 
        2.41762        0.767509        0.559167         1.33662 
        2.42989        0.757628        0.552243          1.3273 
        2.44216        0.752219        0.545438         1.31588 
         2.4544        0.744993        0.538763         1.30526 
        2.46667        0.735448        0.532184         1.29446 
        2.47897        0.727772          0.5257         1.28356 
        2.49124        0.717265        0.519341         1.27319 
        2.50349         0.71193        0.513097         1.26259 
        2.51578        0.705047        0.506937         1.25188 
        2.52805        0.696003        0.500889         1.24265 
        2.54029        0.690399        0.494954         1.23262 
        2.55257        0.682126        0.489098         1.22339 
        2.56487        0.674733        0.483326         1.21441 
        2.57716        0.670282        0.477654         1.20398 
        2.58942         0.66555        0.472087         1.19561 
        2.60167        0.659051        0.466614         1.18603 
        2.61395        0.651188        0.461219         1.17694 
        2.62624        0.645999        0.455902         1.16866 
        2.63849          0.6384        0.450686         1.15939 
        2.65073        0.632739        0.445557         1.15051 
        2.66302        0.628347        0.440489          1.1415 
         2.6753        0.624383        0.435504         1.13359 
        2.68756         0.61743        0.430605         1.12604 
        2.69983        0.612066        0.425779         1.11757 
        2.71213        0.604298        0.421017         1.10954 
        2.72441        0.602088        0.416336         1.10127 
        2.73665        0.597969        0.411737         1.09429 
         2.7489        0.592387         0.40721         1.08687 
        2.76118        0.587399        0.402738         1.07773 
        2.77349        0.583889        0.398322         1.07061 
        2.78576        0.580845         0.39399         1.06291 
        2.79802         0.57501        0.389724         1.05495 
        2.81031        0.571358        0.385512         1.04877 
        2.82259        0.567535        0.381364         1.04047 
        2.83483         0.56412        0.377292         1.03356 
         2.8471        0.559525        0.373272          1.0262 
         2.8594        0.557271        0.369298         1.01954 
         2.8717        0.552219        0.365384         1.01331 
        2.88396        0.548667        0.361541         1.00619 
        2.89619        0.546238         0.35776        0.999456 
        2.90847        0.543047        0.354019        0.993014 
        2.92072        0.542077        0.350337        0.986313 
        2.93299        0.535987        0.346707        0.979224 
        2.94526        0.535624        0.343124        0.973097 
        2.95753        0.533682        0.339593        0.967076 
        2.96982        0.531223        0.336106        0.960343 
        2.98209        0.529291        0.332675        0.954021 
        2.99436        0.526442        0.329288        0.948029 
        3.00666        0.525877        0.325944        0.942146 
        3.01894        0.524884        0.322652        0.936536 
        3.03119        0.521694         0.31941        0.930095 
        3.04345        0.519702        0.316213        0.924189 
        3.05573        0.519632        0.313053        0.919213 
          3.068        0.518013         0.30994        0.913468 
        3.08026        0.518237        0.306872        0.907347 
        3.09254        0.516571         0.30384        0.901309 
        3.10483        0.514951        0.300848         0.89606 
         3.1171        0.516171        0.297901        0.891034 
        3.12933        0.515619        0.295001        0.885481 
        3.14159        0.515794        0.292134        0.880051 
