# k  (h/Mpc)    P(k)  (Mpc/h)^3    P_linear(k)  (Mpc/h)^3     P_NL(k)  ShotnoiseSubtracted = false
      0.0156606         20491.9         20657.8         20498.3 
      0.0273761         17546.3         17830.8         17644.5 
      0.0384619         13261.6         13421.3         13257.6 
      0.0498308         10242.7         10550.7         10386.6 
      0.0625568          8650.1         8963.17         8816.66 
      0.0751274         7696.45         7613.18            7407 
      0.0867833         5965.03         6128.41         6065.07 
      0.0984825         5033.24         4849.24         4907.19 
       0.111151         4301.69         4048.62         4119.82 
       0.123864         3854.73         3648.35         3706.08 
       0.135742         3512.03         3280.59         3338.61 
        0.14762         3054.99         2804.95            2959 
       0.160083         2591.02            2338         2527.31 
       0.172465         2311.14         2040.56         2281.42 
       0.184281         2097.77         1881.11          2123.2 
       0.196406         1974.46         1737.17         1954.63 
       0.209011         1845.27         1545.61         1771.13 
       0.221538         1662.54         1350.69            1652 
       0.233611         1590.65          1208.5         1546.87 
       0.245665         1443.32         1115.39            1428 
       0.258103         1424.98         1038.32         1347.99 
       0.270422         1272.12         954.091         1265.75 
       0.282519         1199.51         865.884         1196.99 
       0.294636         1180.13         788.911         1133.26 
       0.306978         1075.91         729.872         1085.49 
       0.319417         1053.12         682.384         1023.28 
        0.33169         990.722          636.93         968.597 
       0.343948         949.947         590.149         938.459 
       0.356249         899.585         546.279         903.326 
       0.368458         865.953         509.533         862.367 
        0.38068         850.151         478.807         829.151 
       0.392856          806.58         450.755         799.809 
       0.405069         766.552         423.325         774.403 
       0.417459         737.414         396.769         745.955 
       0.429752         731.594         372.929         719.867 
       0.441978          706.15         352.005         701.396 
       0.454294         674.468         333.004         672.636 
        0.46658         655.877         315.176         658.636 
       0.478753         642.737         298.357         638.434 
       0.490964         617.993         282.558         618.827 
       0.503334           590.7         267.978         604.766 
       0.515665         589.085         254.681         591.357 
       0.527909         565.262         242.407         578.376 
       0.540159         551.244         230.793         563.444 
        0.55248         540.526         219.774         548.764 
       0.564743         536.358         209.572         539.431 
        0.57686          517.56         200.194          525.04 
       0.589077         506.566         191.342         513.391 
       0.601441         496.856         182.925         503.191 
        0.61382         483.773         174.989         494.445 
       0.626067         478.385         167.583         484.961 
       0.638306         460.617         160.609         475.289 
       0.650632         456.205         154.002         463.547 
       0.662899         452.389          147.81         458.076 
       0.675076         436.847         142.008         451.419 
       0.687267         425.053         136.509         440.672 
       0.699615         422.436         131.233         433.724 
       0.711937         415.005         126.246         425.704 
       0.724148         401.279          121.56         419.817 
       0.736433         391.967         117.088         412.209 
       0.748747         387.098         112.835         404.854 
       0.761037         380.082         108.804          399.76 
       0.773197          375.12         105.011         393.445 
       0.785376          369.82         101.394         387.634 
       0.797761         359.247         97.8924         381.628 
       0.810096         356.299         94.5696         376.861 
       0.822371         345.645         91.4173         370.694 
       0.834626         343.122         88.4145         366.163 
       0.846916         336.817         85.5394         360.485 
       0.859215         334.684         82.7912         355.294 
       0.871383         326.642         80.1917         350.516 
        0.88363         324.109          77.689         346.944 
       0.895928         318.518         75.2841         341.484 
       0.908253         310.597          72.977         335.971 
       0.920535         306.289         70.7748         332.057 
       0.932774         300.479         68.6716         327.182 
        0.94508          296.33         66.6437         323.822 
       0.957324         294.425         64.7079         319.447 
        0.96953          290.41         62.8554         315.518 
       0.981769         282.959          61.071         312.108 
       0.994071         282.018         59.3478         308.253 
         1.0064         276.341         57.6884         303.759 
        1.01868         273.351         56.0976         299.881 
        1.03092         265.416         54.5741         297.203 
         1.0432         262.568          53.102         293.604 
        1.05553         259.535         51.6787          289.62 
        1.06777         257.311         50.3182          286.47 
           1.08          251.33         49.0082         283.233 
        1.09227          249.84         47.7408         279.838 
         1.1046         245.538         46.5136         277.126 
         1.1169         239.996          45.332         273.398 
        1.12915         236.975         44.1974         270.797 
        1.14142         232.611         43.0994          267.48 
        1.15365         229.909         42.0421         264.659 
        1.16585         225.931         41.0233         261.574 
        1.17807         223.665         40.0371         259.023 
        1.19037         220.658         39.0769         256.753 
        1.20276         217.644         38.1418         253.405 
        1.21504          213.04         37.2449         250.605 
        1.22728         209.828         36.3806           247.6 
        1.23954         208.854         35.5417         245.488 
        1.25184         204.401         34.7278         242.827 
        1.26414         200.464         33.9391          240.47 
        1.27632         199.446         33.1821         238.412 
         1.2886         197.978         32.4429         235.578 
        1.30093         192.778         31.7236         232.727 
        1.31316         189.048         31.0315         230.282 
        1.32541         187.973         30.3599         228.111 
        1.33772         185.406         29.7046         225.893 
        1.35005         182.906         29.0682         223.355 
        1.36225         179.602          28.457         221.275 
        1.37447         177.073         27.8622         218.559 
        1.38676         175.237         27.2818         216.941 
        1.39907         172.617         26.7169         214.406 
        1.41133         169.609         26.1706          212.27 
        1.42358         167.655           25.64         210.269 
        1.43591         165.699         25.1206         208.249 
        1.44818         162.713         24.6185         206.178 
        1.46037         161.136          24.133         203.984 
        1.47263         158.382         23.6581         202.226 
        1.48494          156.56         23.1941         199.745 
        1.49724         154.291         22.7429         198.369 
        1.50952         151.453         22.3047         196.255 
        1.52178         150.523         21.8787         194.134 
        1.53409         147.455         21.4621         192.483 
        1.54637         145.605         21.0573         190.894 
        1.55858         143.636         20.6652         188.813 
        1.57081         141.367         20.2826         187.121 
        1.58313         139.502         19.9073         185.212 
        1.59544         137.039         19.5417         183.562 
        1.60767         135.989         19.1876         181.907 
        1.61994         133.571         18.8411          180.24 
        1.63225         131.782         18.5025          178.33 
        1.64452         129.552         18.1731         176.737 
        1.65676         127.786         17.8528         175.216 
          1.669         126.655           17.54         173.615 
        1.68133         124.127         17.2327         172.031 
        1.69363         122.145         16.9336         170.518 
        1.70585         120.185         16.6436             169 
        1.71809         118.738         16.3598         167.175 
        1.73038         117.721         16.0818         165.833 
        1.74268         116.568           15.81         164.226 
        1.75493         113.513         15.5458         162.856 
        1.76714         113.048         15.2882         161.487 
        1.77942         110.934         15.0353         159.885 
        1.79173         109.211         14.7874         158.513 
        1.80402         108.215         14.5456         157.106 
         1.8163         105.972         14.3093         155.775 
         1.8286           104.7         14.0779         154.307 
         1.8409           103.9         13.8519         152.871 
        1.85315         101.717         13.6315         151.632 
        1.86537         100.916         13.4164         150.375 
        1.87765          99.692         13.2051         149.091 
        1.88995         97.9293         12.9979         147.707 
        1.90221         96.7063         12.7958         146.519 
        1.91445         95.4824         12.5984         145.112 
        1.92674         93.9845         12.4045         143.874 
        1.93902         92.7303         12.2146         142.582 
        1.95124         91.6368         12.0298         141.382 
         1.9635         90.1281         11.8482         140.135 
        1.97583         88.7878         11.6693         138.968 
        1.98812          87.667         11.4948         137.906 
        2.00039         86.6528         11.3242          136.62 
        2.01264         85.5714         11.1572         135.498 
        2.02492         84.6721         10.9933         134.279 
        2.03717         83.2126          10.833         133.199 
        2.04942         82.5294         10.6761          132.12 
        2.06171         80.7573         10.5218          130.97 
        2.07397         79.9565         10.3709         129.936 
        2.08629         78.9479         10.2223         128.806 
        2.09857         77.8594          10.077         127.768 
        2.11081         76.5437         9.93507         126.589 
        2.12309         75.5098         9.79556         125.671 
        2.13538         74.5385         9.65853         124.563 
        2.14763         73.6062         9.52458         123.569 
        2.15986         72.5657         9.39349         122.478 
        2.17214         71.7646         9.26433         121.499 
        2.18443         70.8146         9.13748         120.671 
        2.19671         69.7524         9.01316         119.632 
        2.20898         69.0613          8.8913         118.572 
        2.22126         68.0399         8.77156          117.67 
        2.23354         67.2883         8.65407         116.734 
         2.2458         66.0329         8.53893         115.795 
        2.25807         65.3272         8.42579         114.844 
        2.27035         64.4228         8.31461         113.906 
        2.28263         63.5865         8.20548         113.026 
         2.2949         62.6146         8.09837         112.138 
        2.30718         61.7051         7.99314         111.256 
        2.31946         61.2856         7.88972         110.302 
        2.33169          60.193         7.78859         109.467 
        2.34393         59.7437         7.68907         108.676 
        2.35622         58.6101         7.59097         107.789 
        2.36847         58.1963         7.49486         107.053 
        2.38076         57.2137         7.40013         106.079 
        2.39305          56.607         7.30706         105.364 
        2.40534         55.8565         7.21558         104.493 
        2.41762         55.2085         7.12569         103.643 
        2.42989         54.3579         7.03746         102.908 
        2.44216         53.8186         6.95074          102.05 
         2.4544         52.9867         6.86567           101.3 
        2.46667         52.3994         6.78184         100.519 
        2.47897         51.8233          6.6992         99.7124 
        2.49124         51.2843         6.61817         98.9925 
        2.50349         50.7656          6.5386          98.234 
        2.51578         49.9826          6.4601         97.5837 
        2.52805          49.414         6.38302         96.7608 
        2.54029         48.9194          6.3074         96.0026 
        2.55257         48.2802         6.23277         95.3459 
        2.56487         48.0006         6.15921         94.6619 
        2.57716         47.2497         6.08694         93.9463 
        2.58942         46.6028         6.01599         93.2449 
        2.60167         46.0768         5.94624         92.5648 
        2.61395         45.6085          5.8775         91.8812 
        2.62624         44.9823         5.80974         91.1479 
        2.63849         44.4897         5.74327         90.4995 
        2.65073          44.062         5.67791         89.8412 
        2.66302         43.5402         5.61333         89.1588 
         2.6753          43.115          5.5498         88.5443 
        2.68756         42.6726         5.48738         87.8735 
        2.69983         42.1193         5.42587         87.2685 
        2.71213         41.7208         5.36518         86.6419 
        2.72441         41.2905         5.30553         86.0054 
        2.73665         40.7844         5.24693         85.4102 
         2.7489         40.3718         5.18925         84.8063 
        2.76118         40.0027         5.13225         84.1875 
        2.77349         39.5511         5.07598         83.5928 
        2.78576         39.1867         5.02077         82.9675 
        2.79802         38.8533         4.96641         82.4576 
        2.81031          38.318         4.91274         81.8522 
        2.82259         38.1347         4.85987         81.2443 
        2.83483         37.6367         4.80799         80.7236 
         2.8471         37.3325         4.75676         80.1374 
         2.8594         36.9828         4.70612         79.5581 
         2.8717         36.8058         4.65623          79.041 
        2.88396          36.382         4.60726         78.4831 
        2.89619         36.1697         4.55908         77.8932 
        2.90847         35.7725          4.5114         77.3344 
        2.92072         35.5673         4.46449          76.853 
        2.93299         35.4112         4.41822          76.344 
        2.94526         35.0039         4.37256         75.8111 
        2.95753          34.784         4.32757         75.2762 
        2.96982         34.4719         4.28313         74.7727 
        2.98209         34.2672         4.23941         74.2797 
        2.99436         33.9945         4.19625         73.7401 
        3.00666          33.954         4.15363         73.2473 
        3.01894         33.5875         4.11168         72.7528 
        3.03119         33.5523         4.07037         72.2843 
        3.04345         33.3859         4.02963         71.8161 
        3.05573         33.0536         3.98936         71.3277 
          3.068          32.986         3.94968         70.8526 
        3.08026         32.8116         3.91059         70.3751 
        3.09254         32.7439         3.87195         69.9177 
        3.10483         32.7065         3.83382         69.4626 
         3.1171         32.5325         3.79627         68.9984 
        3.12933         32.3969         3.75931          68.537 
        3.14159         32.2747         3.72277         68.0715 
