# k  (h/Mpc)    Pcb(k)  (Mpc/h)^3    Pcb_linear(k) (Mpc/h)^3    Pcb_NL(k) (Mpc/h)^3   ShotnoiseSubtracted = false
      0.0156606         22443.3         22570.9         22390.2 
      0.0273761         19227.6         19513.5         19295.1 
      0.0384619         14534.6         14700.6         14505.9 
      0.0498308         11219.4         11562.7         11366.5 
      0.0625568          9479.3         9826.61         9652.45 
      0.0751274         8447.18         8348.64         8104.37 
      0.0867833         6539.88         6721.51         6645.59 
      0.0984825         5533.64         5319.18         5385.64 
       0.111151         4737.24         4441.39         4525.05 
       0.123864         4242.83         4002.57         4070.14 
       0.135742         3870.98         3599.29         3666.94 
        0.14762         3372.28         3077.57         3256.55 
       0.160083         2869.73         2565.32         2786.73 
       0.172465         2559.35         2239.03         2521.12 
       0.184281         2317.02         2064.12         2346.48 
       0.196406         2190.27          1906.2         2162.56 
       0.209011         2051.49         1696.03         1961.25 
       0.221538         1846.21         1482.17         1833.52 
       0.233611         1773.07         1326.16         1720.14 
       0.245665         1606.01         1223.99         1589.49 
       0.258103         1593.68         1139.43         1501.49 
       0.270422         1421.13            1047         1411.67 
       0.282519         1344.45         950.214         1338.39 
       0.294636         1318.31          865.75         1268.79 
       0.306978         1206.68         800.964         1216.82 
       0.319417          1184.6         748.855         1147.61 
        0.33169         1112.91         698.975         1087.72 
       0.343948         1069.46         647.641         1054.81 
       0.356249          1014.9         599.499          1016.4 
       0.368458         973.466         559.175         972.503 
        0.38068         959.562         525.453         936.223 
       0.392856         911.929         494.671         904.324 
       0.405069         864.238         464.572         874.854 
       0.417459         831.253         435.427         845.306 
       0.429752         828.913         409.265         816.009 
       0.441978         799.739         386.303         795.768 
       0.454294         765.127         365.452         763.843 
        0.46658          743.51         345.888         748.534 
       0.478753         729.922         327.431         726.333 
       0.490964         701.834         310.094          704.46 
       0.503334         672.344         294.092         689.275 
       0.515665         669.638           279.5         673.716 
       0.527909         641.619         266.029         660.099 
       0.540159         626.293         253.285          643.83 
        0.55248         613.613         241.192         627.352 
       0.564743         608.383         229.995         616.794 
        0.57686         588.731         219.704         600.792 
       0.589077         578.936         209.989          587.77 
       0.601441         564.797         200.752         576.584 
        0.61382         548.848         192.043         566.516 
       0.626067         543.164         183.915         556.242 
       0.638306         523.459         176.262         544.959 
       0.650632         518.594         169.011         532.384 
       0.662899         514.358         162.216         525.897 
       0.675076         498.075         155.848         518.963 
       0.687267         483.661         149.814         506.801 
       0.699615         482.414         144.024         498.831 
       0.711937         472.024          138.55         489.431 
       0.724148         456.849         133.407         483.057 
       0.736433         446.188           128.5         474.619 
       0.748747         440.523         123.833         466.346 
       0.761037          432.75         119.408         460.823 
       0.773197         425.972         115.246         453.166 
       0.785376          420.69         111.277          446.73 
       0.797761         408.083         107.433         440.246 
       0.810096         403.387         103.787         434.645 
       0.822371         392.908         100.327         427.645 
       0.834626         388.939         97.0319         422.765 
       0.846916         383.141         93.8766         416.151 
       0.859215          378.39         90.8606         410.068 
       0.871383         369.982         88.0078         404.734 
        0.88363         365.557         85.2611         400.662 
       0.895928          360.48         82.6218         394.469 
       0.908253         351.557         80.0899         387.992 
       0.920535         344.461         77.6731         383.907 
       0.932774          339.43         75.3648         378.062 
        0.94508         334.209         73.1393         374.316 
       0.957324          330.64         71.0149         369.345 
        0.96953         326.414         68.9818         364.895 
       0.981769         318.576         67.0235         360.839 
       0.994071         317.341         65.1324         356.476 
         1.0064          311.37         63.3112         351.305 
        1.01868         307.749         61.5654         346.857 
        1.03092         298.573         59.8934         343.843 
         1.0432         295.751         58.2779          339.69 
        1.05553         292.628         56.7159          335.01 
        1.06777         288.592         55.2227         331.222 
           1.08         281.994          53.785         327.581 
        1.09227         281.312         52.3941         323.652 
         1.1046         275.671         51.0473         320.608 
         1.1169         269.781         49.7505         316.368 
        1.12915          266.01         48.5053         313.151 
        1.14142         260.611         47.3004         309.474 
        1.15365         257.685           46.14         306.232 
        1.16585         253.222         45.0219         302.816 
        1.17807         250.755         43.9395         299.533 
        1.19037         246.315         42.8858         297.003 
        1.20276         243.293         41.8596         293.128 
        1.21504         238.226         40.8752         289.841 
        1.22728         234.732         39.9267         286.696 
        1.23954         233.342          39.006         283.825 
        1.25184          227.96         38.1128         280.836 
        1.26414           223.4         37.2473         278.184 
        1.27632         221.523         36.4164         275.631 
         1.2886         219.493         35.6051         272.508 
        1.30093         214.516         34.8158         269.053 
        1.31316         209.964         34.0562         266.485 
        1.32541         208.853         33.3192         263.655 
        1.33772         205.137            32.6         261.268 
        1.35005         202.708         31.9016         258.316 
        1.36225         198.783         31.2308         255.903 
        1.37447         195.645          30.578         252.804 
        1.38676         193.762          29.941         251.025 
        1.39907         190.918         29.3211          247.96 
        1.41133         187.219         28.7215          245.37 
        1.42358         184.948         28.1393         243.064 
        1.43591         182.503         27.5692          240.89 
        1.44818         178.982         27.0181         238.351 
        1.46037         177.489         26.4854         235.792 
        1.47263         173.976         25.9641         233.567 
        1.48494          172.51         25.4549         230.767 
        1.49724         169.458         24.9597         229.322 
        1.50952         166.426         24.4788         226.664 
        1.52178         164.614         24.0113         224.404 
        1.53409          161.64         23.5541         222.362 
        1.54637         159.146         23.1098         220.525 
        1.55858         157.403         22.6795         218.178 
        1.57081         154.622         22.2596         216.067 
        1.58313          152.62         21.8477         213.872 
        1.59544           149.8         21.4465         211.967 
        1.60767         148.398         21.0579         210.086 
        1.61994         145.872         20.6776         207.979 
        1.63225         143.537          20.306         205.869 
        1.64452         141.237         19.9445         204.046 
        1.65676         139.442          19.593         202.296 
          1.669         137.823         19.2496         200.284 
        1.68133         135.109         18.9124         198.457 
        1.69363         132.768         18.5842         196.807 
        1.70585         130.695         18.2659         194.975 
        1.71809         128.992         17.9545         192.887 
        1.73038         127.362         17.6493          191.28 
        1.74268         126.185         17.3511         189.407 
        1.75493         123.257         17.0611         187.878 
        1.76714         122.651         16.7785         186.237 
        1.77942         120.063         16.5008         184.498 
        1.79173         118.272         16.2287         182.766 
        1.80402         116.703         15.9634         181.139 
         1.8163          114.59         15.7041         179.697 
         1.8286         113.069         15.4502         177.932 
         1.8409         111.715         15.2021         176.283 
        1.85315         109.479         14.9602         174.837 
        1.86537         108.435         14.7241         173.362 
        1.87765         107.061         14.4923         171.878 
        1.88995         105.087         14.2648         170.235 
        1.90221          103.81         14.0431         168.912 
        1.91445         102.237         13.8264         167.287 
        1.92674         100.598         13.6136         165.811 
        1.93902         99.3861         13.4052         164.317 
        1.95124          97.998         13.2023         162.936 
         1.9635         96.3737         13.0031         161.519 
        1.97583         94.8971         12.8068         160.091 
        1.98812         93.5283         12.6152         158.957 
        2.00039         92.4767          12.428         157.422 
        2.01264         91.3263         12.2447         156.127 
        2.02492         90.0472         12.0649         154.695 
        2.03717         88.6651          11.889         153.485 
        2.04942         87.5324         11.7168          152.17 
        2.06171         85.9829         11.5474         150.817 
        2.07397         84.9766         11.3818         149.673 
        2.08629         83.6699         11.2187         148.365 
        2.09857         82.6721         11.0592          147.18 
        2.11081         81.3246         10.9035         145.822 
        2.12309         80.3053         10.7504         144.711 
        2.13538         78.9866            10.6         143.446 
        2.14763         77.9104          10.453         142.281 
        2.15986         77.0379         10.3091         141.011 
        2.17214         75.9345         10.1674         139.929 
        2.18443         74.9961         10.0282         138.929 
        2.19671         74.0384         9.89171         137.717 
        2.20898         73.0652         9.75797         136.479 
        2.22126         71.9883         9.62656         135.482 
        2.23354         71.1043         9.49762         134.401 
         2.2458         69.7214         9.37127         133.264 
        2.25807          69.033          9.2471         132.201 
        2.27035         68.0333         9.12507         131.127 
        2.28263         67.1999         9.00531          130.13 
         2.2949         65.8967         8.88776         129.102 
        2.30718         65.0134         8.77227         128.041 
        2.31946         64.4231         8.65877         126.946 
        2.33169         63.3995         8.54778         125.996 
        2.34393         62.8738         8.43856         125.112 
        2.35622         61.7664          8.3309         124.042 
        2.36847         61.1531         8.22542         123.185 
        2.38076         60.0529         8.12146           122.1 
        2.39305         59.4831         8.01932         121.258 
        2.40534         58.5866         7.91892         120.247 
        2.41762         57.9605         7.82027         119.289 
        2.42989         57.0417         7.72344         118.423 
        2.44216          56.526         7.62826         117.433 
         2.4544         55.6265         7.53491         116.587 
        2.46667         54.8448          7.4429         115.698 
        2.47897         54.3289         7.35221          114.74 
        2.49124         53.6963         7.26328         113.886 
        2.50349         52.7945         7.17595         113.044 
        2.51578         52.4165          7.0898         112.275 
        2.52805         51.5968         7.00521         111.338 
        2.54029         51.0843         6.92221          110.49 
        2.55257          50.416         6.84031         109.726 
        2.56487         50.0895         6.75958         108.908 
        2.57716         49.5128         6.68027         108.095 
        2.58942         48.7032          6.6024           107.3 
        2.60167         48.1716         6.52585         106.522 
        2.61395         47.8222         6.45041         105.714 
        2.62624         47.0159         6.37605         104.876 
        2.63849         46.5196         6.30309         104.147 
        2.65073         45.8973         6.23136         103.382 
        2.66302         45.5118         6.16049         102.622 
         2.6753         44.9185         6.09076         101.902 
        2.68756         44.5949         6.02226         101.128 
        2.69983         44.0359         5.95476         100.407 
        2.71213         43.5373         5.88816          99.692 
        2.72441         43.1433         5.82269         98.9587 
        2.73665         42.6655         5.75838          98.282 
         2.7489         42.2038         5.69507         97.5929 
        2.76118         41.8093         5.63252         96.8642 
        2.77349         41.3547         5.57076         96.1958 
        2.78576         40.9676         5.51017         95.4899 
        2.79802         40.6125         5.45052         94.8795 
        2.81031         40.0697         5.39161         94.1867 
        2.82259         39.6896         5.33359         93.4873 
        2.83483         39.2621         5.27664         92.8793 
         2.8471          38.892         5.22042         92.2044 
         2.8594         38.4938         5.16485         91.5513 
         2.8717         38.2285          5.1101         90.9613 
        2.88396         37.9067         5.05635          90.326 
        2.89619         37.5965         5.00347         89.6545 
        2.90847         37.2329         4.95115         89.0019 
        2.92072          36.947         4.89966         88.4547 
        2.93299         36.7998         4.84889         87.8676 
        2.94526         36.4249         4.79878         87.2451 
        2.95753         36.1877          4.7494         86.6369 
        2.96982         35.8105         4.70063         86.0632 
        2.98209         35.6829         4.65264         85.4851 
        2.99436         35.3913         4.60528         84.8738 
        3.00666         35.2527         4.55851         84.3065 
        3.01894         35.0246         4.51247         83.7502 
        3.03119         34.7887         4.46713         83.2126 
        3.04345         34.5829         4.42242          82.665 
        3.05573          34.486         4.37822         82.1021 
          3.068         34.2702         4.33468         81.5614 
        3.08026         34.0776         4.29177         81.0163 
        3.09254         34.0072         4.24937         80.4887 
        3.10483          34.005         4.20753         79.9621 
         3.1171         33.8225         4.16631         79.4266 
        3.12933         33.5883         4.12575         78.8991 
        3.14159         33.5954         4.08565         78.3734 
