# k  (h/Mpc)    P(k)  (Mpc/h)^3    P_linear(k)  (Mpc/h)^3     P_NL(k)  ShotnoiseSubtracted = false
      0.0156606          9452.4          9589.6         9532.38 
      0.0273761         8149.71         8280.67         8233.61 
      0.0384619         6181.79         6234.55         6200.51 
      0.0498308         4809.74         4901.99         4870.44 
      0.0625568         4058.24         4164.99         4134.68 
      0.0751274         3567.02         3538.02          3493.1 
      0.0867833         2793.02          2848.2         2837.06 
      0.0984825         2308.64         2253.82         2272.31 
       0.111151         1950.33         1881.79         1901.37 
       0.123864         1751.46         1695.79         1712.25 
       0.135742         1582.44         1524.89         1541.82 
        0.14762         1357.59         1303.83         1346.12 
       0.160083         1130.96         1086.79         1135.91 
       0.172465         1006.33         948.546         1009.64 
       0.184281         927.985         874.436         938.186 
       0.196406         851.589          807.53         860.016 
       0.209011         781.028         718.488         775.071 
       0.221538         703.009         627.885         706.699 
       0.233611         650.114          561.79         650.239 
       0.245665         604.053         518.508         598.122 
       0.258103         564.344         482.684         561.831 
       0.270422         517.875         443.529         522.311 
       0.282519         475.071         402.525         485.227 
       0.294636         469.154         366.744         453.725 
       0.306978         416.521         339.299         429.701 
       0.319417         400.277         317.224          403.93 
        0.33169         375.725         296.094         379.779 
       0.343948         358.331         274.347          362.63 
       0.356249         334.604         253.954         345.794 
       0.368458         323.885         236.871         325.569 
        0.38068         308.825         222.588         310.251 
       0.392856         288.905         209.547         297.056 
       0.405069         277.136         196.796         285.712 
       0.417459         264.468         184.451         270.549 
       0.429752         254.969         173.369         260.044 
       0.441978         246.231         163.641         251.594 
       0.454294         230.005         154.808         239.544 
        0.46658         229.674          146.52         232.201 
       0.478753         217.918         138.702         223.766 
       0.490964         210.997         131.357         215.546 
       0.503334         199.614         124.579         208.869 
       0.515665         196.091         118.398         203.735 
       0.527909         190.231         112.691          195.85 
       0.540159         184.264         107.292         190.172 
        0.55248           179.8          102.17          184.04 
       0.564743         174.595         97.4269          179.63 
        0.57686         168.793         93.0675         173.818 
       0.589077         161.688         88.9524         169.891 
       0.601441         158.622         85.0394         165.568 
        0.61382         156.719           81.35         160.975 
       0.626067         151.477         77.9073         156.967 
       0.638306         145.277         74.6653         153.504 
       0.650632          140.61         71.5936         148.319 
       0.662899          140.72         68.7152          145.35 
       0.675076         135.704         66.0177         141.942 
       0.687267         132.324         63.4615         138.751 
       0.699615         128.996         61.0088           135.9 
       0.711937         125.498         58.6901         132.657 
       0.724148         123.883         56.5117         130.774 
       0.736433         120.019          54.433         127.504 
       0.748747          117.42         52.4558         124.809 
       0.761037         115.331         50.5815         121.994 
       0.773197         112.813         48.8183         120.633 
       0.785376         110.867         47.1371         117.686 
       0.797761         109.251          45.509         116.077 
       0.810096         105.737         43.9643         113.586 
       0.822371         103.282         42.4989         111.583 
       0.834626         101.321         41.1029         109.661 
       0.846916         100.256         39.7663         107.884 
       0.859215         98.4236         38.4887         105.876 
       0.871383          96.914         37.2803         104.101 
        0.88363         94.4904         36.1168         102.757 
       0.895928         92.7227         34.9987         101.198 
       0.908253         90.3256         33.9262         99.3518 
       0.920535         89.8986         32.9024         98.0041 
       0.932774         87.7582         31.9247         96.2603 
        0.94508          86.811         30.9819         94.7982 
       0.957324         85.0363          30.082         93.5583 
        0.96953         85.0828         29.2208         91.9531 
       0.981769         82.2535         28.3912          91.013 
       0.994071         81.4344         27.5901         89.6726 
         1.0064         79.6166         26.8187         88.3664 
        1.01868         78.8391         26.0792         87.2583 
        1.03092         77.3272         25.3709          86.075 
         1.0432         76.0248         24.6866         84.8549 
        1.05553         74.0462         24.0249         84.1027 
        1.06777         73.8829         23.3924         82.9903 
           1.08         72.3623         22.7834         81.8716 
        1.09227         71.2629         22.1942         80.7059 
         1.1046         70.1165         21.6237         79.7396 
         1.1169         69.3157         21.0744          78.596 
        1.12915         68.4075         20.5469         77.8053 
        1.14142          67.084         20.0365         76.8521 
        1.15365         65.8632          19.545         75.9727 
        1.16585         65.0211         19.0713         74.9967 
        1.17807         64.0266         18.6128         74.1928 
        1.19037         63.9339         18.1665         73.4566 
        1.20276          62.618         17.7318         72.6037 
        1.21504         62.1427         17.3148          71.727 
        1.22728         60.8066          16.913         71.0038 
        1.23954         60.1781          16.523         70.0976 
        1.25184         59.1748         16.1446         69.4928 
        1.26414         58.2238          15.778         68.6837 
        1.27632         57.7199          15.426         68.0713 
         1.2886         57.0539         15.0824         67.2241 
        1.30093         56.2762          14.748         66.3938 
        1.31316         55.4461         14.4262         65.9552 
        1.32541          55.103          14.114         65.2123 
        1.33772          54.137         13.8094         64.5321 
        1.35005         53.6062         13.5135         63.9257 
        1.36225         52.6844         13.2294         63.2708 
        1.37447         51.4677         12.9529         62.6113 
        1.38676         51.6293          12.683         61.9864 
        1.39907         50.7938         12.4204         61.5029 
        1.41133         49.7977         12.1665         60.9907 
        1.42358         49.2228         11.9198         60.2492 
        1.43591         48.8479         11.6783         59.7697 
        1.44818         48.1945         11.4449         59.0683 
        1.46037         47.6216         11.2192         58.6455 
        1.47263         47.1367         10.9984         58.1698 
        1.48494         46.2901         10.7827         57.5503 
        1.49724         45.8742          10.573         57.0186 
        1.50952         45.5113         10.3692         56.4896 
        1.52178         44.8258         10.1712         56.0468 
        1.53409         44.4336         9.97753         55.5515 
        1.54637         43.6124         9.78933         55.0157 
        1.55858         42.8403         9.60705         54.4858 
        1.57081         42.7597         9.42917         54.1232 
        1.58313         42.2427         9.25469         53.6709 
        1.59544         41.5526         9.08473         53.1452 
        1.60767          41.033         8.92013         52.6879 
        1.61994         40.4665         8.75905         52.2641 
        1.63225         40.1954         8.60162         51.7809 
        1.64452         39.7504          8.4485         51.3961 
        1.65676         39.1891         8.29959         50.9208 
          1.669         38.8763         8.15416         50.5762 
        1.68133         38.5275          8.0113         50.0841 
        1.69363          37.867         7.87229         49.7033 
        1.70585          37.637         7.73746          49.366 
        1.71809         36.9548         7.60553          48.864 
        1.73038         36.7546         7.47626         48.5579 
        1.74268         36.1527         7.34992         48.0764 
        1.75493         35.8117         7.22708          47.724 
        1.76714         35.4028         7.10736         47.3632 
        1.77942         35.1189         6.98975         46.9929 
        1.79173         34.6483         6.87451         46.5874 
        1.80402         34.2551          6.7621         46.3167 
         1.8163         33.9439         6.65227         45.8215 
         1.8286         33.4463          6.5447         45.5562 
         1.8409         33.1099          6.4396         45.1374 
        1.85315         32.7643         6.33716         44.8753 
        1.86537          32.344         6.23715         44.5323 
        1.87765         32.1516         6.13893          44.159 
        1.88995         31.6508          6.0426         43.7551 
        1.90221          31.402         5.94867         43.4385 
        1.91445         30.8983         5.85689         43.1598 
        1.92674         30.6432         5.76673         42.7955 
        1.93902         30.3114         5.67847         42.4944 
        1.95124         29.8222         5.59252         42.2239 
         1.9635         29.5775         5.50814         41.8754 
        1.97583         29.2768         5.42496         41.6111 
        1.98812         28.9544         5.34382         41.2779 
        2.00039         28.6039          5.2645         40.9661 
        2.01264         28.2628         5.18687         40.7054 
        2.02492         28.0317         5.11069         40.3891 
        2.03717         27.6615         5.03617         40.0827 
        2.04942         27.3986         4.96323         39.7767 
        2.06171         27.1263         4.89149         39.5085 
        2.07397         26.8587         4.82133           39.21 
        2.08629         26.5481         4.75225         38.9263 
        2.09857          26.257         4.68469         38.6655 
        2.11081         25.9524         4.61872         38.3776 
        2.12309         25.7511         4.55387         38.0945 
        2.13538         25.3064         4.49016         37.8718 
        2.14763          25.196         4.42789         37.5794 
        2.15986         24.8868         4.36695         37.2937 
        2.17214         24.6254          4.3069         37.0691 
        2.18443         24.3577         4.24793         36.7606 
        2.19671         24.0486         4.19013         36.5199 
        2.20898         23.8197         4.13348         36.2472 
        2.22126         23.7101         4.07782         35.9959 
        2.23354         23.4115          4.0232         35.7911 
         2.2458         23.1931         3.96967         35.5297 
        2.25807         22.8521         3.91708         35.2596 
        2.27035         22.6184         3.86538         35.0433 
        2.28263           22.45         3.81465         34.8111 
         2.2949         22.2165         3.76486         34.5711 
        2.30718         22.0192         3.71594         34.3107 
        2.31946          21.844         3.66786         34.0832 
        2.33169         21.5704         3.62085         33.8549 
        2.34393         21.3402         3.57458         33.6242 
        2.35622         21.1483         3.52898         33.4256 
        2.36847         20.9081         3.48429         33.1646 
        2.38076         20.7576         3.44025         32.9801 
        2.39305         20.4892         3.39699         32.7676 
        2.40534         20.3264         3.35446         32.5001 
        2.41762         20.1019         3.31267         32.3337 
        2.42989          20.004         3.27165         32.0728 
        2.44216         19.6927         3.23133          31.891 
         2.4544         19.6286         3.19179         31.6724 
        2.46667         19.4002         3.15282         31.4684 
        2.47897         19.1625          3.1144         31.2514 
        2.49124         19.0727         3.07673          31.051 
        2.50349         18.8091         3.03974         30.8477 
        2.51578         18.6746         3.00324         30.6602 
        2.52805         18.4818         2.96741         30.4511 
        2.54029         18.3329         2.93225         30.2515 
        2.55257         18.2144         2.89756         30.0478 
        2.56487         17.9721         2.86336         29.8666 
        2.57716          17.888         2.82976          29.652 
        2.58942         17.7379         2.79678         29.4893 
        2.60167         17.5182         2.76436         29.2933 
        2.61395           17.39          2.7324         29.1021 
        2.62624         17.3124          2.7009         28.9111 
        2.63849         17.1081         2.66999         28.7464 
        2.65073          16.927         2.63961         28.5491 
        2.66302         16.7963         2.60959          28.382 
         2.6753         16.7251         2.58005         28.1993 
        2.68756         16.5915         2.55103         28.0393 
        2.69983         16.4202         2.52244         27.8316 
        2.71213          16.259         2.49423         27.6567 
        2.72441         16.1426         2.46649         27.4805 
        2.73665         16.0379         2.43925         27.3081 
         2.7489         15.9308         2.41243         27.1439 
        2.76118         15.8169         2.38594         26.9697 
        2.77349         15.7016         2.35978         26.8105 
        2.78576         15.5787         2.33411         26.6571 
        2.79802         15.4803         2.30884         26.4779 
        2.81031          15.381         2.28389         26.3133 
        2.82259         15.2471         2.25931         26.1664 
        2.83483         15.2085         2.23519         25.9987 
         2.8471         15.1185         2.21137         25.8214 
         2.8594         14.9693         2.18783           25.66 
         2.8717         14.9191         2.16464         25.5091 
        2.88396          14.818         2.14187         25.3493 
        2.89619         14.7716         2.11947          25.197 
        2.90847         14.6531         2.09731         25.0562 
        2.92072         14.5864          2.0755          24.884 
        2.93299         14.5023         2.05399          24.754 
        2.94526         14.4493         2.03277         24.6105 
        2.95753         14.4208         2.01185         24.4484 
        2.96982         14.3145         1.99119          24.304 
        2.98209         14.2387         1.97086         24.1638 
        2.99436         14.2152          1.9508         24.0124 
        3.00666         14.1758         1.93099         23.8625 
        3.01894         14.1097         1.91149         23.7301 
        3.03119         14.0816         1.89228         23.5887 
        3.04345         14.0127         1.87334         23.4429 
        3.05573         14.0187         1.85462         23.3061 
          3.068         13.9343         1.83617          23.168 
        3.08026         13.9277           1.818         23.0211 
        3.09254         13.8411         1.80004         22.8891 
        3.10483         13.8741         1.78231         22.7617 
         3.1171         13.9225         1.76485         22.6295 
        3.12933         13.8674         1.74767         22.4967 
        3.14159         13.7991         1.73069         22.3544 
