# k  (h/Mpc)    Pcb(k)  (Mpc/h)^3    Pcb_linear(k) (Mpc/h)^3    Pcb_NL(k) (Mpc/h)^3   ShotnoiseSubtracted = false
      0.0156606         15634.2         15697.4         15588.6 
      0.0273761         13445.9         13573.5           13460 
      0.0384619         10189.1         10226.5         10131.8 
      0.0498308         7896.41         8044.01         7950.74 
      0.0625568         6668.34          6836.5         6751.55 
      0.0751274         5908.74         5808.38         5687.12 
      0.0867833         4597.03         4676.41         4641.15 
      0.0984825         3847.29         3700.79          3739.5 
       0.111151         3272.51          3090.1         3134.56 
       0.123864          2935.7          2784.8          2821.4 
       0.135742         2664.71         2504.23         2541.44 
        0.14762         2305.87         2141.24         2239.25 
       0.160083          1938.1         1784.85         1902.67 
       0.172465          1728.5         1557.83         1706.73 
       0.184281         1579.96         1436.14          1587.9 
       0.196406         1469.19         1326.27         1458.06 
       0.209011         1362.83         1180.04         1318.31 
       0.221538          1229.6         1031.25         1220.03 
       0.233611         1161.05         922.696         1135.08 
       0.245665         1061.85         851.614         1045.59 
       0.258103         1027.95         792.779         985.113 
       0.270422         924.225         728.472         921.473 
       0.282519         861.673         661.129         864.872 
       0.294636         853.061         602.362         815.297 
       0.306978         768.297         557.286         777.855 
       0.319417         745.193          521.03         732.345 
        0.33169         702.302         486.326         690.886 
       0.343948          670.01         450.609         666.794 
       0.356249          630.58         417.113         639.673 
       0.368458          611.22         389.058         606.825 
        0.38068         591.758         365.595         581.379 
       0.392856         558.309         344.178         558.844 
       0.405069         534.244         323.235         541.483 
       0.417459         512.577         302.958         516.946 
       0.429752         500.421         284.755         498.336 
       0.441978         483.891         268.779         484.216 
       0.454294         458.276         254.271         463.268 
        0.46658         449.383         240.659         452.162 
       0.478753         435.984         227.817         437.102 
       0.490964         420.131         215.755         422.784 
       0.503334         397.596         204.621         411.749 
       0.515665         396.344         194.468         402.795 
       0.527909         382.079         185.096         391.585 
       0.540159         372.476         176.228           380.6 
        0.55248         365.235         167.815          370.18 
       0.564743         359.926         160.024         363.239 
        0.57686         346.018         152.864         352.703 
       0.589077         334.352         146.105          344.91 
       0.601441         330.751         139.678         337.125 
        0.61382         324.775         133.618         330.582 
       0.626067         319.369         127.963         323.377 
       0.638306         305.474         122.638         317.209 
       0.650632         300.353         117.593         308.068 
       0.662899         298.127         112.865         304.153 
       0.675076          286.69         108.435         298.337 
       0.687267         279.615         104.236         291.439 
       0.699615         275.441         100.208         286.398 
       0.711937          271.01         96.3992         281.242 
       0.724148         263.005          92.821         277.007 
       0.736433         257.365         89.4068         271.338 
       0.748747         253.137         86.1592         266.173 
       0.761037         248.699         83.0808         261.896 
       0.773197         245.322         80.1846         258.414 
       0.785376         241.942         77.4232          253.69 
       0.797761         236.144         74.7492         249.982 
       0.810096         233.169          72.212         246.322 
       0.822371         224.392          69.805         242.235 
       0.834626         223.806         67.5121         238.583 
       0.846916          219.26         65.3167         235.105 
       0.859215         219.064         63.2183         231.684 
       0.871383         213.216         61.2334          228.08 
        0.88363         211.497         59.3223         225.709 
       0.895928         206.629          57.486         222.194 
       0.908253         201.006         55.7243         218.499 
       0.920535         200.348         54.0428          215.56 
       0.932774         193.817         52.4368         212.552 
        0.94508         192.097         50.8883         210.321 
       0.957324          191.67         49.4102         207.159 
        0.96953         189.083         47.9956         204.148 
       0.981769         183.233         46.6331         202.273 
       0.994071         182.417         45.3173         199.615 
         1.0064          178.23         44.0502         196.582 
        1.01868         175.864         42.8355         194.363 
        1.03092         172.826         41.6722         192.285 
         1.0432         169.481         40.5481         189.889 
        1.05553          166.88         39.4613         187.601 
        1.06777         166.724         38.4224         185.703 
           1.08         162.643         37.4221          183.28 
        1.09227         160.765         36.4543         181.401 
         1.1046         158.265         35.5173         179.375 
         1.1169         155.901          34.615         176.928 
        1.12915         153.528         33.7487         175.246 
        1.14142         151.111         32.9103         172.958 
        1.15365         149.161          32.103         171.144 
        1.16585         147.093          31.325         168.912 
        1.17807         145.073         30.5719         167.694 
        1.19037         144.157         29.8388         165.953 
        1.20276         141.476         29.1248         163.914 
        1.21504         139.417         28.4399         162.152 
        1.22728         136.703         27.7799         160.149 
        1.23954         136.083         27.1393         158.897 
        1.25184         133.411         26.5179         157.092 
        1.26414         131.487         25.9156         155.443 
        1.27632         130.974         25.3375          154.59 
         1.2886         128.639         24.7731          152.39 
        1.30093          125.25         24.2239         150.763 
        1.31316         124.789         23.6954         149.134 
        1.32541         122.991         23.1826         148.018 
        1.33772         121.797         22.6822         146.414 
        1.35005         120.161         22.1962         144.783 
        1.36225         118.716         21.7295         143.494 
        1.37447         116.564         21.2753         141.888 
        1.38676         115.633         20.8321         140.462 
        1.39907         113.167         20.4008         139.175 
        1.41133         111.692         19.9836         138.026 
        1.42358         110.131         19.5785         136.693 
        1.43591         109.316         19.1819         135.155 
        1.44818         108.269         18.7984         134.046 
        1.46037         106.153         18.4278          132.68 
        1.47263         104.968         18.0651         131.682 
        1.48494         103.751         17.7108         130.219 
        1.49724         102.211         17.3663         128.917 
        1.50952         100.446         17.0317         127.786 
        1.52178         99.8008         16.7064          126.57 
        1.53409         98.3858         16.3883         125.487 
        1.54637          96.724         16.0792         124.369 
        1.55858         95.4153         15.7798         123.147 
        1.57081         94.0833         15.4876         122.086 
        1.58313          93.029          15.201         120.941 
        1.59544         92.0256         14.9219         119.878 
        1.60767         90.6542         14.6515         118.724 
        1.61994         89.3387         14.3869          117.95 
        1.63225         88.0978         14.1283         116.518 
        1.64452         86.7842         13.8768         115.558 
        1.65676         85.6364         13.6322         114.604 
          1.669         85.0476         13.3934         113.679 
        1.68133         83.7755         13.1587           112.6 
        1.69363         82.8341         12.9304         111.685 
        1.70585         81.6031         12.7089         110.648 
        1.71809         80.3826         12.4922         109.725 
        1.73038         79.6427         12.2799         108.715 
        1.74268         78.3624         12.0724         107.789 
        1.75493         77.6493         11.8706         106.818 
        1.76714         76.3636          11.674         105.951 
        1.77942         75.7844         11.4808         104.976 
        1.79173         74.4892         11.2915         104.126 
        1.80402         73.7826         11.1069         103.304 
         1.8163         72.7375         10.9265         102.255 
         1.8286         71.7043         10.7498         101.497 
         1.8409         70.8898         10.5772         100.615 
        1.85315         69.7895         10.4089         99.8488 
        1.86537         69.0805         10.2446         98.9745 
        1.87765         68.3651         10.0833         98.0396 
        1.88995         67.3145         9.92509         97.3289 
        1.90221         66.5163         9.77081         96.4884 
        1.91445         65.2907         9.62006          95.695 
        1.92674         64.6833         9.47197         94.9251 
        1.93902         63.8671           9.327         94.0711 
        1.95124         63.4016         9.18583         93.4115 
         1.9635         62.2699         9.04723         92.4772 
        1.97583         61.6229         8.91061         91.8691 
        1.98812         60.8888         8.77734         91.0546 
        2.00039         59.8951         8.64706         90.3167 
        2.01264         59.3784         8.51954         89.5605 
        2.02492         58.5074         8.39442         88.8612 
        2.03717         57.6824         8.27201         88.0722 
        2.04942         57.1062         8.15221         87.4627 
        2.06171         56.1882         8.03438          86.701 
        2.07397         55.5947         7.91913         86.0635 
        2.08629         55.0782         7.80567         85.3115 
        2.09857         54.3382          7.6947         84.6599 
        2.11081         53.2212         7.58634         83.9089 
        2.12309         52.9609         7.47982          83.327 
        2.13538         52.1842         7.37518         82.6384 
        2.14763         51.6157          7.2729         81.9924 
        2.15986         50.7173          7.1728         81.3319 
        2.17214         50.2002         7.07418         80.7098 
        2.18443         49.7656         6.97731         80.1142 
        2.19671         48.8614         6.88238         79.4316 
        2.20898         48.6319         6.78933         78.8174 
        2.22126         47.8719          6.6979         78.1694 
        2.23354         47.2318         6.60819         77.6094 
         2.2458         46.7395         6.52027         77.0354 
        2.25807         46.2896         6.43388         76.3784 
        2.27035         45.6723         6.34897         75.7922 
        2.28263         44.9566         6.26565         75.1926 
         2.2949         44.5284         6.18386         74.6317 
        2.30718         43.9196          6.1035         74.0889 
        2.31946         43.3306         6.02454         73.5432 
        2.33169         42.8375         5.94731         72.9662 
        2.34393         42.1334         5.87132         72.4111 
        2.35622         41.9001         5.79642         71.8525 
        2.36847         41.3676         5.72303         71.3445 
        2.38076         40.9004         5.65069         70.7723 
        2.39305         40.3665         5.57962         70.2645 
        2.40534         39.9795         5.50977         69.6854 
        2.41762         39.5662         5.44113         69.1424 
        2.42989         38.9198         5.37376         68.6883 
        2.44216          38.661         5.30753         68.1561 
         2.4544         38.2109         5.24258         67.6464 
        2.46667         37.7503         5.17856         67.1113 
        2.47897          37.318         5.11546         66.6363 
        2.49124         36.8219         5.05359         66.1517 
        2.50349         36.3257         4.99283         65.6539 
        2.51578         35.9357         4.93289         65.2135 
        2.52805         35.8268         4.87403         64.7114 
        2.54029         35.2829         4.81629         64.2213 
        2.55257         34.7811          4.7593         63.7729 
        2.56487          34.501         4.70313         63.3295 
        2.57716         34.0867         4.64795         62.8955 
        2.58942         33.6891         4.59377          62.413 
        2.60167         33.2129         4.54051         61.9463 
        2.61395         32.9714         4.48802         61.5135 
        2.62624         32.7109         4.43628         61.0652 
        2.63849         32.3855         4.38552         60.6415 
        2.65073         32.0366         4.33561         60.1766 
        2.66302          31.692          4.2863         59.7592 
         2.6753         31.3027         4.23779         59.3432 
        2.68756         30.8704         4.19012         58.8954 
        2.69983         30.6671         4.14316         58.5101 
        2.71213         30.3681         4.09682         58.1154 
        2.72441         30.1635         4.05127         57.6835 
        2.73665         29.8615         4.00652         57.2719 
         2.7489         29.6451         3.96247         56.8779 
        2.76118         29.2338         3.91895         56.4832 
        2.77349         29.0859         3.87598         56.0976 
        2.78576         28.8844         3.83383          55.688 
        2.79802         28.4941         3.79232          55.322 
        2.81031         28.2488         3.75133         54.9449 
        2.82259         28.0269         3.71097         54.5435 
        2.83483         27.7533         3.67134         54.1701 
         2.8471         27.4367         3.63223         53.8089 
         2.8594         27.3075         3.59356         53.4541 
         2.8717         27.0038         3.55547         53.0819 
        2.88396         26.8337         3.51807         52.6973 
        2.89619         26.5972         3.48128         52.3398 
        2.90847         26.4152         3.44488          51.999 
        2.92072         26.2734         3.40905         51.6372 
        2.93299         26.1319         3.37372         51.2808 
        2.94526         25.8551         3.33886         50.9548 
        2.95753         25.7171          3.3045         50.6226 
        2.96982         25.6652         3.27057         50.2786 
        2.98209         25.4186         3.23718         49.9469 
        2.99436         25.2005         3.20423         49.6024 
        3.00666         25.1951         3.17168         49.2766 
        3.01894         24.9927         3.13965         48.9291 
        3.03119         24.8716         3.10811         48.6118 
        3.04345         24.7666           3.077         48.3113 
        3.05573         24.7065         3.04625         47.9941 
          3.068         24.5906         3.01595         47.6752 
        3.08026         24.4457          2.9861         47.3576 
        3.09254         24.3764         2.95659         47.0515 
        3.10483         24.3744         2.92748         46.7509 
         3.1171         24.3154          2.8988         46.4468 
        3.12933         24.2626         2.87059          46.143 
        3.14159         24.1316         2.84269         45.8413 
