# k  (h/Mpc)    Pcb(k)  (Mpc/h)^3    Pcb_linear(k) (Mpc/h)^3    Pcb_NL(k) (Mpc/h)^3   ShotnoiseSubtracted = false
      0.0156606         24089.1         24235.3         24034.8 
      0.0273761         20619.7         20951.8         20702.7 
      0.0384619           15577         15783.8         15559.4 
      0.0498308         12013.7         12414.5         12187.7 
      0.0625568         10151.7         10550.5         10350.2 
      0.0751274         9056.08         8963.63         8683.41 
      0.0867833         7004.78         7216.62         7128.85 
      0.0984825         5941.12         5710.97         5785.34 
       0.111151         5093.41         4768.52         4864.22 
       0.123864         4560.01         4297.38         4374.44 
       0.135742         4165.44         3864.39          3941.3 
        0.14762         3633.22         3304.24         3506.47 
       0.160083         3101.64         2754.26         3005.75 
       0.172465         2765.89         2403.94         2724.65 
       0.184281         2498.88         2216.14         2536.06 
       0.196406         2371.27          2046.6         2339.76 
       0.209011          2225.5         1820.95         2123.75 
       0.221538         2000.72         1591.33         1989.23 
       0.233611         1927.36         1423.83         1869.23 
       0.245665         1744.14         1314.14         1728.93 
       0.258103         1737.47         1223.35         1634.28 
       0.270422         1549.26         1124.12         1538.28 
       0.282519         1469.59          1020.2         1461.73 
       0.294636         1436.75         929.512         1387.26 
       0.306978         1319.66         859.954         1331.95 
       0.319417         1298.91         804.007          1256.7 
        0.33169         1218.99         750.454         1192.61 
       0.343948         1173.99         695.339         1157.32 
       0.356249         1116.58         643.651         1116.26 
       0.368458         1067.63         600.358         1070.18 
        0.38068         1055.67         564.153         1031.49 
       0.392856         1004.89         531.103         997.633 
       0.405069         950.329         498.787          964.27 
       0.417459         913.945         467.496         934.187 
       0.429752          915.06         439.407         902.091 
       0.441978         882.805         414.754         880.365 
       0.454294          845.67         392.367          845.88 
        0.46658         822.081         371.362          829.39 
       0.478753         808.252         351.546         805.585 
       0.490964         778.061         332.932          781.75 
       0.503334         745.996         315.751         765.703 
       0.515665         742.337         300.085         748.124 
       0.527909         710.645         285.622         734.059 
       0.540159          694.91         271.939         716.829 
        0.55248         680.194         258.956         698.892 
       0.564743         673.557         246.934          687.15 
        0.57686         653.705         235.885         669.751 
       0.589077         645.365         225.455         655.727 
       0.601441         627.119         215.537         643.677 
        0.61382          608.76         206.186         632.225 
       0.626067         603.062         197.461          621.36 
       0.638306          581.41         189.244         608.683 
       0.650632         575.857         181.458         595.542 
       0.662899         571.102         174.163         587.977 
       0.675076         554.785         167.326         580.785 
       0.687267         538.116         160.847         567.552 
       0.699615         538.241         154.631         558.585 
       0.711937         524.637         148.754         547.936 
       0.724148         508.629         143.232         541.247 
       0.736433         497.156         137.964         532.046 
       0.748747         490.798         132.953         522.984 
       0.761037          482.34         128.202         517.038 
       0.773197         473.522         123.733         508.101 
       0.785376         468.875         119.472         501.034 
       0.797761         454.869         115.346         494.398 
       0.810096          447.59         111.431         487.874 
       0.822371         437.614         107.716         480.192 
       0.834626         432.403         104.178         474.992 
       0.846916         427.257          100.79         467.619 
       0.859215         420.261         97.5523         460.708 
       0.871383         411.528         94.4894          454.82 
        0.88363         405.189         91.5405         450.282 
       0.895928         400.611         88.7068         443.469 
       0.908253         391.008         85.9883         436.079 
       0.920535         381.185         83.3936         431.903 
       0.932774         376.489         80.9153         425.178 
        0.94508         370.772         78.5259         421.176 
       0.957324         365.182          76.245         415.583 
        0.96953         360.557         74.0622         410.547 
       0.981769         352.338         71.9597         405.971 
       0.994071         351.057         69.9293          401.16 
         1.0064         344.671          67.974         395.369 
        1.01868         340.181         66.0995         390.494 
        1.03092         330.512         64.3045         387.119 
         1.0432         327.155         62.5699         382.457 
        1.05553          323.96         60.8929         377.162 
        1.06777         318.726         59.2897         372.766 
           1.08         311.675         57.7462         368.697 
        1.09227         311.361         56.2528         364.336 
         1.1046         304.411         54.8069         361.061 
         1.1169         298.733         53.4146         356.352 
        1.12915         293.844         52.0777         352.514 
        1.14142         288.015         50.7839          348.53 
        1.15365         284.432         49.5382           344.9 
        1.16585         280.155         48.3377         341.109 
        1.17807         277.225         47.1756         337.166 
        1.19037         271.268         46.0443         334.293 
        1.20276         268.767         44.9425         329.998 
        1.21504          263.41         43.8856         326.273 
        1.22728         259.328         42.8672         323.125 
        1.23954         257.528         41.8788          319.46 
        1.25184         251.648         40.9198         316.167 
        1.26414         246.999         39.9905         313.188 
        1.27632         243.927         39.0984         310.233 
         1.2886         241.118         38.2274         306.811 
        1.30093         236.311         37.3799         302.812 
        1.31316         231.477         36.5644         300.199 
        1.32541         230.153         35.7731          296.74 
        1.33772         225.679         35.0009         294.193 
        1.35005         222.826          34.251         290.852 
        1.36225         218.743         33.5308          288.15 
        1.37447         215.054           32.83         284.786 
        1.38676         212.912         32.1461          282.74 
        1.39907         209.703         31.4806         279.245 
        1.41133         205.733         30.8368         276.292 
        1.42358          202.96         30.2117          273.72 
        1.43591         200.014         29.5996         271.335 
        1.44818         196.166         29.0079         268.366 
        1.46037         194.501          28.436         265.519 
        1.47263         190.917         27.8763         262.819 
        1.48494         189.433         27.3296         259.773 
        1.49724         185.568          26.798         258.207 
        1.50952         182.673         26.2816         254.982 
        1.52178         179.844         25.7797         252.766 
        1.53409         177.074         25.2888         250.265 
        1.54637         174.063         24.8118         248.213 
        1.55858         172.111         24.3498         245.651 
        1.57081         169.093          23.899         243.104 
        1.58313         167.097         23.4567         240.666 
        1.59544         163.862         23.0259         238.538 
        1.60767         162.444         22.6088         236.444 
        1.61994           159.5         22.2005         233.964 
        1.63225         156.874         21.8015         231.608 
        1.64452         154.309         21.4134         229.566 
        1.65676         152.438         21.0359         227.648 
          1.669         150.561         20.6673         225.258 
        1.68133         147.477         20.3053         223.198 
        1.69363         145.039         19.9529         221.414 
        1.70585         142.813         19.6112         219.257 
        1.71809          140.83         19.2768          216.96 
        1.73038         138.654         18.9492         215.084 
        1.74268         137.429         18.6289             213 
        1.75493         134.792         18.3176         211.303 
        1.76714         133.663         18.0142         209.412 
        1.77942         131.056         17.7161         207.569 
        1.79173         129.358          17.424         205.488 
        1.80402         127.269         17.1391         203.673 
         1.8163         125.186         16.8607         202.073 
         1.8286         123.243          16.588         200.098 
         1.8409         121.577         16.3217         198.244 
        1.85315         119.391          16.062         196.596 
        1.86537         117.997         15.8085         194.909 
        1.87765         116.496         15.5596         193.234 
        1.88995         114.576         15.3154         191.399 
        1.90221         113.062         15.0774         189.904 
        1.91445         111.256         14.8447         188.137 
        1.92674         109.327         14.6162         186.416 
        1.93902         108.099         14.3925         184.738 
        1.95124         106.466         14.1747         183.204 
         1.9635         104.814         13.9608         181.615 
        1.97583         103.244           13.75         179.963 
        1.98812         101.667         13.5443         178.746 
        2.00039         100.558         13.3433             177 
        2.01264          99.252         13.1465         175.533 
        2.02492         97.4948         12.9534         173.925 
        2.03717         96.1968         12.7646         172.574 
        2.04942         94.8999         12.5797         171.052 
        2.06171         93.3582         12.3979         169.501 
        2.07397         91.9979           12.22         168.252 
        2.08629         90.6257         12.0449         166.799 
        2.09857         89.5348         11.8737         165.465 
        2.11081          88.141         11.7065         163.948 
        2.12309          86.951         11.5421         162.658 
        2.13538         85.5512         11.3807          161.28 
        2.14763         84.2367         11.2228         159.941 
        2.15986         83.4006         11.0684          158.51 
        2.17214         82.1484         10.9162         157.362 
        2.18443         81.2544         10.7667         156.159 
        2.19671         80.1931         10.6202          154.79 
        2.20898         78.9119         10.4766         153.403 
        2.22126         77.8789         10.3355         152.279 
        2.23354         76.8056         10.1971         151.112 
         2.2458         75.2769         10.0614         149.783 
        2.25807         74.7365         9.92813         148.606 
        2.27035         73.6556         9.79712          147.43 
        2.28263         72.6868         9.66854         146.303 
         2.2949         71.4768         9.54232         145.147 
        2.30718         70.3544         9.41833          143.95 
        2.31946         69.5603         9.29648          142.72 
        2.33169          68.518         9.17731         141.655 
        2.34393         67.7022         9.06005         140.681 
        2.35622         66.7638         8.94446         139.448 
        2.36847          65.857         8.83121         138.462 
        2.38076         64.7403         8.71959          137.31 
        2.39305         64.1797         8.60992         136.319 
        2.40534         63.1169         8.50214          135.19 
        2.41762         62.5532         8.39621         134.139 
        2.42989         61.4492         8.29226         133.137 
        2.44216         60.9196         8.19007         132.049 
         2.4544         60.1754         8.08984          131.11 
        2.46667         59.0879         7.99105         130.114 
        2.47897         58.6909         7.89368         129.015 
        2.49124         57.8571         7.79821         128.047 
        2.50349         56.8248         7.70445         127.116 
        2.51578         56.4056         7.61195         126.221 
        2.52805         55.4481         7.52113         125.208 
        2.54029         54.9426         7.43202         124.272 
        2.55257         54.2523         7.34409         123.388 
        2.56487         53.7507         7.25742         122.475 
        2.57716         53.1177         7.17226          121.55 
        2.58942         52.3745         7.08866         120.668 
        2.60167         51.6878         7.00647         119.808 
        2.61395          51.253         6.92547         118.889 
        2.62624         50.5445         6.84563         117.961 
        2.63849         49.9202         6.76731         117.159 
        2.65073         49.2288         6.69029         116.264 
        2.66302         48.7922          6.6142         115.461 
         2.6753         48.1032         6.53934         114.632 
        2.68756          47.739         6.46579         113.774 
        2.69983         47.2126         6.39332         112.954 
        2.71213         46.6975         6.32181         112.148 
        2.72441         46.2044         6.25152         111.324 
        2.73665         45.6524         6.18247         110.556 
         2.7489         45.2155          6.1145         109.784 
        2.76118           44.79         6.04735         108.971 
        2.77349         44.3349         5.98104         108.219 
        2.78576          43.868         5.91599          107.44 
        2.79802         43.4923         5.85194         106.736 
        2.81031           43.02         5.78869         105.976 
        2.82259          42.572          5.7264          105.18 
        2.83483         42.1191         5.66526          104.49 
         2.8471         41.6522          5.6049         103.743 
         2.8594         41.2907         5.54523         103.021 
         2.8717         40.9758         5.48645         102.348 
        2.88396         40.5227         5.42874         101.641 
        2.89619         40.3015         5.37197          100.91 
        2.90847         39.8977         5.31579         100.171 
        2.92072         39.5348         5.26052         99.5585 
        2.93299         39.2881           5.206         98.8895 
        2.94526         38.9748          5.1522         98.1817 
        2.95753           38.73         5.09918         97.5202 
        2.96982          38.281         5.04682         96.8864 
        2.98209         38.0453          4.9953         96.2178 
        2.99436         37.9068         4.94446         95.5465 
        3.00666         37.6705         4.89423         94.9061 
        3.01894         37.4072          4.8448         94.2773 
        3.03119         37.1647         4.79613         93.6783 
        3.04345         36.9239         4.74812         93.0701 
        3.05573         36.9005         4.70067          92.442 
          3.068         36.5799         4.65392         91.8372 
        3.08026         36.3724         4.60785         91.2293 
        3.09254         36.3996         4.56233         90.6357 
        3.10483         36.1833          4.5174         90.0444 
         3.1171         36.0773         4.47315         89.4445 
        3.12933         35.9251         4.42961         88.8534 
        3.14159         35.8364         4.38655         88.2726 
