# k  (h/Mpc)    P(k)  (Mpc/h)^3    P_linear(k)  (Mpc/h)^3     P_NL(k)  ShotnoiseSubtracted = false
      0.0156606         23992.7         24138.5         23938.8 
      0.0273761         20504.6         20833.6         20585.8 
      0.0384619         15475.9         15680.7         15457.8 
      0.0498308         11929.4         12326.4         12101.2 
      0.0625568         10076.4         10471.3         10272.5 
      0.0751274         8986.46         8893.98         8615.94 
      0.0867833         6949.94          7159.3         7072.24 
      0.0984825         5894.04          5664.9         5738.66 
       0.111151         5052.69         4729.56         4824.47 
       0.123864         4523.43         4261.93         4338.36 
       0.135742         4131.86          3832.3         3908.57 
        0.14762          3603.9         3276.65         3477.19 
       0.160083         3076.72         2731.16         2980.54 
       0.172465         2743.67          2383.7         2701.71 
       0.184281         2478.87         2197.43         2514.65 
       0.196406         2352.38         2029.28         2319.96 
       0.209011         2207.92          1805.5         2105.73 
       0.221538         1984.99         1577.81         1972.32 
       0.233611         1912.29         1411.71         1853.31 
       0.245665         1730.55         1302.94          1714.2 
       0.258103         1724.04         1212.91         1620.34 
       0.270422         1537.44         1114.51         1525.14 
       0.282519         1458.43         1011.47         1449.23 
       0.294636         1425.91         921.557         1375.39 
       0.306978         1309.78          852.59         1320.54 
       0.319417          1289.3         797.118         1245.94 
        0.33169         1210.05          744.02         1182.38 
       0.343948         1165.44         689.374         1147.39 
       0.356249         1108.56         638.127         1106.68 
       0.368458         1060.02         595.203         1060.99 
        0.38068         1048.23          559.31         1022.64 
       0.392856          997.87         526.542         989.065 
       0.405069          943.76           494.5         955.982 
       0.417459         907.713         463.478         926.157 
       0.429752         908.904          435.63         894.335 
       0.441978         876.924         411.187         872.793 
       0.454294         840.129         388.992         838.604 
        0.46658         816.746         368.166         822.252 
       0.478753          803.07         348.519          798.65 
       0.490964         773.177         330.064         775.016 
       0.503334         741.355         313.032          759.11 
       0.515665         737.766           297.5         741.681 
       0.527909         706.326         283.162         727.738 
       0.540159         690.771         269.596         710.653 
        0.55248         676.198         256.724          692.87 
       0.564743         669.662         244.806          681.23 
        0.57686         649.976         233.852          663.98 
       0.589077         641.741         223.512         650.076 
       0.601441         623.654          213.68         638.129 
        0.61382         605.444         204.409         626.775 
       0.626067          599.86         195.758         616.004 
       0.638306         578.363         187.612         603.436 
       0.650632         572.881         179.894         590.407 
       0.662899         568.209         172.661         582.907 
       0.675076         552.034         165.883         575.777 
       0.687267         535.504          159.46         562.658 
       0.699615          535.69         153.297         553.767 
       0.711937         522.201         147.471          543.21 
       0.724148         506.314         141.997         536.579 
       0.736433         494.938         136.774         527.457 
       0.748747         488.663         131.806         518.473 
       0.761037         480.281         127.096         512.578 
       0.773197         471.548         122.666         503.718 
       0.785376          466.98         118.441         496.712 
       0.797761         453.076         114.351         490.132 
       0.810096          445.86         110.469         483.664 
       0.822371         435.974         106.787         476.048 
       0.834626         430.823         103.279         470.893 
       0.846916          425.73         99.9207         463.584 
       0.859215           418.8         96.7105         456.732 
       0.871383         410.138          93.674         450.895 
        0.88363         403.867         90.7505         446.396 
       0.895928          399.33         87.9412         439.642 
       0.908253         389.792         85.2462         432.316 
       0.920535         380.051         82.6738         428.175 
       0.932774         375.408          80.217         421.508 
        0.94508         369.741         77.8481          417.54 
       0.957324           364.2          75.587         411.996 
        0.96953         359.619         73.4229         407.004 
       0.981769         351.464         71.3386         402.467 
       0.994071         350.218         69.3256         397.697 
         1.0064         343.883         67.3872         391.956 
        1.01868         339.434          65.529         387.123 
        1.03092         329.829         63.7494         383.778 
         1.0432         326.511         62.0298         379.156 
        1.05553         323.353         60.3672         373.906 
        1.06777         318.172         58.7779         369.548 
           1.08         311.155         57.2476         365.514 
        1.09227          310.88         55.7672         361.191 
         1.1046         303.974         54.3337         357.944 
         1.1169         298.339         52.9534         353.275 
        1.12915         293.475         51.6281          349.47 
        1.14142         287.685         50.3455         345.521 
        1.15365         284.146         49.1105         341.922 
        1.16585         279.904         47.9203         338.164 
        1.17807         277.004         46.7683         334.255 
        1.19037         271.078         45.6467         331.407 
        1.20276         268.617         44.5544         327.149 
        1.21504         263.286         43.5067         323.456 
        1.22728         259.236         42.4971         320.335 
        1.23954         257.455         41.5172         316.701 
        1.25184         251.599         40.5664         313.437 
        1.26414         246.983         39.6451         310.484 
        1.27632         243.931         38.7608         307.554 
         1.2886         241.141         37.8973         304.162 
        1.30093         236.361         37.0572         300.197 
        1.31316         231.551         36.2487         297.607 
        1.32541         230.255         35.4642         294.178 
        1.33772         225.789         34.6987         291.652 
        1.35005         222.968         33.9553         288.341 
        1.36225         218.907         33.2413         285.661 
        1.37447          215.23         32.5465         282.327 
        1.38676         213.105         31.8685         280.298 
        1.39907         209.916         31.2087         276.833 
        1.41133         205.965         30.5705         273.906 
        1.42358         203.201         29.9508         271.356 
        1.43591         200.275          29.344         268.991 
        1.44818          196.44         28.7574         266.048 
        1.46037         194.793         28.1904         263.226 
        1.47263         191.223         27.6356         260.549 
        1.48494         189.758         27.0935         257.529 
        1.49724         185.898         26.5665         255.977 
        1.50952         183.012         26.0547          252.78 
        1.52178         180.193          25.557         250.583 
        1.53409          177.44         25.0704         248.104 
        1.54637         174.437         24.5975         246.069 
        1.55858         172.489         24.1395          243.53 
        1.57081         169.493         23.6926         241.004 
        1.58313         167.508         23.2541         238.587 
        1.59544         164.273         22.8271         236.478 
        1.60767         162.878         22.4135         234.402 
        1.61994         159.931         22.0088         231.943 
        1.63225          157.31         21.6132         229.607 
        1.64452         154.751         21.2284         227.583 
        1.65676         152.887         20.8543         225.681 
          1.669         151.017         20.4888         223.312 
        1.68133          147.94         20.1299          221.27 
        1.69363         145.501         19.7806         219.501 
        1.70585         143.286         19.4418         217.363 
        1.71809         141.308         19.1103         215.086 
        1.73038         139.134         18.7855         213.227 
        1.74268         137.918          18.468          211.16 
        1.75493         135.278         18.1594         209.478 
        1.76714         134.159         17.8586         207.603 
        1.77942         131.562         17.5631         205.777 
        1.79173         129.862         17.2735         203.713 
        1.80402         127.774          16.991         201.914 
         1.8163         125.695         16.7151         200.327 
         1.8286         123.753         16.4448          198.37 
         1.8409         122.088         16.1807         196.532 
        1.85315         119.906         15.9233         194.898 
        1.86537         118.513          15.672         193.226 
        1.87765         117.014         15.4252         191.565 
        1.88995         115.097         15.1831         189.745 
        1.90221         113.584         14.9471         188.264 
        1.91445         111.776         14.7165         186.512 
        1.92674         109.849           14.49         184.806 
        1.93902         108.618         14.2682         183.143 
        1.95124         106.989         14.0522         181.622 
         1.9635         105.335         13.8402         180.047 
        1.97583         103.765         13.6312         178.409 
        1.98812         102.187         13.4273         177.202 
        2.00039         101.081          13.228         175.471 
        2.01264         99.7703          13.033         174.017 
        2.02492         98.0103         12.8416         172.423 
        2.03717         96.7144         12.6543         171.083 
        2.04942          95.418          12.471         169.575 
        2.06171         93.8733         12.2908         168.037 
        2.07397         92.5087         12.1145         166.799 
        2.08629         91.1374         11.9409         165.358 
        2.09857         90.0453         11.7711         164.036 
        2.11081         88.6492         11.6054         162.531 
        2.12309         87.4567         11.4424         161.253 
        2.13538          86.059         11.2824         159.887 
        2.14763         84.7364         11.1259         158.559 
        2.15986         83.9026         10.9728         157.141 
        2.17214         82.6491         10.8219         156.003 
        2.18443         81.7544         10.6737          154.81 
        2.19671         80.6878         10.5285         153.453 
        2.20898         79.4036         10.3861         152.078 
        2.22126         78.3699         10.2463         150.963 
        2.23354         77.2942          10.109         149.806 
         2.2458         75.7571         9.97453         148.489 
        2.25807          75.222         9.84237         147.322 
        2.27035         74.1346         9.71249         146.157 
        2.28263         73.1639         9.58502         145.039 
         2.2949         71.9553          9.4599         143.893 
        2.30718         70.8246         9.33698         142.706 
        2.31946         70.0298         9.21618         141.487 
        2.33169         68.9838         9.09804         140.432 
        2.34393         68.1622         8.98179         139.466 
        2.35622         67.2218          8.8672         138.244 
        2.36847         66.3143         8.75493         137.266 
        2.38076         65.1919         8.64427         136.124 
        2.39305         64.6312         8.53555         135.141 
        2.40534         63.5618          8.4287         134.022 
        2.41762         62.9998         8.32369         132.981 
        2.42989         61.8896         8.22062         131.987 
        2.44216         61.3535         8.11932         130.908 
         2.4544         60.6139         8.01996         129.977 
        2.46667         59.5192         7.92203          128.99 
        2.47897         59.1206          7.8255           127.9 
        2.49124         58.2833         7.73084         126.941 
        2.50349         57.2454          7.6379         126.018 
        2.51578         56.8256         7.54619         125.131 
        2.52805         55.8655         7.45616         124.126 
        2.54029         55.3573         7.36782         123.199 
        2.55257          54.663         7.28065         122.322 
        2.56487           54.16         7.19472         121.417 
        2.57716         53.5239          7.1103           120.5 
        2.58942         52.7761         7.02742         119.625 
        2.60167          52.085         6.94595         118.773 
        2.61395         51.6469         6.86564         117.862 
        2.62624         50.9377          6.7865         116.942 
        2.63849         50.3103         6.70885         116.147 
        2.65073         49.6119          6.6325         115.259 
        2.66302         49.1744         6.55706         114.464 
         2.6753         48.4829         6.48285         113.642 
        2.68756         48.1136         6.40993         112.791 
        2.69983         47.5869         6.33809         111.978 
        2.71213         47.0679          6.2672         111.179 
        2.72441         46.5713         6.19752         110.362 
        2.73665         46.0159         6.12906         109.601 
         2.7489         45.5777         6.06168         108.835 
        2.76118         45.1495         5.99511          108.03 
        2.77349          44.694         5.92937         107.284 
        2.78576         44.2247         5.86488         106.512 
        2.79802         43.8439         5.80139         105.814 
        2.81031          43.369         5.73868          105.06 
        2.82259         42.9189         5.67693         104.271 
        2.83483         42.4628         5.61632         103.588 
         2.8471         41.9959         5.55648         102.846 
         2.8594         41.6308         5.49733         102.131 
         2.8717         41.3125         5.43906         101.464 
        2.88396          40.856         5.38185         100.763 
        2.89619         40.6365         5.32556         100.038 
        2.90847         40.2288         5.26987         99.3054 
        2.92072         39.8607         5.21507         98.6985 
        2.93299         39.6153         5.16103         98.0352 
        2.94526         39.3007          5.1077         97.3335 
        2.95753          39.054         5.05513         96.6777 
        2.96982         38.6009         5.00322         96.0495 
        2.98209         38.3632         4.95215         95.3866 
        2.99436         38.2237         4.90174         94.7211 
        3.00666          37.985         4.85195         94.0863 
        3.01894         37.7207         4.80295         93.4629 
        3.03119         37.4764          4.7547          92.869 
        3.04345         37.2362          4.7071         92.2661 
        3.05573         37.2117         4.66006         91.6435 
          3.068         36.8891         4.61372         91.0439 
        3.08026         36.6776         4.56805         90.4412 
        3.09254          36.709         4.52291         89.8528 
        3.10483         36.4888         4.47838         89.2665 
         3.1171         36.3816         4.43451         88.6718 
        3.12933          36.232         4.39134         88.0858 
        3.14159         36.1403         4.34866           87.51 
