# k  (h/Mpc)    P(k)  (Mpc/h)^3    P_linear(k)  (Mpc/h)^3     P_NL(k)  ShotnoiseSubtracted = false
      0.0156606         16839.1           16782         16662.9 
      0.0273761         14447.7           14487         14359.5 
      0.0384619         10933.1         10905.2         10797.5 
      0.0498308         8460.85         8573.21         8466.64 
      0.0625568         7142.18          7283.5         7186.95 
      0.0751274         6334.27         6186.67         6049.37 
      0.0867833         4921.81          4980.2         4939.68 
      0.0984825         4126.99         3940.76         3983.23 
       0.111151         3514.11         3290.17         3339.64 
       0.123864          3150.9         2964.91         3005.48 
       0.135742         2862.48         2666.07         2707.21 
        0.14762         2480.25         2279.53         2388.34 
       0.160083         2088.62         1900.06         2031.52 
       0.172465         1862.82         1658.35         1824.77 
       0.184281         1699.27         1528.77         1697.84 
       0.196406         1584.63         1411.79         1559.75 
       0.209011         1472.49         1256.11         1410.86 
       0.221538         1328.07         1097.71         1308.09 
       0.233611         1258.45         982.154         1218.82 
       0.245665         1147.91         906.483         1123.15 
       0.258103         1117.51         843.851         1058.62 
       0.270422         1001.78         775.395          991.07 
       0.282519         936.809          703.71         931.703 
       0.294636          926.17         641.154         879.181 
       0.306978         836.626         593.172         839.568 
       0.319417         813.074          554.58         790.655 
        0.33169         765.959         517.639         746.375 
       0.343948          731.36          479.62         721.103 
       0.356249         689.114         443.967         692.313 
       0.368458          666.97         414.103         657.606 
        0.38068         647.939         389.132         630.516 
       0.392856         612.175         366.334         606.492 
       0.405069         584.603         344.041         587.748 
       0.417459         561.245         322.459         562.149 
       0.429752         549.936         303.084         542.051 
       0.441978          531.42         286.079         527.006 
       0.454294         504.393         270.637         504.474 
        0.46658         492.991         256.148         492.775 
       0.478753         479.638         242.479          476.62 
       0.490964         461.665         229.639         461.239 
       0.503334         437.834          217.79         449.527 
       0.515665         436.758         206.984         439.777 
       0.527909         420.257         197.008         428.132 
       0.540159         409.612         187.569         416.254 
        0.55248          401.51         178.614         405.014 
       0.564743         396.658         170.322         397.638 
        0.57686         381.284         162.701         386.311 
       0.589077         369.432         155.507         377.713 
       0.601441         364.894         148.666         369.394 
        0.61382         357.308         142.216         362.506 
       0.626067         351.829         136.197         354.783 
       0.638306         337.142          130.53         347.996 
       0.650632         332.179          125.16         338.235 
       0.662899         329.301         120.128          334.12 
       0.675076          316.62         115.412         328.057 
       0.687267         308.654         110.943         320.365 
       0.699615         304.436         106.655         314.996 
       0.711937         299.744         102.602         309.342 
       0.724148         290.123         98.7935         304.715 
       0.736433         283.688         95.1596         298.643 
       0.748747         279.411          91.703         293.038 
       0.761037         274.164         88.4265         288.594 
       0.773197         270.699         85.3439         284.605 
       0.785376         266.599         82.4049         279.676 
       0.797761         259.942         79.5587         275.421 
       0.810096         257.124         76.8583         271.619 
       0.822371         247.557         74.2963         267.118 
       0.834626         246.796         71.8559         263.259 
       0.846916         241.405         69.5193         259.384 
       0.859215         241.348         67.2858         255.652 
       0.871383         234.766         65.1731         251.801 
        0.88363         233.147         63.1391           249.2 
       0.895928         227.802         61.1846         245.261 
       0.908253         221.651         59.3096         241.266 
       0.920535         220.537         57.5199          238.04 
       0.932774         213.769         55.8105         234.756 
        0.94508         211.582         54.1624         232.307 
       0.957324         210.941         52.5892         228.884 
        0.96953         207.876         51.0836         225.677 
       0.981769         201.478         49.6334         223.538 
       0.994071         200.546         48.2329          220.64 
         1.0064         196.052         46.8843         217.317 
        1.01868         193.365         45.5914         214.781 
        1.03092         189.415         44.3533         212.575 
         1.0432         185.869         43.1569         209.952 
        1.05553         183.233         42.0002          207.33 
        1.06777         182.908         40.8944         205.229 
           1.08         178.289         39.8298         202.625 
        1.09227         176.093         38.7997         200.458 
         1.1046         173.409         37.8024         198.316 
         1.1169         170.271         36.8421         195.599 
        1.12915         167.771           35.92         193.799 
        1.14142         165.068         35.0276         191.273 
        1.15365         162.777         34.1684         189.264 
        1.16585         160.455         33.3403         186.809 
        1.17807         158.273         32.5388         185.404 
        1.19037         156.929         31.7585         183.536 
        1.20276         154.327         30.9985         181.254 
        1.21504         151.502         30.2696         179.309 
        1.22728         148.549         29.5671         177.037 
        1.23954         148.007         28.8854          175.74 
        1.25184         145.156         28.2239         173.724 
        1.26414         142.825         27.5829         171.905 
        1.27632         142.282         26.9677         170.865 
         1.2886         140.027         26.3669         168.518 
        1.30093         136.028         25.7824         166.695 
        1.31316         134.944         25.2198         164.831 
        1.32541         133.229         24.6741         163.592 
        1.33772         131.963         24.1414         161.823 
        1.35005         129.967         23.6242         160.008 
        1.36225         128.253         23.1275         158.576 
        1.37447          126.15         22.6441         156.749 
        1.38676         124.714         22.1724         155.268 
        1.39907         122.318         21.7133          153.75 
        1.41133         120.552         21.2693         152.447 
        1.42358          118.82         20.8381         151.008 
        1.43591         117.624          20.416         149.314 
        1.44818         116.435         20.0079         148.059 
        1.46037         114.248         19.6134         146.526 
        1.47263         113.094         19.2273         145.417 
        1.48494         111.376         18.8502         143.743 
        1.49724          109.83         18.4836         142.391 
        1.50952         107.804         18.1274           141.1 
        1.52178         107.267         17.7812         139.684 
        1.53409         105.235         17.4426         138.516 
        1.54637         103.805         17.1136         137.309 
        1.55858         102.036          16.795         135.909 
        1.57081         100.673          16.484         134.753 
        1.58313         99.4884          16.179         133.444 
        1.59544         98.3067         15.8818         132.287 
        1.60767         96.9844         15.5941         131.004 
        1.61994         95.3482         15.3125         130.103 
        1.63225         94.1161         15.0373         128.545 
        1.64452         92.4564         14.7696         127.438 
        1.65676         91.1893         14.5093         126.405 
          1.669         90.5861          14.255         125.378 
        1.68133         88.8697         14.0053         124.193 
        1.69363         87.9927         13.7623         123.141 
        1.70585         86.4235         13.5266         122.016 
        1.71809         85.2652         13.2959         120.896 
        1.73038         84.5565         13.0699         119.849 
        1.74268         83.2717         12.8491         118.781 
        1.75493         82.1581         12.6343         117.719 
        1.76714         80.8691          12.425         116.774 
        1.77942         80.0368         12.2194         115.652 
        1.79173          78.712          12.018         114.746 
        1.80402         78.0892         11.8214           113.8 
         1.8163         76.6566         11.6294         112.665 
         1.8286         75.5786         11.4414         111.766 
         1.8409         74.9091         11.2576         110.799 
        1.85315         73.6972         11.0786         109.927 
        1.86537         72.8486         10.9037         108.985 
        1.87765         72.1823          10.732         107.982 
        1.88995         70.9641         10.5636         107.157 
        1.90221         70.0227         10.3994         106.228 
        1.91445         68.8331          10.239         105.312 
        1.92674          67.922         10.0813         104.465 
        1.93902         67.0665         9.92704         103.524 
        1.95124         66.4946          9.7768         102.761 
         1.9635         65.4233         9.62928         101.744 
        1.97583          64.546         9.48387         101.052 
        1.98812         63.7203         9.34202          100.17 
        2.00039         62.7182         9.20336         99.3381 
        2.01264         62.2173         9.06764         98.5006 
        2.02492         61.2718         8.93447         97.7039 
        2.03717         60.2867         8.80419         96.8416 
        2.04942          59.894         8.67668         96.1643 
        2.06171         58.6834         8.55126         95.3264 
        2.07397          58.079          8.4286         94.6016 
        2.08629         57.4743         8.30784         93.7762 
        2.09857         56.5871         8.18973         93.0413 
        2.11081         55.6065          8.0744         92.2025 
        2.12309         55.2392         7.96102         91.5755 
        2.13538          54.363         7.84966         90.8015 
        2.14763         53.6811          7.7408         90.0798 
        2.15986         52.6624         7.63426         89.3419 
        2.17214          52.287         7.52929           88.62 
        2.18443         51.6539         7.42619           88.01 
        2.19671          50.752         7.32515         87.2521 
        2.20898         50.5587         7.22611           86.56 
        2.22126         49.7139          7.1288         85.8436 
        2.23354         49.0383         7.03331         85.2121 
         2.2458         48.4494         6.93974         84.5772 
        2.25807         47.8524         6.84779         83.8537 
        2.27035         47.3283         6.75743         83.1966 
        2.28263         46.5311         6.66874         82.5353 
         2.2949         46.1611         6.58169         81.9043 
        2.30718          45.331         6.49617         81.3034 
        2.31946         44.8535         6.41212         80.6864 
        2.33169         44.2364         6.32993         80.0578 
        2.34393         43.5519         6.24904          79.451 
        2.35622         43.2717         6.16932         78.8302 
        2.36847         42.6967         6.09121         78.2827 
        2.38076          42.101         6.01422         77.6197 
        2.39305         41.5899         5.93858         77.0725 
        2.40534         41.1442         5.86423         76.4385 
        2.41762         40.7354         5.79117         75.8268 
        2.42989         40.1561         5.71947          75.329 
        2.44216         39.7693         5.64899         74.7337 
         2.4544         39.2662         5.57985         74.1637 
        2.46667         38.8577         5.51172         73.5798 
        2.47897         38.3865         5.44456         73.0496 
        2.49124         37.8591          5.3787         72.5183 
        2.50349         37.3875         5.31404         71.9548 
        2.51578         36.9076         5.25024          71.484 
        2.52805         36.6675          5.1876         70.9236 
        2.54029         36.1729         5.12614          70.367 
        2.55257         35.6234         5.06549         69.8791 
        2.56487         35.3635          5.0057         69.3965 
        2.57716         34.8975         4.94697         68.9061 
        2.58942         34.4545          4.8893         68.3774 
        2.60167         34.0672         4.83262         67.8723 
        2.61395         33.6906         4.77675         67.3865 
        2.62624         33.4544         4.72168         66.8809 
        2.63849         33.1211         4.66766          66.419 
        2.65073         32.7527         4.61454         65.9127 
        2.66302         32.2875         4.56205         65.4403 
         2.6753         31.9298         4.51042         64.9819 
        2.68756          31.489         4.45969         64.4853 
        2.69983         31.3201          4.4097         64.0677 
        2.71213         30.9986         4.36038         63.6304 
        2.72441         30.6882          4.3119         63.1582 
        2.73665         30.3437         4.26427         62.7011 
         2.7489          30.218         4.21739          62.264 
        2.76118         29.7422         4.17107         61.8373 
        2.77349         29.6104         4.12534         61.4021 
        2.78576         29.3765         4.08047         60.9494 
        2.79802         28.9368         4.03629         60.5609 
        2.81031         28.6758         3.99267         60.1331 
        2.82259         28.5396         3.94971         59.6912 
        2.83483          28.189         3.90754         59.2904 
         2.8471         27.8824          3.8659         58.8894 
         2.8594         27.7782         3.82475          58.484 
         2.8717         27.5095         3.78421         58.0806 
        2.88396         27.2577          3.7444         57.6608 
        2.89619         27.0236         3.70524         57.2553 
        2.90847         26.8564          3.6665         56.8829 
        2.92072         26.6211         3.62837         56.4908 
        2.93299          26.484         3.59077         56.1021 
        2.94526         26.2423         3.55366           55.74 
        2.95753         26.0991         3.51709         55.3676 
        2.96982         26.0101         3.48098         54.9885 
        2.98209         25.7438         3.44544         54.6247 
        2.99436         25.5802         3.41037          54.241 
        3.00666         25.4959         3.37573         53.8876 
        3.01894         25.2811         3.34164         53.5085 
        3.03119         25.1939         3.30807         53.1608 
        3.04345         25.0245         3.27495         52.8313 
        3.05573         24.9788         3.24222         52.4819 
          3.068         24.8664         3.20998           52.13 
        3.08026         24.6882         3.17821         51.7794 
        3.09254         24.6105          3.1468         51.4399 
        3.10483          24.624         3.11582         51.1105 
         3.1171         24.5473         3.08529         50.7778 
        3.12933         24.4676         3.05526         50.4399 
        3.14159         24.3457         3.02557         50.1068 
