# k  (h/Mpc)    Pcb(k)  (Mpc/h)^3    Pcb_linear(k) (Mpc/h)^3    Pcb_NL(k) (Mpc/h)^3   ShotnoiseSubtracted = false
      0.0156606         491.081         491.731         489.482 
      0.0273761         428.331         425.725           424.9 
      0.0384619         325.279         320.917         320.953 
      0.0498308         256.112         252.498         252.709 
      0.0625568         216.198         214.632         214.564 
      0.0751274         184.906         182.372         182.126 
      0.0867833         148.142          146.84         146.818 
      0.0984825         118.594          116.21         116.383 
       0.111151          99.068         97.0366          97.185 
       0.123864          88.922         87.4517         87.4885 
       0.135742         79.7757         78.6422         78.6463 
        0.14762         67.9081          67.244         67.3668 
       0.160083         56.5683         56.0524         56.2333 
       0.172465         49.4838         48.9234           49.13 
       0.184281         45.7435         45.1019         45.2991 
       0.196406         41.9129         41.6517         41.7815 
       0.209011         37.4655         37.0596          37.222 
       0.221538          32.949         32.3867         32.6372 
       0.233611         29.4926         28.9778          29.257 
       0.245665         27.4494         26.7455         26.9861 
       0.258103         25.0211         24.8978         25.1309 
       0.270422         23.2776         22.8782         23.1002 
       0.282519         21.1247         20.7633         21.0114 
       0.294636         19.5527         18.9177         19.1816 
       0.306978          17.667         17.5021         17.7726 
       0.319417         16.6911         16.3635         16.6244 
        0.33169          15.537         15.2736         15.5234 
       0.343948         14.5264         14.1519         14.3999 
       0.356249         13.3215         13.0999         13.3889 
       0.368458         12.5328         12.2188         12.4717 
        0.38068         11.6972         11.4819         11.7335 
       0.392856         11.0101         10.8093         11.0632 
       0.405069         10.3895         10.1516           10.39 
       0.417459         9.59634         9.51475         9.76829 
       0.429752         9.10242         8.94308         9.19161 
       0.441978         8.63655         8.44133         8.70607 
       0.454294         8.10386          7.9857         8.23505 
        0.46658         7.79182         7.55819         7.80086 
       0.478753         7.31958         7.15488         7.39529 
       0.490964         7.00127         6.77605         7.03331 
       0.503334         6.66113         6.42638         6.66512 
       0.515665         6.27094         6.10752         6.35983 
       0.527909         6.01167         5.81317         6.04529 
       0.540159         5.69018         5.53469         5.76225 
        0.55248         5.37836         5.27045         5.48679 
       0.564743          5.2321         5.02577         5.26083 
        0.57686         4.98697          4.8009         5.02532 
       0.589077          4.6991         4.58862         4.82216 
       0.601441         4.51671         4.38677         4.61422 
        0.61382          4.3241         4.19645         4.41506 
       0.626067         4.12876         4.01886         4.23477 
       0.638306         3.97676         3.85162         4.06306 
       0.650632         3.84738         3.69318         3.90823 
       0.662899         3.68171         3.54469         3.75139 
       0.675076         3.50118         3.40554         3.61241 
       0.687267         3.36492         3.27368          3.4689 
       0.699615           3.278         3.14716         3.34017 
       0.711937         3.12847         3.02755         3.22657 
       0.724148         3.04467         2.91518         3.10885 
       0.736433         2.90374         2.80795         2.99293 
       0.748747         2.80512         2.70595         2.89938 
       0.761037         2.70619         2.60927         2.79527 
       0.773197         2.60045         2.51831          2.7073 
       0.785376         2.50702         2.43159         2.61492 
       0.797761          2.4236         2.34761          2.5236 
       0.810096         2.36471         2.26792         2.45062 
       0.822371         2.29671         2.19233         2.36585 
       0.834626         2.21849         2.12031         2.28985 
       0.846916         2.14058         2.05137         2.22747 
       0.859215         2.05233         1.98546         2.16098 
       0.871383         1.99133         1.92312         2.09242 
        0.88363         1.93436          1.8631          2.0316 
       0.895928         1.88675         1.80543         1.96989 
       0.908253         1.82806          1.7501         1.91377 
       0.920535         1.77481         1.69729         1.85611 
       0.932774         1.71658         1.64685         1.80082 
        0.94508         1.67145         1.59822         1.75158 
       0.957324          1.6272          1.5518         1.70773 
        0.96953         1.57126         1.50737         1.65993 
       0.981769         1.52109         1.46458         1.61093 
       0.994071         1.48606         1.42326         1.57444 
         1.0064         1.44313         1.38346         1.52977 
        1.01868         1.39975         1.34531         1.49087 
        1.03092         1.37728         1.30878         1.44924 
         1.0432         1.33352         1.27347         1.41336 
        1.05553         1.29677         1.23934         1.37997 
        1.06777         1.25969         1.20671         1.34553 
           1.08         1.23406          1.1753         1.31134 
        1.09227         1.19188          1.1449         1.27838 
         1.1046         1.16494         1.11547         1.24935 
         1.1169         1.13449         1.08714         1.21927 
        1.12915         1.10694         1.05993         1.19009 
        1.14142         1.08483          1.0336         1.16245 
        1.15365         1.05873         1.00824         1.13589 
        1.16585         1.03177        0.983807         1.10876 
        1.17807         1.01516        0.960156         1.08558 
        1.19037        0.975649        0.937131          1.0594 
        1.20276        0.958246        0.914706         1.03382 
        1.21504        0.938535        0.893196         1.01562 
        1.22728         0.92163        0.872468        0.989585 
        1.23954        0.897871        0.852351         0.97127 
        1.25184        0.881828        0.832833        0.948273 
        1.26414        0.860356        0.813919        0.928081 
        1.27632        0.834857        0.795763        0.908424 
         1.2886        0.816976        0.778035        0.888184 
        1.30093        0.795816        0.760787        0.872976 
        1.31316        0.773725        0.744189        0.853784 
        1.32541        0.761634        0.728083        0.837602 
        1.33772        0.748581        0.712367        0.820599 
        1.35005        0.735685        0.697105        0.804552 
        1.36225         0.71796        0.682447        0.787654 
        1.37447        0.702817        0.668184        0.773699 
        1.38676        0.689595        0.654264        0.757309 
        1.39907        0.675053        0.640718        0.743399 
        1.41133        0.658219        0.627616        0.729325 
        1.42358        0.650061        0.614893        0.713971 
        1.43591        0.635572        0.602436        0.702743 
        1.44818        0.623053        0.590393        0.690089 
        1.46037         0.60918        0.578752        0.675651 
        1.47263        0.597924        0.567361        0.664215 
        1.48494        0.587198        0.556234        0.652897 
        1.49724        0.575937        0.545414        0.641257 
        1.50952        0.563497        0.534905          0.6274 
        1.52178        0.553006        0.524689        0.616991 
        1.53409        0.543912        0.514699         0.60668 
        1.54637        0.530493         0.50499        0.595427 
        1.55858        0.523204        0.495588        0.585215 
        1.57081        0.516121        0.486411        0.574792 
        1.58313        0.504759        0.477411        0.565786 
        1.59544        0.496749        0.468643        0.555644 
        1.60767        0.487923        0.460152        0.546455 
        1.61994        0.477289        0.451843        0.538131 
        1.63225        0.468374        0.443721        0.529228 
        1.64452        0.462308        0.435823        0.519851 
        1.65676        0.455106        0.428141        0.511696 
          1.669        0.447229        0.420639        0.503005 
        1.68133        0.438098         0.41327        0.495292 
        1.69363        0.430655        0.406098        0.487604 
        1.70585        0.423936        0.399143         0.47949 
        1.71809        0.415995        0.392338        0.471884 
        1.73038        0.409503        0.385669        0.464835 
        1.74268         0.40111        0.379151        0.456884 
        1.75493         0.39793        0.372815        0.450873 
        1.76714        0.389364        0.366639        0.443756 
        1.77942        0.383651        0.360572         0.43711 
        1.79173        0.377658        0.354627        0.429587 
        1.80402        0.371059        0.348829        0.423793 
         1.8163        0.366116        0.343163        0.416363 
         1.8286        0.358152        0.337614        0.411872 
         1.8409        0.354314        0.332192        0.404874 
        1.85315        0.349115        0.326908        0.398968 
        1.86537        0.341378        0.321749        0.393173 
        1.87765        0.337075        0.316682        0.387704 
        1.88995        0.333358        0.311712        0.382333 
        1.90221        0.328394        0.306867        0.376596 
        1.91445        0.322736        0.302132        0.371502 
        1.92674        0.317525        0.297482         0.36615 
        1.93902        0.311977        0.292928        0.360716 
        1.95124        0.307512        0.288495        0.355749 
         1.9635        0.304114        0.284142        0.350704 
        1.97583        0.299743        0.279851          0.3458 
        1.98812        0.295207        0.275666        0.341618 
        2.00039        0.292186        0.271574         0.33652 
        2.01264        0.287682        0.267569         0.33225 
        2.02492        0.283795        0.263639         0.32765 
        2.03717         0.27817        0.259795         0.32332 
        2.04942        0.275744        0.256033        0.318887 
        2.06171        0.271428        0.252332        0.314631 
        2.07397        0.267065        0.248712        0.310655 
        2.08629        0.264523        0.245149        0.306451 
        2.09857        0.260311        0.241664        0.302553 
        2.11081        0.256391        0.238261        0.298159 
        2.12309        0.253354        0.234915        0.295033 
        2.13538        0.249737        0.231629           0.291 
        2.14763        0.247279        0.228417        0.287468 
        2.15986        0.243127        0.225273        0.283903 
        2.17214        0.240304        0.222175        0.280253 
        2.18443        0.237864        0.219133        0.276697 
        2.19671        0.234254        0.216152        0.273523 
        2.20898        0.232026        0.213229        0.269837 
        2.22126        0.228155        0.210358        0.266786 
        2.23354        0.226167         0.20754         0.26362 
         2.2458        0.223353        0.204779        0.259772 
        2.25807        0.220735        0.202066        0.257143 
        2.27035        0.217433        0.199399        0.254033 
        2.28263        0.214904        0.196782        0.251097 
         2.2949        0.212771        0.194213        0.247771 
        2.30718        0.209614         0.19169        0.244965 
        2.31946        0.208396         0.18921         0.24218 
        2.33169         0.20471        0.186784        0.239304 
        2.34393        0.202401        0.184398        0.236757 
        2.35622        0.200569        0.182045        0.233811 
        2.36847        0.198855         0.17974         0.23118 
        2.38076        0.196323        0.177468        0.228601 
        2.39305        0.193701        0.175236        0.225907 
        2.40534        0.191466        0.173043         0.22333 
        2.41762        0.190084        0.170887        0.220829 
        2.42989        0.187315        0.168771        0.218263 
        2.44216        0.185367        0.166691        0.215937 
         2.4544          0.1835        0.164651        0.213614 
        2.46667        0.181341        0.162641        0.211084 
        2.47897        0.179326        0.160659        0.208732 
        2.49124        0.177555        0.158716         0.20651 
        2.50349        0.175823        0.156807        0.204153 
        2.51578        0.173731        0.154925        0.201908 
        2.52805        0.172491        0.153076        0.199814 
        2.54029        0.171126        0.151263        0.197743 
        2.55257        0.169039        0.149473        0.195671 
        2.56487        0.167425        0.147709        0.193569 
        2.57716         0.16596        0.145976        0.191446 
        2.58942        0.164178        0.144274        0.189347 
        2.60167        0.162764        0.142602         0.18744 
        2.61395          0.1614        0.140953        0.185473 
        2.62624        0.159702        0.139328        0.183577 
        2.63849        0.158401        0.137734        0.181684 
        2.65073         0.15657        0.136166        0.179801 
        2.66302        0.155627        0.134618        0.177874 
         2.6753        0.154099        0.133094        0.176096 
        2.68756        0.153199        0.131597        0.174344 
        2.69983        0.151514        0.130122        0.172353 
        2.71213        0.150028        0.128667        0.170781 
        2.72441        0.148757        0.127236        0.169152 
        2.73665        0.147763        0.125831        0.167434 
         2.7489        0.147456        0.124447        0.165778 
        2.76118        0.146151        0.123081        0.164103 
        2.77349        0.144367        0.121731        0.162572 
        2.78576        0.143776        0.120407        0.161085 
        2.79802        0.142311        0.119104        0.159187 
        2.81031        0.141603        0.117816        0.157774 
        2.82259        0.140414        0.116549        0.156255 
        2.83483        0.139256        0.115304        0.154639 
         2.8471        0.138524        0.114076        0.153351 
         2.8594        0.138056        0.112861        0.151913 
         2.8717        0.136828        0.111665        0.150342 
        2.88396        0.136398         0.11049        0.148996 
        2.89619        0.135517        0.109335        0.147638 
        2.90847        0.134754        0.108192        0.146199 
        2.92072        0.133582        0.107066        0.144757 
        2.93299          0.1331        0.105957        0.143429 
        2.94526         0.13238        0.104862        0.142156 
        2.95753        0.131325        0.103783        0.140812 
        2.96982        0.131038        0.102717        0.139432 
        2.98209        0.130086        0.101669        0.138169 
        2.99436        0.130019        0.100634        0.136925 
        3.00666        0.129532       0.0996115        0.135604 
        3.01894        0.129036       0.0986056        0.134447 
        3.03119        0.128407       0.0976149        0.133272 
        3.04345        0.127899       0.0966377        0.132068 
        3.05573        0.127941        0.095672        0.130882 
          3.068        0.127461       0.0947205        0.129679 
        3.08026        0.126784       0.0937829        0.128596 
        3.09254        0.127004       0.0928563        0.127454 
        3.10483        0.126631        0.091942        0.126343 
         3.1171        0.126219       0.0910413        0.125188 
        3.12933        0.126101       0.0901551        0.123957 
        3.14159        0.125694       0.0892788        0.123006 
