# k  (h/Mpc)    Pcb(k)  (Mpc/h)^3    Pcb_linear(k) (Mpc/h)^3    Pcb_NL(k) (Mpc/h)^3   ShotnoiseSubtracted = false
      0.0156606         16866.3         16939.6         16819.3 
      0.0273761         14494.5           14647         14518.2 
      0.0384619         10978.7         11035.1         10926.1 
      0.0498308         8500.95         8679.94         8572.05 
      0.0625568         7178.98         7376.91         7279.12 
      0.0751274         6368.43          6267.5          6128.4 
      0.0867833         4949.32         5046.03         5004.98 
      0.0984825         4150.43         3993.29         4036.33 
       0.111151         3534.34         3334.32         3384.45 
       0.123864         3169.37          3004.9         3046.01 
       0.135742         2879.34         2702.15         2743.85 
        0.14762         2494.91         2310.47         2420.75 
       0.160083         2100.98         1925.91         2059.15 
       0.172465         1873.91         1680.95         1849.65 
       0.184281         1709.58         1549.64         1721.02 
       0.196406         1594.15         1431.08         1581.06 
       0.209011         1481.34          1273.3         1430.16 
       0.221538         1336.13         1112.74         1326.01 
       0.233611         1265.98         995.617         1235.52 
       0.245665         1154.91         918.916         1138.56 
       0.258103         1124.16         855.432         1073.14 
       0.270422         1007.89         786.042         1004.68 
       0.282519         942.453         713.378         944.503 
       0.294636         931.832         649.966         891.265 
       0.306978         841.681         601.328          851.11 
       0.319417         817.973         562.207         801.528 
        0.33169         770.617         524.759         756.642 
       0.343948         735.803          486.22         731.025 
       0.356249         693.308         450.077         701.841 
       0.368458         671.088         419.804          666.66 
        0.38068         651.892         394.487         639.193 
       0.392856         615.898         371.377         614.842 
       0.405069         588.229          348.78         595.844 
       0.417459         564.744           326.9         569.891 
       0.429752          553.32         307.259         549.516 
       0.441978         534.714          290.02         534.266 
       0.454294         507.513         274.365         511.425 
        0.46658         496.102         259.677         499.566 
       0.478753         482.649         245.821         483.189 
       0.490964         464.607         232.805         467.599 
       0.503334         440.604         220.791         455.723 
       0.515665          439.53         209.836         445.838 
       0.527909         422.973         199.723         434.033 
       0.540159         412.281         190.155         421.994 
        0.55248          404.15         181.077           410.6 
       0.564743         399.262          172.67         403.121 
        0.57686         383.796         164.944         391.638 
       0.589077         371.846         157.651         382.921 
       0.601441         367.331         150.716         374.488 
        0.61382         359.734         144.177         367.505 
       0.626067         354.231         138.076         359.676 
       0.638306         339.433          132.33         352.796 
       0.650632         334.433         126.886         342.901 
       0.662899         331.563         121.785         338.729 
       0.675076         318.806         117.004         332.583 
       0.687267         310.813         112.474         324.784 
       0.699615         306.566         108.127         319.342 
       0.711937         301.856         104.017         313.609 
       0.724148         292.203         100.156         308.919 
       0.736433         285.744         96.4724         302.763 
       0.748747          281.44         92.9682         297.081 
       0.761037          276.18         89.6465         292.576 
       0.773197         272.702         86.5214         288.531 
       0.785376         268.593         83.5418         283.535 
       0.797761         261.909         80.6565         279.221 
       0.810096         259.074         77.9188         275.366 
       0.822371         249.439         75.3215         270.804 
       0.834626         248.697         72.8474         266.891 
       0.846916          243.28         70.4786         262.963 
       0.859215         243.242         68.2143          259.18 
       0.871383         236.624         66.0725         255.276 
        0.88363         235.006         64.0104         252.639 
       0.895928         229.622          62.029         248.645 
       0.908253         223.433         60.1281         244.596 
       0.920535          222.34         58.3136         241.325 
       0.932774          215.51         56.5807         237.996 
        0.94508         213.331         54.9099         235.513 
       0.957324         212.704          53.315         232.042 
        0.96953         209.631         51.7886         228.792 
       0.981769         203.188         50.3184         226.623 
       0.994071         202.262         48.8986         223.685 
         1.0064         197.737         47.5314         220.316 
        1.01868         195.037         46.2207         217.746 
        1.03092         191.092         44.9655         215.509 
         1.0432         187.516         43.7526          212.85 
        1.05553          184.86         42.5799         210.192 
        1.06777          184.55         41.4589         208.062 
           1.08         179.909         40.3795         205.422 
        1.09227         177.696         39.3353         203.224 
         1.1046         175.004         38.3242         201.053 
         1.1169         171.866         37.3506         198.298 
        1.12915         169.347         36.4158         196.474 
        1.14142         166.628         35.5111         193.913 
        1.15365         164.332           34.64         191.877 
        1.16585         162.004         33.8005         189.388 
        1.17807         159.811          32.988         187.963 
        1.19037         158.474         32.1969         186.069 
        1.20276         155.843         31.4264         183.756 
        1.21504         153.021         30.6874         181.784 
        1.22728         150.048         29.9752         179.481 
        1.23954         149.505         29.2841         178.166 
        1.25184         146.635         28.6135         176.122 
        1.26414         144.295         27.9637         174.278 
        1.27632         143.755         27.3399         173.223 
         1.2886         141.479         26.7308         170.844 
        1.30093         137.447         26.1382         168.996 
        1.31316         136.386          25.568         167.107 
        1.32541         134.652         25.0146          165.85 
        1.33772         133.378         24.4747         164.057 
        1.35005         131.378         23.9503         162.217 
        1.36225         129.661         23.4467         160.765 
        1.37447         127.536         22.9567         158.913 
        1.38676         126.101         22.4784         157.411 
        1.39907         123.674         22.0131         155.872 
        1.41133         121.907         21.5629         154.551 
        1.42358          120.16         21.1258         153.092 
        1.43591         118.968         20.6978         151.375 
        1.44818         117.779          20.284         150.103 
        1.46037         115.564         19.8841         148.549 
        1.47263         114.407         19.4927         147.425 
        1.48494         112.684         19.1104         145.727 
        1.49724         111.124         18.7387         144.356 
        1.50952         109.079         18.3777         143.048 
        1.52178         108.541         18.0266         141.612 
        1.53409         106.509         17.6834         140.428 
        1.54637         105.058         17.3499         139.205 
        1.55858         103.282         17.0268         137.785 
        1.57081         101.909         16.7116         136.613 
        1.58313         100.717         16.4023         135.286 
        1.59544         99.5336         16.1011         134.113 
        1.60767          98.191         15.8094         132.813 
        1.61994         96.5487         15.5239         131.899 
        1.63225         95.3026         15.2449          130.32 
        1.64452         93.6361         14.9735         129.197 
        1.65676         92.3567         14.7096          128.15 
          1.669         91.7498         14.4518         127.108 
        1.68133         90.0307         14.1986         125.907 
        1.69363         89.1448         13.9523         124.841 
        1.70585         87.5661         13.7133           123.7 
        1.71809         86.3943         13.4795         122.565 
        1.73038         85.6796         13.2504         121.503 
        1.74268         84.3799         13.0264          120.42 
        1.75493         83.2696         12.8087         119.344 
        1.76714         81.9616         12.5966         118.386 
        1.77942         81.1312         12.3881         117.249 
        1.79173         79.7902         12.1839          116.33 
        1.80402         79.1616         11.9846         115.371 
         1.8163         77.7237           11.79          114.22 
         1.8286         76.6344         11.5993         113.308 
         1.8409         75.9545         11.4131         112.328 
        1.85315         74.7315         11.2315         111.444 
        1.86537         73.8763         11.0543          110.49 
        1.87765         73.2016         10.8802         109.473 
        1.88995         71.9716         10.7094         108.636 
        1.90221         71.0259          10.543         107.694 
        1.91445         69.8145         10.3803         106.766 
        1.92674         68.9072         10.2205         105.908 
        1.93902         68.0405         10.0641         104.953 
        1.95124         67.4683         9.91177         104.179 
         1.9635         66.3817         9.76221         103.148 
        1.97583            65.5          9.6148         102.447 
        1.98812         64.6675         9.47099         101.553 
        2.00039         63.6497         9.33041         100.709 
        2.01264          63.147         9.19282         99.8604 
        2.02492         62.1884         9.05781         99.0527 
        2.03717         61.1946         8.92573         98.1786 
        2.04942         60.7931         8.79646         97.4919 
        2.06171         59.5738         8.66932         96.6425 
        2.07397         58.9638         8.54496         95.9076 
        2.08629         58.3569         8.42253         95.0709 
        2.09857         57.4613         8.30279         94.3258 
        2.11081          56.463         8.18588         93.4754 
        2.12309         56.0983         8.07093         92.8397 
        2.13538         55.2073         7.95803         92.0551 
        2.14763         54.5215         7.84766         91.3234 
        2.15986          53.491         7.73965         90.5753 
        2.17214         53.1082         7.63323         89.8434 
        2.18443         52.4723         7.52871         89.2251 
        2.19671         51.5581         7.42628         88.4567 
        2.20898          51.364         7.32587         87.7551 
        2.22126         50.5078         7.22722         87.0288 
        2.23354         49.8236         7.13041         86.3885 
         2.2458         49.2307         7.03555         85.7448 
        2.25807         48.6293         6.94233         85.0113 
        2.27035         48.0984         6.85072         84.3452 
        2.28263         47.2866         6.76081         83.6748 
         2.2949         46.9138         6.67255          83.035 
        2.30718         46.0761         6.58585         82.4259 
        2.31946         45.5882         6.50064         81.8003 
        2.33169         44.9687         6.41732         81.1631 
        2.34393         44.2695         6.33532         80.5479 
        2.35622          43.991         6.25449         79.9185 
        2.36847          43.407          6.1753         79.3635 
        2.38076         42.8066         6.09725         78.6913 
        2.39305         42.2873         6.02056         78.1366 
        2.40534         41.8368         5.94519         77.4938 
        2.41762         41.4244         5.87113         76.8736 
        2.42989         40.8319         5.79843         76.3689 
        2.44216         40.4447         5.72698         75.7655 
         2.4544         39.9354         5.65689         75.1876 
        2.46667         39.5199         5.58781         74.5956 
        2.47897         39.0419         5.51973         74.0581 
        2.49124         38.5072         5.45296         73.5194 
        2.50349         38.0247          5.3874         72.9483 
        2.51578         37.5407         5.32272         72.4709 
        2.52805         37.3042         5.25922         71.9027 
        2.54029         36.7979         5.19691         71.3385 
        2.55257          36.241         5.13542         70.8438 
        2.56487         35.9793         5.07481         70.3545 
        2.57716         35.5052         5.01526         69.8574 
        2.58942          35.058         4.95681         69.3214 
        2.60167         34.6596         4.89934         68.8093 
        2.61395         34.2821         4.84269         68.3168 
        2.62624         34.0405         4.78687         67.8042 
        2.63849         33.7042          4.7321          67.336 
        2.65073         33.3318         4.67824         66.8227 
        2.66302         32.8603         4.62504         66.3438 
         2.6753         32.4968         4.57269          65.879 
        2.68756         32.0469         4.52126         65.3756 
        2.69983         31.8751         4.47058         64.9522 
        2.71213         31.5503         4.42058         64.5089 
        2.72441           31.24         4.37143         64.0301 
        2.73665         30.8904         4.32315         63.5668 
         2.7489         30.7595         4.27562         63.1236 
        2.76118         30.2762         4.22866          62.691 
        2.77349         30.1441         4.18229         62.2499 
        2.78576         29.9073         4.13681         61.7909 
        2.79802         29.4599         4.09202          61.397 
        2.81031         29.1957         4.04779         60.9633 
        2.82259          29.054         4.00423         60.5153 
        2.83483         28.7012         3.96148          60.109 
         2.8471         28.3878         3.91927         59.7024 
         2.8594         28.2833         3.87755         59.2914 
         2.8717         28.0073         3.83645         58.8825 
        2.88396          27.754          3.7961         58.4569 
        2.89619         27.5143          3.7564         58.0458 
        2.90847         27.3449         3.71712         57.6682 
        2.92072         27.1072         3.67846         57.2706 
        2.93299         26.9691         3.64034         56.8767 
        2.94526         26.7217         3.60272         56.5095 
        2.95753          26.577         3.56565          56.132 
        2.96982         26.4885         3.52903         55.7477 
        2.98209         26.2167         3.49301         55.3789 
        2.99436         26.0487         3.45745         54.9898 
        3.00666         25.9655         3.42233         54.6316 
        3.01894         25.7463         3.38777         54.2473 
        3.03119         25.6588         3.35374         53.8947 
        3.04345         25.4864         3.32016         53.5607 
        3.05573         25.4412         3.28698         53.2065 
          3.068         25.3234         3.25429         52.8497 
        3.08026         25.1441         3.22208         52.4942 
        3.09254         25.0663         3.19025           52.15 
        3.10483         25.0791         3.15883         51.8161 
         3.1171         25.0044         3.12789         51.4788 
        3.12933         24.9214         3.09744         51.1362 
        3.14159         24.7972         3.06734         50.7985 
