# k  (h/Mpc)    Pcb(k)  (Mpc/h)^3    Pcb_linear(k) (Mpc/h)^3    Pcb_NL(k) (Mpc/h)^3   ShotnoiseSubtracted = false
      0.0156606         17637.1         17717.1         17588.5 
      0.0273761         15150.7           15319         15177.7 
      0.0384619         11473.4         11541.3         11420.3 
      0.0498308         8881.01         9078.05         8957.79 
      0.0625568          7501.3         7715.23         7606.71 
      0.0751274         6659.84         6554.92         6401.04 
      0.0867833         5173.07         5277.43         5231.44 
      0.0984825         4344.74         4176.41          4222.7 
       0.111151         3703.18         3487.22         3541.89 
       0.123864         3320.78         3142.69         3187.38 
       0.135742         3018.92         2826.06         2871.28 
        0.14762         2618.45         2416.42         2536.33 
       0.160083          2208.7         2014.22         2159.79 
       0.172465         1970.21         1758.03         1942.61 
       0.184281         1795.72          1620.7         1807.65 
       0.196406            1678         1496.71          1661.5 
       0.209011         1561.56         1331.69         1503.58 
       0.221538         1408.49         1163.77         1396.46 
       0.233611         1337.71         1041.27         1302.97 
       0.245665         1218.75         961.052         1201.22 
       0.258103         1190.51         894.657         1132.65 
       0.270422         1066.28         822.086         1061.25 
       0.282519          999.06         746.089         999.256 
       0.294636         987.133          679.77         943.811 
       0.306978         893.536         628.901          902.05 
       0.319417          869.89         587.986         849.723 
        0.33169         819.499         548.822         802.674 
       0.343948         783.187         508.515          776.19 
       0.356249         738.901         470.715         745.741 
       0.368458         714.623         439.054         709.274 
        0.38068         695.971         412.576         680.552 
       0.392856         658.233         388.406         655.083 
       0.405069         628.164         364.773         634.823 
       0.417459          603.57         341.889         608.295 
       0.429752         593.064         321.348         586.682 
       0.441978         572.996         303.318         570.732 
       0.454294          544.83         286.946         546.597 
        0.46658           531.8         271.585         534.308 
       0.478753         518.475         257.093         517.075 
       0.490964         499.035          243.48         500.623 
       0.503334         474.134         230.915         488.256 
       0.515665         473.179         219.458         477.649 
       0.527909         455.152         208.881         465.604 
       0.540159         443.729         198.875         452.871 
        0.55248         435.117          189.38         440.776 
       0.564743         430.636         180.588         432.939 
        0.57686         414.196         172.508          420.82 
       0.589077         402.209          164.88         411.411 
       0.601441          397.06         157.627         402.583 
        0.61382         388.306         150.789           395.3 
       0.626067         382.911         144.407         387.082 
       0.638306         367.444         138.398          379.62 
       0.650632         362.629         132.704         369.278 
       0.662899         359.532         127.369         364.903 
       0.675076         345.917         122.369         358.638 
       0.687267         337.311         117.631         350.142 
       0.699615         333.209         113.085          344.42 
       0.711937          328.26         108.787         338.218 
       0.724148         317.549         104.749         333.222 
       0.736433         310.513         100.896         326.751 
       0.748747         306.186         97.2311         320.701 
       0.761037         300.487         93.7571         316.093 
       0.773197         296.933         90.4888         311.559 
       0.785376          292.42         87.3725         306.426 
       0.797761         285.016         84.3549         301.637 
       0.810096         282.381         81.4916          297.66 
       0.822371         272.248         78.7753         292.736 
       0.834626         271.357         76.1877         288.686 
       0.846916         265.477         73.7103         284.381 
       0.859215         265.472         71.3422         280.314 
       0.871383         258.402         69.1022         276.227 
        0.88363         256.895         66.9455          273.38 
       0.895928         251.237         64.8732         269.031 
       0.908253         244.693         62.8852         264.704 
       0.920535         243.211         60.9875         261.232 
       0.932774         236.321         59.1752          257.61 
        0.94508         233.883         57.4277         254.925 
       0.957324         233.118         55.7597          251.26 
        0.96953         229.776         54.1633         247.872 
       0.981769         222.956         52.6257         245.437 
       0.994071         222.097         51.1408         242.292 
         1.0064         217.259         49.7109         238.684 
        1.01868         214.447         48.3401         235.802 
        1.03092         209.742         47.0273         233.479 
         1.0432         206.154         45.7588         230.619 
        1.05553         203.455         44.5323         227.653 
        1.06777         203.024         43.3599          225.32 
           1.08         198.039          42.231         222.552 
        1.09227         195.666         41.1389         220.066 
         1.1046         192.838         40.0815         217.802 
         1.1169         189.117         39.0632         214.813 
        1.12915         186.488         38.0856         212.871 
        1.14142          183.55         37.1394         210.119 
        1.15365          181.04         36.2284         207.908 
        1.16585          178.47         35.3504         205.259 
        1.17807         176.223         34.5006          203.62 
        1.19037         174.606         33.6732          201.64 
        1.20276         171.954         32.8674         199.096 
        1.21504         168.628         32.0945         196.952 
        1.22728         165.529         31.3497         194.433 
        1.23954         165.047         30.6269         193.034 
        1.25184         161.944         29.9255         190.831 
        1.26414         159.288         29.2459          188.86 
        1.27632         158.742         28.5935         187.587 
         1.2886         156.659         27.9565         185.107 
        1.30093         152.129         27.3368         183.059 
        1.31316         150.528         26.7404          180.99 
        1.32541         148.972         26.1617         179.581 
        1.33772         147.587         25.5969         177.666 
        1.35005         145.318         25.0485         175.671 
        1.36225         143.319         24.5218         174.082 
        1.37447         141.223         24.0093         172.022 
        1.38676         139.538         23.5092         170.499 
        1.39907         137.065         23.0224          168.74 
        1.41133         135.102         22.5516         167.256 
        1.42358         133.278         22.0945         165.687 
        1.43591          131.85         21.6469         163.874 
        1.44818         130.403         21.2141         162.439 
        1.46037         128.185         20.7959         160.746 
        1.47263         126.905         20.3865         159.507 
        1.48494         124.933         19.9867         157.614 
        1.49724         123.273         19.5979          156.24 
        1.50952         121.028         19.2203         154.766 
        1.52178         120.562         18.8532         153.144 
        1.53409         118.123         18.4943         151.883 
        1.54637         116.703         18.1454         150.585 
        1.55858         114.637         17.8076         149.001 
        1.57081         113.188         17.4778         147.744 
        1.58313         111.845         17.1544         146.268 
        1.59544         110.463         16.8394         145.004 
        1.60767          109.17         16.5343         143.611 
        1.61994         107.328         16.2357         142.551 
        1.63225         106.019         15.9439         140.884 
        1.64452         104.115         15.6601         139.637 
        1.65676         102.637         15.3841         138.501 
          1.669         102.062         15.1145         137.358 
        1.68133         99.9882         14.8497         136.075 
        1.69363         99.0355          14.592         134.885 
        1.70585         97.2401         14.3421         133.671 
        1.71809          96.068         14.0976         132.353 
        1.73038         95.3535         13.8579         131.259 
        1.74268         94.0664         13.6237          130.05 
        1.75493         92.5046         13.3961         128.902 
        1.76714         91.2334         13.1742         127.869 
        1.77942         90.1917         12.9562         126.599 
        1.79173         88.8309         12.7425         125.616 
        1.80402         88.1687         12.5342         124.546 
         1.8163         86.4465         12.3306         123.344 
         1.8286         85.2726         12.1312         122.302 
         1.8409         84.6196         11.9364         121.227 
        1.85315         83.2703         11.7465         120.264 
        1.86537         82.2921         11.5611          119.25 
        1.87765         81.5872         11.3791         118.183 
        1.88995         80.2288         11.2005         117.225 
        1.90221         79.1925         11.0264         116.216 
        1.91445         77.9945         10.8563          115.17 
        1.92674         76.8381         10.6892         114.238 
        1.93902         75.9183         10.5256         113.212 
        1.95124         75.2429         10.3663         112.332 
         1.9635         74.0963         10.2098         111.256 
        1.97583         73.0338         10.0557         110.461 
        1.98812         72.1078         9.90527         109.514 
        2.00039         71.1165         9.75825         108.581 
        2.01264         70.5225         9.61434         107.671 
        2.02492         69.5039         9.47314          106.77 
        2.03717         68.3637         9.33501         105.838 
        2.04942         68.0608         9.19981         105.086 
        2.06171         66.5828         9.06684         104.167 
        2.07397         65.8847         8.93678         103.355 
        2.08629         65.1576         8.80874         102.453 
        2.09857         64.1714         8.68351         101.643 
        2.11081         63.1928         8.56123         100.713 
        2.12309         62.6517         8.44101         100.032 
        2.13538         61.7461         8.32293         99.1715 
        2.14763          60.921         8.20751          98.377 
        2.15986         59.8253         8.09454         97.5536 
        2.17214         59.4141         7.98324         96.7475 
        2.18443          58.706         7.87393         96.1034 
        2.19671         57.6544          7.7668         95.2772 
        2.20898         57.4372         7.66179         94.4958 
        2.22126         56.5263         7.55861         93.7189 
        2.23354         55.8045         7.45737         93.0167 
         2.2458         55.0891         7.35816         92.3098 
        2.25807         54.3614         7.26066         91.5247 
        2.27035         53.8358         7.16485         90.7935 
        2.28263         52.9755         7.07081         90.0748 
         2.2949         52.5372         6.97851         89.3764 
        2.30718         51.5427         6.88784         88.7128 
        2.31946         51.1282         6.79872         88.0112 
        2.33169         50.3431         6.71157         87.3318 
        2.34393         49.6752         6.62582          86.674 
        2.35622         49.2697         6.54128         85.9932 
        2.36847          48.674         6.45846         85.4038 
        2.38076         47.9122         6.37683         84.6525 
        2.39305         47.3739         6.29663         84.0639 
        2.40534         46.8857          6.2178         83.3733 
        2.41762         46.3861         6.14034         82.6954 
        2.42989         45.8345         6.06431         82.1484 
        2.44216         45.3272         5.98958         81.4862 
         2.4544         44.7652         5.91628         80.8632 
        2.46667         44.2696         5.84404         80.2263 
        2.47897         43.7734         5.77283         79.6352 
        2.49124         43.1858           5.703         79.0616 
        2.50349         42.7598         5.63443         78.4369 
        2.51578         42.1685         5.56679         77.9291 
        2.52805          41.782         5.50037         77.3025 
        2.54029          41.297          5.4352         76.6841 
        2.55257         40.6861          5.3709          76.159 
        2.56487         40.3652         5.30751         75.6315 
        2.57716         39.8442         5.24523         75.0863 
        2.58942          39.321         5.18409         74.5092 
        2.60167         38.9858         5.12399         73.9645 
        2.61395         38.4633         5.06475         73.4296 
        2.62624         38.2468         5.00636         72.8593 
        2.63849         37.8079         4.94908         72.3533 
        2.65073         37.4208         4.89276         71.8102 
        2.66302         36.8819         4.83711         71.2857 
         2.6753         36.4654         4.78236         70.7835 
        2.68756         36.0343         4.72857         70.2455 
        2.69983         35.7986         4.67558         69.7864 
        2.71213         35.4254         4.62328          69.302 
        2.72441         35.0534         4.57188         68.7881 
        2.73665         34.6073         4.52138         68.2895 
         2.7489         34.5301         4.47167         67.8106 
        2.76118         33.9948         4.42256         67.3454 
        2.77349         33.8048         4.37407         66.8623 
        2.78576         33.5377         4.32649         66.3668 
        2.79802         33.0864         4.27965         65.9546 
        2.81031          32.743          4.2334         65.4748 
        2.82259         32.6545         4.18784         64.9924 
        2.83483         32.2191         4.14313         64.5668 
         2.8471         31.8645         4.09899         64.1222 
         2.8594         31.7297         4.05535         63.6627 
         2.8717         31.4871         4.01236         63.2311 
        2.88396         31.1669         3.97016         62.7809 
        2.89619         30.9553         3.92864         62.3235 
        2.90847         30.7216         3.88756         61.9079 
        2.92072         30.4638         3.84713         61.4953 
        2.93299         30.2906         3.80726         61.0728 
        2.94526         30.0241         3.76792         60.6694 
        2.95753         29.8584         3.72915         60.2583 
        2.96982         29.7603         3.69085         59.8454 
        2.98209          29.442         3.65318         59.4472 
        2.99436         29.2945         3.61599         59.0237 
        3.00666         29.1749         3.57926         58.6401 
        3.01894         28.9471         3.54311         58.2319 
        3.03119         28.8144         3.50752         57.8524 
        3.04345         28.6336         3.47241         57.4904 
        3.05573         28.5307          3.4377         57.1084 
          3.068         28.4734         3.40352          56.724 
        3.08026         28.2781         3.36983         56.3421 
        3.09254         28.1686         3.33653         55.9701 
        3.10483         28.1763         3.30368         55.6101 
         3.1171         28.0271         3.27131         55.2475 
        3.12933         27.9893         3.23947         54.8753 
        3.14159         27.8424         3.20798         54.5076 
