# k  (h/Mpc)    Pcb(k)  (Mpc/h)^3    Pcb_linear(k) (Mpc/h)^3    Pcb_NL(k) (Mpc/h)^3   ShotnoiseSubtracted = false
      0.0156606         3491.35         3494.49         3476.87 
      0.0273761         3030.66         3023.56         3014.25 
      0.0384619         2303.01         2278.66         2274.82 
      0.0498308         1803.35         1792.64         1790.17 
      0.0625568         1521.52          1523.7          1520.2 
      0.0751274         1320.12         1294.64         1288.53 
      0.0867833            1045         1042.37         1041.47 
      0.0984825         849.436         824.925         828.671 
       0.111151         712.266         688.813         692.494 
       0.123864         639.873          620.77         623.666 
       0.135742         575.335         558.233         561.147 
        0.14762         489.224         477.321         484.177 
       0.160083         406.151         397.877         405.664 
       0.172465         358.563         347.273          356.67 
       0.184281         332.398         320.146         330.134 
       0.196406         303.122         295.655         303.402 
       0.209011         273.844         263.058         271.794 
       0.221538         243.806         229.889         242.103 
       0.233611         220.347         205.691          219.28 
       0.245665         207.032         189.845         201.945 
       0.258103         186.933          176.73         188.784 
       0.270422         175.347         162.395         174.142 
       0.282519         159.184         147.382         159.875 
       0.294636         152.739         134.282         147.461 
       0.306978          134.91         124.233         137.872 
       0.319417         128.876         116.151         129.323 
        0.33169         119.881         108.415         121.145 
       0.343948         114.045         100.453         113.477 
       0.356249         104.896         92.9856         107.108 
       0.368458         100.329         86.7312         99.8722 
        0.38068         94.2907         81.5009         94.5184 
       0.392856          88.022         76.7264          89.845 
       0.405069         83.3936         72.0578         84.8912 
       0.417459         78.4358         67.5374         80.3459 
       0.429752         75.2032         63.4796         76.3333 
       0.441978         71.7086         59.9181         73.2008 
       0.454294         66.7021         56.6839         69.2975 
        0.46658         66.3755         53.6494         66.2505 
       0.478753         61.7308         50.7866         63.4237 
       0.490964         59.7186         48.0976         60.8461 
       0.503334         57.2415         45.6155         58.1003 
       0.515665         54.5941         43.3522         56.2386 
       0.527909         52.2981         41.2629         53.2987 
       0.540159         50.2639         39.2862         51.3663 
        0.55248         47.1325         37.4105          49.271 
       0.564743         46.4271         35.6738         47.6728 
        0.57686         44.9364         34.0776         45.9207 
       0.589077         42.4189         32.5708         44.4818 
       0.601441         41.0521          31.138         42.9278 
        0.61382         39.6958         29.7871         41.2816 
       0.626067         38.0838         28.5265         40.0723 
       0.638306         36.8881         27.3395         38.6528 
       0.650632         35.8069         26.2148         37.4002 
       0.662899         34.5125         25.1608         36.1656 
       0.675076         32.9811         24.1731         35.0613 
       0.687267         32.5662         23.2372         33.9746 
       0.699615          31.411         22.3391         33.0963 
       0.711937         29.9216         21.4901         31.9865 
       0.724148         29.7841         20.6924         31.2571 
       0.736433         28.0657         19.9313         30.2903 
       0.748747         27.6477         19.2073         29.4673 
       0.761037         26.9146          18.521         28.7384 
       0.773197         26.1127         17.8754         28.0336 
       0.785376          25.107         17.2598          27.299 
       0.797761         24.6542         16.6637         26.6284 
       0.810096          24.098         16.0981         25.9734 
       0.822371         23.4492         15.5615         25.2535 
       0.834626         22.7331         15.0503         24.7574 
       0.846916         22.0894         14.5609         24.1278 
       0.859215         21.3218         14.0931         23.5775 
       0.871383         20.9794         13.6506         23.1031 
        0.88363         20.4372         13.2246         22.5917 
       0.895928         20.0191         12.8152         22.0233 
       0.908253         19.5587         12.4225         21.6184 
       0.920535         19.0358         12.0476         21.1259 
       0.932774          18.736         11.6896          20.636 
        0.94508         18.1871         11.3444         20.2369 
       0.957324          17.852         11.0149         19.8544 
        0.96953          17.284         10.6996         19.4271 
       0.981769         17.1299         10.3958         19.0767 
       0.994071         16.6468         10.1025         18.6781 
         1.0064         16.1972         9.82003         18.3424 
        1.01868         15.8834         9.54923         18.0129 
        1.03092         15.6988         9.28991         17.6531 
         1.0432         15.1552         9.03932          17.306 
        1.05553         14.9166         8.79704         17.0757 
        1.06777         14.4852         8.56544         16.6981 
           1.08         14.2254         8.34244         16.4283 
        1.09227         13.9621          8.1267         16.1657 
         1.1046         13.7424         7.91781         15.8489 
         1.1169         13.3817         7.71667         15.5782 
        1.12915         13.3199         7.52353          15.369 
        1.14142         12.8187         7.33663          15.085 
        1.15365          12.723         7.15666         14.8385 
        1.16585         12.5661         6.98322         14.6362 
        1.17807         12.1913         6.81534         14.3525 
        1.19037         12.0319          6.6519         14.1686 
        1.20276         11.7782         6.49273         13.9301 
        1.21504         11.6131         6.34004         13.7415 
        1.22728         11.3209         6.19292         13.5134 
        1.23954         11.1646         6.05012         13.3287 
        1.25184          10.951         5.91158         13.1344 
        1.26414         10.8033         5.77732         12.9191 
        1.27632         10.5491         5.64845         12.7387 
         1.2886         10.4393         5.52262         12.5698 
        1.30093         10.2192         5.40019         12.4363 
        1.31316         10.0505         5.28237         12.2257 
        1.32541         9.89925         5.16805         12.0971 
        1.33772         9.70969         5.05649         11.9046 
        1.35005         9.59911         4.94816         11.7623 
        1.36225         9.41807         4.84412         11.5861 
        1.37447         9.26158         4.74288         11.4493 
        1.38676          9.1144         4.64407         11.3124 
        1.39907         8.95442         4.54792         11.1602 
        1.41133         8.83053         4.45492         11.0234 
        1.42358         8.66202          4.3646         10.8736 
        1.43591         8.57037         4.27618         10.7659 
        1.44818         8.39085          4.1907         10.6302 
        1.46037          8.2944         4.10808         10.4881 
        1.47263         8.15756         4.02722         10.3841 
        1.48494         8.08357         3.94824         10.2352 
        1.49724         7.92494         3.87144         10.1357 
        1.50952         7.88622         3.79684         10.0221 
        1.52178         7.71968         3.72432         9.89808 
        1.53409         7.58064         3.65341         9.78126 
        1.54637         7.51762          3.5845          9.6597 
        1.55858         7.43332         3.51776          9.5614 
        1.57081         7.25831         3.45262         9.47255 
        1.58313         7.21064         3.38874         9.36388 
        1.59544         7.06198          3.3265         9.27163 
        1.60767         6.99096         3.26623         9.16055 
        1.61994          6.8904         3.20725         9.07795 
        1.63225           6.798          3.1496         8.98092 
        1.64452         6.69046         3.09354          8.8876 
        1.65676         6.60224         3.03901         8.79589 
          1.669         6.55417         2.98576         8.70287 
        1.68133           6.408         2.93345         8.61242 
        1.69363         6.34925         2.88255         8.53764 
        1.70585         6.26377         2.83318         8.44763 
        1.71809         6.19255         2.78487         8.36976 
        1.73038         6.13237         2.73754         8.29089 
        1.74268         6.04399         2.69128         8.21185 
        1.75493         5.95273          2.6463         8.11882 
        1.76714         5.92939         2.60246         8.05491 
        1.77942         5.83348          2.5594         7.96943 
        1.79173         5.75035          2.5172         7.89519 
        1.80402           5.703         2.47604         7.82512 
         1.8163         5.63947         2.43582          7.7627 
         1.8286         5.54799         2.39644         7.69206 
         1.8409           5.479         2.35795         7.62858 
        1.85315         5.41706         2.32044         7.54744 
        1.86537         5.37886         2.28382          7.4867 
        1.87765         5.30152         2.24786         7.41678 
        1.88995         5.21518         2.21258         7.35905 
        1.90221         5.17865         2.17819         7.28718 
        1.91445         5.11112         2.14458         7.24167 
        1.92674         5.07208         2.11157         7.16471 
        1.93902          5.0115         2.07925         7.10866 
        1.95124         4.94907         2.04778         7.04061 
         1.9635         4.90762         2.01688         6.99456 
        1.97583         4.85376         1.98643         6.93351 
        1.98812         4.79061         1.95672         6.86662 
        2.00039          4.7384         1.92767         6.82373 
        2.01264         4.69556         1.89925         6.77028 
        2.02492            4.65         1.87135         6.71197 
        2.03717         4.59383         1.84407         6.65802 
        2.04942         4.52745         1.81736         6.61191 
        2.06171         4.49524         1.79109         6.55726 
        2.07397          4.4547          1.7654         6.50511 
        2.08629         4.40762          1.7401         6.45871 
        2.09857         4.35577         1.71537         6.40711 
        2.11081         4.31547         1.69121         6.36406 
        2.12309         4.26879         1.66746         6.30646 
        2.13538         4.22749         1.64414          6.2688 
        2.14763         4.18884         1.62134         6.21937 
        2.15986         4.15669         1.59902         6.17452 
        2.17214         4.10793         1.57703         6.12171 
        2.18443         4.07559         1.55544         6.08041 
        2.19671          4.0239         1.53428         6.03728 
        2.20898         3.98896         1.51353         5.99684 
        2.22126         3.95804         1.49315         5.95085 
        2.23354         3.91498         1.47315         5.90514 
         2.2458         3.88673         1.45355         5.86112 
        2.25807         3.84929         1.43429         5.82582 
        2.27035         3.81189         1.41537         5.78816 
        2.28263         3.77965         1.39679         5.74555 
         2.2949         3.74711         1.37856          5.7105 
        2.30718         3.71358         1.36064         5.67831 
        2.31946         3.68816         1.34304         5.63813 
        2.33169         3.64813         1.32582         5.59477 
        2.34393         3.63176         1.30888         5.55799 
        2.35622         3.60254         1.29219         5.51877 
        2.36847         3.56324         1.27582         5.48301 
        2.38076         3.54345          1.2597         5.44546 
        2.39305         3.50038         1.24386         5.40695 
        2.40534         3.47744         1.22828         5.37361 
        2.41762         3.43532         1.21298         5.34517 
        2.42989          3.4245         1.19796         5.30802 
        2.44216         3.40507          1.1832         5.27644 
         2.4544         3.36489         1.16872         5.24074 
        2.46667         3.34812         1.15445         5.20864 
        2.47897         3.31456         1.14038         5.17502 
        2.49124         3.28564         1.12659         5.14233 
        2.50349         3.27286         1.11304         5.11436 
        2.51578          3.2341         1.09968          5.0797 
        2.52805         3.21934         1.08656         5.04855 
        2.54029         3.19799         1.07369         5.01853 
        2.55257         3.18113         1.06098         4.99022 
        2.56487         3.15256         1.04846         4.95514 
        2.57716         3.14422         1.03616         4.92623 
        2.58942         3.10722         1.02408         4.89824 
        2.60167         3.09134         1.01221         4.86704 
        2.61395         3.06097         1.00051         4.84064 
        2.62624         3.06156        0.988972         4.81418 
        2.63849         3.03018        0.977657         4.78193 
        2.65073         3.01032         0.96653         4.75347 
        2.66302           2.996        0.955537         4.72711 
         2.6753         2.98258        0.944723         4.69995 
        2.68756         2.95339        0.934097         4.67478 
        2.69983         2.94107        0.923628         4.64477 
        2.71213         2.93295        0.913297         4.61829 
        2.72441         2.91483        0.903142         4.59312 
        2.73665         2.89749        0.893167         4.56664 
         2.7489         2.87525        0.883347         4.54425 
        2.76118         2.86088        0.873646         4.52331 
        2.77349          2.8584        0.864066         4.49354 
        2.78576         2.84164        0.854669         4.46813 
        2.79802         2.83412        0.845416         4.44566 
        2.81031         2.81374        0.836278         4.42012 
        2.82259         2.80066        0.827279         4.39562 
        2.83483          2.7983        0.818447         4.37283 
         2.8471         2.78158        0.809726         4.34921 
         2.8594         2.77457        0.801106         4.32779 
         2.8717         2.76107        0.792615         4.30236 
        2.88396         2.75479        0.784278         4.27803 
        2.89619         2.73095        0.776076         4.25735 
        2.90847         2.73027         0.76796         4.23147 
        2.92072         2.72929        0.759974         4.21121 
        2.93299         2.72087        0.752098         4.18941 
        2.94526         2.72109        0.744327         4.16808 
        2.95753         2.70165        0.736667         4.14657 
        2.96982         2.69189        0.729103         4.12483 
        2.98209         2.69614        0.721659         4.10457 
        2.99436         2.68598        0.714314         4.08309 
        3.00666          2.6928        0.707058         4.06304 
        3.01894         2.68338        0.699917         4.03887 
        3.03119         2.68606        0.692885         4.01931 
        3.04345          2.6784         0.68595         4.00156 
        3.05573         2.67987        0.679095         3.98122 
          3.068         2.67843        0.672341         3.96188 
        3.08026         2.68545        0.665686         3.94143 
        3.09254         2.68177        0.659108         3.92067 
        3.10483          2.6855        0.652619         3.90233 
         3.1171         2.68643        0.646225         3.88447 
        3.12933         2.69388        0.639935         3.86399 
        3.14159         2.68904        0.633715         3.84283 
