# k  (h/Mpc)    Pcb(k)  (Mpc/h)^3    Pcb_linear(k) (Mpc/h)^3    Pcb_NL(k) (Mpc/h)^3   ShotnoiseSubtracted = false
      0.0156606         10766.5         10796.8         10730.7 
      0.0273761          9288.5         9337.49         9280.33 
      0.0384619          7048.8          7035.6         6992.77 
      0.0498308         5481.04         5534.33         5494.01 
      0.0625568         4626.45         4703.69         4665.47 
      0.0751274         4074.97          3996.4         3940.26 
      0.0867833         3185.97         3217.59         3203.13 
      0.0984825         2640.88         2546.34         2568.32 
       0.111151         2234.32         2126.16         2149.74 
       0.123864         2006.07         1916.11         1935.88 
       0.135742         1814.23         1723.07         1743.38 
        0.14762         1559.45         1473.31         1524.66 
       0.160083            1301         1228.09         1288.08 
       0.172465         1158.48         1071.89         1146.75 
       0.184281         1066.46          988.16         1065.95 
       0.196406         980.946         912.564          977.21 
       0.209011         901.925          811.95         881.261 
       0.221538         812.588         709.568         805.887 
       0.233611         754.927          634.88          743.05 
       0.245665          698.95          585.97         683.563 
       0.258103         658.277         545.488         642.462 
       0.270422         600.934          501.24         597.951 
       0.282519         553.012         454.904         556.453 
       0.294636         547.218         414.468         521.169 
       0.306978         487.107         383.453          494.31 
       0.319417         468.813         358.506         464.785 
        0.33169         440.714         334.627         437.221 
       0.343948         420.092         310.052         418.459 
       0.356249         392.997         287.004         399.485 
       0.368458         380.894           267.7         376.607 
        0.38068         364.135         251.556         359.235 
       0.392856         341.191         236.819         344.188 
       0.405069         327.536         222.409         331.728 
       0.417459         312.891         208.457         314.368 
       0.429752         302.116         195.932         302.404 
       0.441978         292.087         184.939          292.83 
       0.454294         273.511         174.957         279.084 
        0.46658          272.26         165.591         270.919 
       0.478753         259.704         156.755         261.211 
       0.490964         251.181         148.455         251.809 
       0.503334         237.181         140.794          244.27 
       0.515665         234.033         133.808         238.449 
       0.527909         226.915         127.359         229.759 
       0.540159         220.193         121.258         223.131 
        0.55248         215.483         115.469          216.18 
       0.564743         209.631         110.108         211.242 
        0.57686         202.345         105.182         204.509 
       0.589077           194.1         100.531         200.003 
       0.601441         190.843         96.1086         195.032 
        0.61382         188.789          91.939          189.94 
       0.626067         183.267         88.0481         185.311 
       0.638306         175.187         84.3842         181.408 
       0.650632         170.147         80.9127         175.453 
       0.662899         170.164         77.6597          172.19 
       0.675076         164.024          74.611         168.239 
       0.687267         159.818         71.7222         164.529 
       0.699615         156.336         68.9502         161.178 
       0.711937         152.374         66.3298         157.647 
       0.724148         149.916         63.8677          155.37 
       0.736433         145.932         61.5185         151.643 
       0.748747         142.672         59.2839         148.493 
       0.761037         140.403         57.1657         145.296 
       0.773197         137.405          55.173         143.672 
       0.785376         135.521         53.2729         140.283 
       0.797761         133.001          51.433         138.455 
       0.810096         129.364         49.6872         135.618 
       0.822371         125.704          48.031         133.297 
       0.834626         123.791         46.4533         130.999 
       0.846916         122.528         44.9427         128.963 
       0.859215         120.639         43.4989         126.701 
       0.871383         118.458         42.1331         124.572 
        0.88363         115.915         40.8181         123.036 
       0.895928         113.708         39.5546         121.254 
       0.908253         110.699         38.3424         119.012 
       0.920535         110.158         37.1854         117.477 
       0.932774         107.188         36.0804         115.414 
        0.94508         106.229         35.0149         113.816 
       0.957324         104.589         33.9979         112.271 
        0.96953         104.324         33.0245         110.395 
       0.981769         100.922          32.087         109.337 
       0.994071         100.104         31.1817         107.741 
         1.0064         97.7615         30.3098         106.177 
        1.01868         96.9073          29.474         104.907 
        1.03092         95.0593         28.6736          103.55 
         1.0432         93.4644         27.9001         102.141 
        1.05553         91.1134         27.1523         101.184 
        1.06777         90.9856         26.4375         99.9361 
           1.08         89.1995         25.7492         98.6043 
        1.09227         87.8356         25.0833         97.3026 
         1.1046         86.3303         24.4386         96.1289 
         1.1169         85.3308         23.8177         94.7828 
        1.12915         84.2085         23.2216         93.8127 
        1.14142         82.6844         22.6447         92.6571 
        1.15365         81.0626         22.0892         91.6019 
        1.16585         80.1068         21.5539         90.4845 
        1.17807         78.8754         21.0357         89.6013 
        1.19037         78.7572         20.5313         88.6844 
        1.20276          77.044           20.04         87.6462 
        1.21504         76.5263         19.5687         86.5866 
        1.22728         74.8317         19.1146          85.733 
        1.23954         74.1953         18.6739         84.6928 
        1.25184         72.8205         18.2463         83.9385 
        1.26414         71.7447         17.8319         83.0303 
        1.27632          71.062         17.4341         82.3621 
         1.2886         70.0274         17.0457         81.2515 
        1.30093         69.0988         16.6678         80.2988 
        1.31316         68.2465         16.3042         79.7515 
        1.32541         67.6917         15.9513         78.9008 
        1.33772         66.5735          15.607         78.0819 
        1.35005         65.9627         15.2726         77.3362 
        1.36225         64.8807         14.9515         76.5472 
        1.37447          63.425          14.639         75.7427 
        1.38676         63.5224         14.3341         74.9489 
        1.39907          62.383         14.0373         74.3998 
        1.41133         61.2375         13.7502         73.8133 
        1.42358         60.5265         13.4715         72.8852 
        1.43591         60.1067         13.1986         72.2873 
        1.44818         59.2265         12.9347         71.4879 
        1.46037         58.5583         12.6797         70.9778 
        1.47263         57.7569         12.4301         70.3995 
        1.48494         56.9546         12.1863         69.6654 
        1.49724         56.1846         11.9493         68.9944 
        1.50952         55.8357         11.7191         68.3334 
        1.52178         55.0555         11.4952         67.8161 
        1.53409         54.5387         11.2764         67.2275 
        1.54637         53.3218         11.0637         66.5743 
        1.55858         52.6741         10.8577         65.9254 
        1.57081         52.3658         10.6566         65.4829 
        1.58313         51.5763         10.4594         64.9468 
        1.59544         50.8465         10.2673         64.2935 
        1.60767         50.2906         10.0813         63.7623 
        1.61994         49.5089         9.89927         63.2702 
        1.63225         49.0343         9.72134         62.6255 
        1.64452         48.5042         9.54829         62.1798 
        1.65676          47.785         9.37999         61.5883 
          1.669         47.4357         9.21564         61.1565 
        1.68133         46.9752         9.05418         60.5739 
        1.69363          46.172         8.89707         60.1407 
        1.70585         45.9059          8.7447         59.6752 
        1.71809         44.9917         8.59559         59.1351 
        1.73038         44.7252         8.44949         58.7015 
        1.74268         44.0139          8.3067         58.1579 
        1.75493         43.5802         8.16787         57.7028 
        1.76714         43.0206         8.03257         57.2375 
        1.77942         42.7645         7.89965         56.8015 
        1.79173         42.0718          7.7694         56.2883 
        1.80402         41.6587         7.64237         55.9393 
         1.8163         41.1475         7.51824         55.3856 
         1.8286         40.6067         7.39666         55.0663 
         1.8409         40.1259         7.27788         54.5248 
        1.85315         39.7201          7.1621         54.2202 
        1.86537          39.226         7.04908          53.786 
        1.87765         38.9036         6.93808         53.3104 
        1.88995         38.3114          6.8292         52.8456 
        1.90221         38.0235         6.72304           52.45 
        1.91445         37.3847         6.61932         52.1152 
        1.92674         37.0694         6.51742         51.6619 
        1.93902         36.6828         6.41767         51.2731 
        1.95124         36.2171         6.32054         50.9435 
         1.9635         35.7355         6.22517         50.5171 
        1.97583         35.4174         6.13116         50.1987 
        1.98812         34.8703         6.03946         49.7742 
        2.00039         34.5604         5.94982         49.3898 
        2.01264         34.0731         5.86208         49.0754 
        2.02492         33.7955         5.77598         48.7016 
        2.03717         33.3331         5.69176         48.3056 
        2.04942         32.9699         5.60933         47.9464 
        2.06171          32.635         5.52825         47.5813 
        2.07397         32.2629         5.44895          47.254 
        2.08629         31.8835         5.37088         46.8967 
        2.09857         31.5786         5.29453         46.5811 
        2.11081         31.1511         5.21997         46.2169 
        2.12309         30.9155         5.14667         45.8678 
        2.13538         30.3806         5.07467         45.5952 
        2.14763         30.1678          5.0043         45.2375 
        2.15986         29.9068         4.93542         44.8847 
        2.17214         29.4782         4.86756         44.6199 
        2.18443         29.1719         4.80091         44.2299 
        2.19671         28.7801         4.73559         43.9336 
        2.20898         28.4271         4.67156          43.603 
        2.22126         28.3338         4.60865         43.2843 
        2.23354         27.9439         4.54692         43.0367 
         2.2458         27.6093         4.48643         42.7056 
        2.25807         27.2087         4.42699         42.3853 
        2.27035         26.9287         4.36857         42.1122 
        2.28263         26.6674         4.31123         41.8272 
         2.2949         26.4173         4.25495          41.533 
        2.30718         26.1594         4.19966         41.2145 
        2.31946          25.911         4.14533         40.9345 
        2.33169         25.6009         4.09219         40.6495 
        2.34393         25.2872         4.03991         40.3467 
        2.35622         25.0164         3.98836         40.1213 
        2.36847          24.738         3.93787         39.7959 
        2.38076         24.5284         3.88809         39.5675 
        2.39305         24.2045         3.83919          39.303 
        2.40534         24.0119         3.79113         38.9779 
        2.41762         23.6932          3.7439          38.754 
        2.42989         23.5849         3.69754           38.46 
        2.44216          23.254         3.65198         38.2221 
         2.4544         23.0583         3.60729         37.9654 
        2.46667         22.7928         3.56324         37.7033 
        2.47897         22.5427         3.51982          37.449 
        2.49124         22.3786         3.47725         37.1984 
        2.50349         22.1001         3.43544         36.9615 
        2.51578         21.8361         3.39419         36.7189 
        2.52805         21.6703          3.3537         36.4605 
        2.54029         21.4882         3.31396         36.2147 
        2.55257         21.3036         3.27475         35.9676 
        2.56487         21.0404         3.23611         35.7378 
        2.57716         20.8877         3.19813         35.4806 
        2.58942          20.666         3.16086         35.2797 
        2.60167         20.4719         3.12421          35.034 
        2.61395         20.2806         3.08809         34.7996 
        2.62624         20.1617         3.05249         34.5756 
        2.63849         19.9606         3.01756         34.3556 
        2.65073         19.7035         2.98322         34.1168 
        2.66302         19.4938         2.94929         33.9113 
         2.6753         19.4226         2.91591         33.6944 
        2.68756         19.2966         2.88312         33.4985 
        2.69983         19.0913          2.8508          33.243 
        2.71213         18.8811         2.81892         33.0349 
        2.72441          18.764         2.78757         32.8093 
        2.73665         18.6091         2.75678         32.5962 
         2.7489         18.4016         2.72648         32.3958 
        2.76118         18.3067         2.69653         32.1725 
        2.77349          18.195         2.66696         31.9826 
        2.78576         17.9731         2.63796         31.7937 
        2.79802         17.8533          2.6094         31.5795 
        2.81031          17.743          2.5812          31.387 
        2.82259         17.6513         2.55342         31.1943 
        2.83483         17.4577         2.52616         30.9838 
         2.8471         17.4132         2.49924         30.7728 
         2.8594          17.265         2.47264         30.5825 
         2.8717         17.1502         2.44643         30.3874 
        2.88396         16.9892         2.42069           30.19 
        2.89619         16.9538         2.39538         30.0093 
        2.90847         16.8498         2.37033          29.826 
        2.92072         16.7156         2.34568         29.6355 
        2.93299         16.6467         2.32137         29.4674 
        2.94526         16.5914         2.29738         29.2833 
        2.95753         16.5191         2.27374         29.0911 
        2.96982         16.4134         2.25039         28.9159 
        2.98209         16.3093         2.22742         28.7425 
        2.99436         16.2702         2.20475         28.5629 
        3.00666         16.1686         2.18235         28.3806 
        3.01894         16.1306         2.16031         28.2055 
        3.03119         16.0137         2.13861         28.0327 
        3.04345         16.0388          2.1172         27.8638 
        3.05573         16.0106         2.09604         27.6951 
          3.068         15.8964          2.0752         27.5193 
        3.08026          15.887         2.05466         27.3499 
        3.09254         15.8217         2.03436         27.1869 
        3.10483         15.8106         2.01433         27.0259 
         3.1171         15.8487         1.99459         26.8673 
        3.12933         15.7821         1.97518         26.7064 
        3.14159         15.6992         1.95598         26.5352 
