# k  (h/Mpc)    Pcb(k)  (Mpc/h)^3    Pcb_linear(k) (Mpc/h)^3    Pcb_NL(k) (Mpc/h)^3   ShotnoiseSubtracted = false
      0.0156606         6651.32         6662.85         6626.02 
      0.0273761         5756.29         5763.52         5737.95 
      0.0384619         4372.65         4343.11         4327.17 
      0.0498308         3412.22         3416.57         3402.82 
      0.0625568         2879.37         2903.89         2889.73 
      0.0751274         2518.37         2467.28          2445.4 
      0.0867833         1980.53         1986.49         1981.86 
      0.0984825         1625.75         1572.08         1582.72 
       0.111151         1368.82         1312.68         1323.57 
       0.123864          1229.7         1183.01         1192.13 
       0.135742         1108.63         1063.82         1073.21 
        0.14762         946.885         909.628         932.227 
       0.160083         786.807         758.231          784.06 
       0.172465         698.302         661.793         693.554 
       0.184281         646.036         610.097         643.607 
       0.196406         590.341         563.424         590.277 
       0.209011          537.95         501.305         530.794 
       0.221538         482.436         438.094         479.315 
       0.233611          441.29         391.981         438.106 
       0.245665         413.022         361.784         403.058 
       0.258103         378.881          336.79         377.879 
       0.270422         351.863         309.471         350.072 
       0.282519         320.803         280.863         323.567 
       0.294636         313.952         255.897         300.918 
       0.306978         277.405         236.748         283.535 
       0.319417         265.802         221.346         266.312 
        0.33169         248.418         206.603         250.015 
       0.343948           237.1          191.43         236.802 
       0.356249         220.126           177.2         224.978 
       0.368458         212.104         165.281         210.929 
        0.38068          201.06         155.314         200.413 
       0.392856         187.565         146.215         191.422 
       0.405069         179.037         137.318         182.724 
       0.417459         170.262         128.704         172.896 
       0.429752         163.749         120.971         165.555 
       0.441978         157.332         114.184         159.682 
       0.454294         146.451         108.021         151.576 
        0.46658         146.661         102.238         146.162 
       0.478753         137.503         96.7824         140.607 
       0.490964         133.319          91.658         135.157 
       0.503334         127.046         86.9281         130.335 
       0.515665         123.236          82.615         126.799 
       0.527909          119.14         78.6334         120.957 
       0.540159         115.055         74.8664          117.31 
        0.55248         110.546          71.292         113.124 
       0.564743         107.637         67.9823         109.961 
        0.57686         104.278         64.9405         106.291 
       0.589077         99.4177         62.0691         103.544 
       0.601441         97.0894         59.3387         100.601 
        0.61382         95.0217         56.7644         97.3408 
       0.626067         91.1499         54.3621         94.8027 
       0.638306         88.2371         52.0999         92.2382 
       0.650632           85.09         49.9566          88.981 
       0.662899         84.3985         47.9481         86.7917 
       0.675076         81.2539         46.0659          84.607 
       0.687267         79.6671         44.2823         82.4516 
       0.699615         77.0255         42.5708         80.7537 
       0.711937         74.4869         40.9529         78.2636 
       0.724148         73.9443         39.4328         77.1193 
       0.736433          70.532         37.9823          74.951 
       0.748747         69.4173         36.6027         73.2221 
       0.761037         67.6795         35.2949           71.48 
       0.773197          66.207         34.0645          70.469 
       0.785376         64.3447         32.8914         68.6382 
       0.797761         63.7642         31.7554         67.4666 
       0.810096         61.6818         30.6776         65.8864 
       0.822371         60.5008          29.655          64.494 
       0.834626         59.0107         28.6809         63.4239 
       0.846916         57.9164         27.7483          62.179 
       0.859215         56.4835         26.8568         60.8597 
       0.871383         55.7394         26.0136         59.8203 
        0.88363         54.2373         25.2017         58.9187 
       0.895928         53.0306         24.4216         57.7514 
       0.908253         51.8459         23.6732         56.8025 
       0.920535         51.4225         22.9588         55.7949 
       0.932774         50.4364         22.2765         54.8415 
        0.94508         49.6407         21.6187         53.7767 
       0.957324         48.3872         20.9908         53.0283 
        0.96953         48.0911         20.3898         52.0423 
       0.981769         46.6205          19.811         51.3764 
       0.994071          45.982          19.252         50.5793 
         1.0064         44.9891         18.7137         49.7621 
        1.01868         44.1788         18.1976         49.0624 
        1.03092         43.6341         17.7035         48.2856 
         1.0432         42.8315         17.2259         47.4455 
        1.05553         41.8456         16.7642         47.0751 
        1.06777         41.2066         16.3229         46.2539 
           1.08         40.2338         15.8979         45.5572 
        1.09227         39.8161         15.4868         44.9748 
         1.1046         39.2318         15.0887         44.2914 
         1.1169         38.7392         14.7054         43.6701 
        1.12915         38.0746         14.3373         43.1448 
        1.14142         37.2754         13.9812         42.5723 
        1.15365         36.7992         13.6382         42.0602 
        1.16585         36.2441         13.3077         41.4587 
        1.17807         35.6258         12.9878         40.8573 
        1.19037         35.4625         12.6763         40.5178 
        1.20276         34.8982          12.373         39.9712 
        1.21504          34.265          12.082         39.5455 
        1.22728         33.6738         11.8016         39.0285 
        1.23954         33.2958         11.5295         38.4662 
        1.25184          32.689         11.2655          38.092 
        1.26414         32.2819         11.0096         37.5881 
        1.27632         31.9875         10.7641         37.1742 
         1.2886         31.6384         10.5243         36.7781 
        1.30093         30.9932          10.291          36.326 
        1.31316          30.575         10.0664         35.9653 
        1.32541         30.3199         9.84858         35.5727 
        1.33772         29.7528         9.63599         35.1899 
        1.35005         29.3801         9.42955         34.8352 
        1.36225         28.9552         9.23127         34.4892 
        1.37447         28.3069         9.03834         34.0723 
        1.38676         28.3015         8.85004         33.7807 
        1.39907         27.8372         8.66681         33.4464 
        1.41133         27.3184         8.48958         33.0591 
        1.42358         27.0543         8.31748         32.7247 
        1.43591         26.6616         8.14898          32.435 
        1.44818         26.4128         7.98608         32.0811 
        1.46037         26.1286         7.82862         31.7436 
        1.47263         25.8559         7.67453         31.4958 
        1.48494         25.4606         7.52402         31.1555 
        1.49724          25.376         7.37767         30.8675 
        1.50952         24.8812         7.23551         30.6243 
        1.52178         24.5721         7.09732         30.2945 
        1.53409         24.3042         6.96219         30.0288 
        1.54637         24.0646         6.83086         29.7125 
        1.55858         23.5311         6.70367         29.4688 
        1.57081         23.5374         6.57955         29.2216 
        1.58313         23.2571          6.4578         28.9306 
        1.59544         22.8239          6.3392         28.7038 
        1.60767         22.5962         6.22435         28.4052 
        1.61994          22.284         6.11195         28.1906 
        1.63225         22.2077         6.00209         27.9922 
        1.64452         21.8291         5.89525         27.7476 
        1.65676         21.6291         5.79134         27.4828 
          1.669         21.4305         5.68986         27.2743 
        1.68133         21.0815         5.59018         27.0326 
        1.69363         20.8521         5.49318         26.7377 
        1.70585         20.6462          5.3991         26.6098 
        1.71809         20.3543         5.30704         26.3491 
        1.73038         20.2047         5.21683         26.1685 
        1.74268         20.0153         5.12867         25.9055 
        1.75493         19.6996         5.04296         25.7241 
        1.76714         19.6471         4.95942          25.523 
        1.77942         19.4289         4.87736         25.3014 
        1.79173         19.0189         4.79694         25.1147 
        1.80402         18.8445          4.7185          24.971 
         1.8163         18.7665         4.64187         24.6976 
         1.8286         18.4743          4.5668         24.5469 
         1.8409         18.2839         4.49347         24.3638 
        1.85315          18.135         4.42198         24.1781 
        1.86537         17.8867          4.3522         23.9961 
        1.87765         17.7687         4.28367         23.8085 
        1.88995         17.5218         4.21644         23.6141 
        1.90221         17.3794          4.1509         23.4385 
        1.91445         17.1887         4.08686         23.2604 
        1.92674         17.0158         4.02395         23.0925 
        1.93902         16.8146         3.96236         22.9527 
        1.95124         16.5838         3.90239         22.8268 
         1.9635         16.4583          3.8435         22.6097 
        1.97583         16.2987         3.78547         22.4323 
        1.98812         16.1447         3.72885         22.3037 
        2.00039         16.0151          3.6735         22.1357 
        2.01264         15.8422         3.61933         21.9957 
        2.02492         15.6817         3.56617          21.806 
        2.03717         15.4902         3.51417         21.6651 
        2.04942          15.346         3.46328         21.5041 
        2.06171          15.232         3.41322         21.3565 
        2.07397         15.0923         3.36426         21.2072 
        2.08629         14.9552         3.31606         21.0638 
        2.09857         14.8216         3.26891          20.924 
        2.11081         14.6347         3.22288         20.7878 
        2.12309         14.4862         3.17763          20.636 
        2.13538         14.3267         3.13318         20.4899 
        2.14763         14.1975         3.08972         20.3636 
        2.15986         14.1641          3.0472         20.2447 
        2.17214         13.9784          3.0053         20.0973 
        2.18443         13.8075         2.96415         19.9612 
        2.19671          13.716         2.92382         19.8166 
        2.20898         13.5743         2.88429         19.6983 
        2.22126         13.4434         2.84545         19.5725 
        2.23354         13.3928         2.80733         19.4312 
         2.2458         13.2145         2.76999         19.3384 
        2.25807         13.0775         2.73328         19.1712 
        2.27035         12.9889         2.69721         19.0597 
        2.28263         12.8587         2.66182         18.9341 
         2.2949          12.775         2.62707         18.8279 
        2.30718         12.6752         2.59293         18.7201 
        2.31946         12.5388         2.55939         18.5865 
        2.33169         12.4223         2.52658         18.4695 
        2.34393         12.3203         2.49429         18.3629 
        2.35622         12.1689         2.46247         18.2451 
        2.36847         12.1004         2.43129         18.1263 
        2.38076         11.9702         2.40056         18.0171 
        2.39305          11.851         2.37037         17.8984 
        2.40534          11.778          2.3407         17.7716 
        2.41762         11.6794         2.31154         17.6892 
        2.42989         11.5967         2.28292         17.5711 
        2.44216         11.4867         2.25478         17.4538 
         2.4544         11.4224         2.22719         17.3446 
        2.46667          11.318         2.19999         17.2516 
        2.47897         11.2003         2.17319         17.1338 
        2.49124          11.119          2.1469         17.0335 
        2.50349         11.0239         2.12109         16.9262 
        2.51578         10.9393         2.09562         16.8434 
        2.52805         10.8599         2.07062         16.7385 
        2.54029         10.7925         2.04609         16.6396 
        2.55257         10.7327         2.02188         16.5357 
        2.56487          10.563         1.99802         16.4341 
        2.57716         10.5201         1.97457         16.3282 
        2.58942         10.4608         1.95156          16.251 
        2.60167         10.3798         1.92893         16.1569 
        2.61395         10.3352         1.90663         16.0562 
        2.62624         10.2304         1.88465         15.9657 
        2.63849         10.1517         1.86309         15.8826 
        2.65073         10.0898         1.84188         15.7787 
        2.66302         10.0196         1.82093         15.6909 
         2.6753         9.97063         1.80033         15.5954 
        2.68756          9.9123         1.78008         15.5184 
        2.69983         9.82365         1.76013         15.4181 
        2.71213          9.7689         1.74044         15.3215 
        2.72441         9.70398         1.72109         15.2425 
        2.73665         9.68716         1.70208         15.1503 
         2.7489         9.60992         1.68336         15.0583 
        2.76118         9.51239         1.66488         14.9833 
        2.77349         9.47882         1.64662         14.8979 
        2.78576         9.42817         1.62871         14.8174 
        2.79802         9.37706         1.61108         14.7293 
        2.81031         9.33318         1.59367         14.6475 
        2.82259         9.29708         1.57652         14.5655 
        2.83483         9.22573         1.55969          14.485 
         2.8471         9.18322         1.54307         14.4062 
         2.8594          9.1649         1.52664         14.3242 
         2.8717         9.11736         1.51046         14.2427 
        2.88396         9.06798         1.49457         14.1653 
        2.89619         9.01613         1.47894         14.0894 
        2.90847         8.97901         1.46348         14.0108 
        2.92072         8.98082         1.44826         13.9266 
        2.93299         8.91607         1.43325         13.8574 
        2.94526         8.90861         1.41844         13.7847 
        2.95753         8.87454         1.40384         13.7059 
        2.96982         8.83089         1.38943         13.6296 
        2.98209         8.82176         1.37524         13.5535 
        2.99436         8.80639         1.36124         13.4782 
        3.00666         8.77633         1.34742         13.4083 
        3.01894         8.75641         1.33381         13.3446 
        3.03119         8.74609         1.32041         13.2676 
        3.04345         8.69754         1.30719          13.188 
        3.05573         8.72768         1.29413         13.1208 
          3.068         8.70091         1.28126         13.0555 
        3.08026         8.71136         1.26857         12.9767 
        3.09254         8.70425         1.25604         12.9125 
        3.10483             8.7         1.24367         12.8523 
         3.1171         8.70571         1.23149          12.781 
        3.12933          8.7188          1.2195         12.7106 
        3.14159          8.6801         1.20765         12.6441 
