# k  (h/Mpc)    Pcb(k)  (Mpc/h)^3    Pcb_linear(k) (Mpc/h)^3    Pcb_NL(k) (Mpc/h)^3   ShotnoiseSubtracted = false
      0.0156606         18645.1         18734.2         18595.2 
      0.0273761         16007.3           16198         16041.8 
      0.0384619         12117.8         12203.4         12068.2 
      0.0498308         9374.33         9598.73         9463.94 
      0.0625568         7918.67          8157.7         8036.54 
      0.0751274         7036.63         6930.82          6759.5 
      0.0867833         5461.65         5580.06          5528.3 
      0.0984825         4594.84         4415.89         4466.15 
       0.111151         3920.19         3687.19         3747.34 
       0.123864          3514.6         3322.89         3371.93 
       0.135742         3197.61          2988.1          3037.6 
        0.14762         2776.38         2554.98         2686.42 
       0.160083         2346.24         2129.72            2290 
       0.172465         2092.93         1858.83         2062.35 
       0.184281         1904.83         1713.62         1919.18 
       0.196406         1784.37         1582.52         1764.94 
       0.209011         1663.05         1408.04         1597.89 
       0.221538         1499.58          1230.5         1486.37 
       0.233611         1428.04         1100.97         1388.64 
       0.245665         1298.97         1016.16         1280.75 
       0.258103         1273.92         945.954         1208.11 
       0.270422         1139.35         869.222         1132.82 
       0.282519         1069.97         788.867         1068.26 
       0.294636         1055.81         718.745         1009.86 
       0.306978         958.098          664.96         965.928 
       0.319417         934.475         621.699          910.13 
        0.33169         879.985         580.289         860.319 
       0.343948         841.865         537.672         832.564 
       0.356249         795.269         497.704         800.436 
       0.368458         767.995         464.228         762.267 
        0.38068         750.108         436.232         731.917 
       0.392856         710.221         410.676         705.025 
       0.405069         676.814         385.688         683.093 
       0.417459         650.655         361.492         655.738 
       0.429752         641.478         339.772         632.572 
       0.441978         619.517          320.71         615.717 
       0.454294         590.074         303.399         589.948 
        0.46658         574.984         287.156         577.057 
       0.478753         561.706         271.833         558.751 
       0.490964         540.367          257.44           541.2 
       0.503334          514.52         244.155         528.199 
       0.515665         513.489         232.041         516.668 
       0.527909          493.46         220.858         504.246 
       0.540159         481.041         210.278         490.688 
        0.55248         471.726         200.238           477.7 
       0.564743         467.523         190.942          469.37 
        0.57686         450.042         182.399         456.449 
       0.589077         438.175         174.334         446.231 
       0.601441         431.749         166.665         436.906 
        0.61382         421.502         159.434         429.168 
       0.626067         416.101         152.687         420.473 
       0.638306         399.852         146.333          412.28 
       0.650632         395.199         140.313         401.393 
       0.662899          391.78         134.672         396.694 
       0.675076         377.292         129.385         390.256 
       0.687267         367.711         124.376         380.957 
       0.699615         363.907         119.569         374.842 
       0.711937         358.357         115.024         368.044 
       0.724148         346.436         110.755         362.704 
       0.736433         338.597         106.681          355.83 
       0.748747          334.15         102.806         349.325 
       0.761037          327.91         99.1328         344.549 
       0.773197          324.02          95.677         339.432 
       0.785376          319.09         92.3821         334.079 
       0.797761         310.656         89.1914         328.795 
       0.810096         308.114         86.1641         324.597 
       0.822371         297.597         83.2919          319.24 
       0.834626         296.246          80.556         315.008 
       0.846916         289.988         77.9365         310.242 
       0.859215         289.594         75.4326         305.811 
       0.871383         282.061         73.0642         301.487 
        0.88363         280.432         70.7839         298.385 
       0.895928         274.618         68.5928         293.638 
       0.908253         267.635         66.4908         288.936 
       0.920535         265.377         64.4843         285.262 
       0.932774         258.667          62.568         281.246 
        0.94508         255.707         60.7204         278.317 
       0.957324         254.644         58.9567         274.412 
        0.96953         250.973         57.2688         270.847 
       0.981769          243.84         55.6431         268.087 
       0.994071         242.979          54.073         264.693 
         1.0064         237.769         52.5611         260.789 
        1.01868         234.898         51.1117          257.55 
        1.03092         229.036         49.7237         255.111 
         1.0432         225.622         48.3824         252.002 
        1.05553         222.818         47.0856         248.685 
        1.06777         222.006          45.846         246.092 
           1.08         216.603         44.6524         243.165 
        1.09227         214.312         43.4977         240.351 
         1.1046          211.12         42.3796         237.945 
         1.1169         206.652          41.303         234.691 
        1.12915         203.905         40.2692         232.564 
        1.14142         200.611         39.2688         229.599 
        1.15365           197.9         38.3056          227.18 
        1.16585         194.876         37.3773         224.362 
        1.17807         192.586         36.4787         222.448 
        1.19037         190.553         35.6039         220.362 
        1.20276         187.835         34.7519         217.542 
        1.21504          183.95         33.9347         215.183 
        1.22728         180.772         33.1472         212.449 
        1.23954           180.2         32.3829         210.876 
        1.25184         176.706         31.6413         208.505 
        1.26414         173.635         30.9228         206.394 
        1.27632         172.988          30.233         204.858 
         1.2886         171.217         29.5595         202.251 
        1.30093         166.285         28.9042         199.949 
        1.31316         163.895         28.2735         197.709 
        1.32541          162.56         27.6617         196.082 
        1.33772         160.936         27.0646         194.041 
        1.35005         158.397         26.4847         191.864 
        1.36225         155.968         25.9278         190.108 
        1.37447         153.852         25.3859         187.812 
        1.38676         152.006         24.8571         186.254 
        1.39907         149.494         24.3424         184.239 
        1.41133         147.214         23.8446         182.548 
        1.42358         145.368         23.3613         180.832 
        1.43591         143.705          22.888          178.93 
        1.44818         141.756         22.4305          177.29 
        1.46037         139.721         21.9882         175.432 
        1.47263         138.053         21.5554         174.041 
        1.48494         135.966         21.1327         171.928 
        1.49724         134.147         20.7216         170.549 
        1.50952         131.718         20.3224         168.875 
        1.52178          131.19         19.9342         167.051 
        1.53409          128.39         19.5547         165.678 
        1.54637         126.937         19.1858         164.286 
        1.55858          124.71         18.8286         162.518 
        1.57081         123.059         18.4799         161.138 
        1.58313         121.516          18.138         159.503 
        1.59544          119.78         17.8049         158.116 
        1.60767         118.654         17.4823         156.627 
        1.61994         116.559         17.1666         155.378 
        1.63225         115.155         16.8581         153.615 
        1.64452         113.056          16.558          152.24 
        1.65676         111.414         16.2661         150.978 
          1.669         110.765         15.9811           149.7 
        1.68133         108.393         15.7011         148.319 
        1.69363         107.162         15.4287         146.996 
        1.70585         105.237         15.1644         145.691 
        1.71809         104.042         14.9059         144.183 
        1.73038         103.321         14.6525         143.023 
        1.74268         102.091         14.4049         141.675 
        1.75493         99.8864         14.1641         140.445 
        1.76714         98.8437         13.9295          139.31 
        1.77942         97.4632          13.699           137.9 
        1.79173         96.0784         13.4731         136.812 
        1.80402         95.3203         13.2528         135.621 
         1.8163          93.346         13.0376         134.363 
         1.8286         92.1131         12.8268         133.179 
         1.8409         91.4713         12.6208         131.977 
        1.85315         89.9033           12.42         130.926 
        1.86537         88.8617          12.224         129.833 
        1.87765          88.053         12.0315           128.7 
        1.88995         86.5667         11.8427         127.598 
        1.90221         85.4151         11.6586         126.518 
        1.91445         84.3144         11.4787         125.343 
        1.92674         82.9207          11.302         124.312 
        1.93902         81.9035         11.1291         123.199 
        1.95124         81.0897         10.9606         122.198 
         1.9635         79.8173         10.7952         121.072 
        1.97583         78.6382         10.6322         120.156 
        1.98812         77.6447         10.4732         119.156 
        2.00039         76.6959         10.3177         118.111 
        2.01264         75.9013         10.1656         117.129 
        2.02492         74.9354         10.0163         116.122 
        2.03717         73.6802         9.87024         115.131 
        2.04942         73.3523         9.72729         114.283 
        2.06171         71.6817         9.58669         113.285 
        2.07397         70.9001         9.44918         112.386 
        2.08629         70.0912         9.31379         111.407 
        2.09857         69.0295         9.18139          110.52 
        2.11081         67.9792         9.05209           109.5 
        2.12309          67.202         8.92499         108.752 
        2.13538         66.3684         8.80014         107.805 
        2.14763         65.4682         8.67809         106.941 
        2.15986         64.3498         8.55865         106.026 
        2.17214         63.8337         8.44097         105.151 
        2.18443         63.0695         8.32539         104.453 
        2.19671         61.8881         8.21212         103.559 
        2.20898         61.5668         8.10109         102.681 
        2.22126         60.6263         7.99199         101.852 
        2.23354         59.9201         7.88495         101.075 
         2.2458         59.0217         7.78005         100.292 
        2.25807         58.2373         7.67696         99.4475 
        2.27035         57.6185         7.57565         98.6404 
        2.28263         56.8095         7.47623         97.8645 
         2.2949         56.2105         7.37863         97.1014 
        2.30718         55.1697         7.28276         96.3698 
        2.31946         54.8398         7.18853         95.5767 
        2.33169         53.8869         7.09639         94.8438 
        2.34393         53.3093         7.00571         94.1375 
        2.35622         52.6308         6.91634         93.3939 
        2.36847         52.1423         6.82877         92.7567 
        2.38076         51.2311         6.74245          91.921 
        2.39305         50.6717         6.65765         91.2902 
        2.40534         50.1367         6.57431         90.5407 
        2.41762           49.54          6.4924         89.8005 
        2.42989         48.9512         6.41201         89.1903 
        2.44216         48.3885           6.333         88.4627 
         2.4544         47.7618          6.2555         87.7931 
        2.46667         47.2177         6.17911         87.1022 
        2.47897         46.7174         6.10382         86.4392 
        2.49124         46.1006         6.02999         85.8242 
        2.50349         45.7792         5.95749          85.146 
        2.51578         45.0423         5.88596         84.5937 
        2.52805         44.5488         5.81574         83.8968 
        2.54029          44.097         5.74684          83.222 
        2.55257         43.4612         5.67884         82.6563 
        2.56487         43.1028         5.61182         82.0815 
        2.57716         42.5155         5.54597         81.4777 
        2.58942          41.938         5.48133         80.8511 
        2.60167         41.6268         5.41778         80.2647 
        2.61395         41.0166         5.35514         79.6836 
        2.62624         40.7763         5.29341          79.047 
        2.63849         40.2446         5.23284         78.4939 
        2.65073         39.8795         5.17329         77.9127 
        2.66302         39.3384         5.11445          77.334 
         2.6753         38.8935         5.05657         76.7924 
        2.68756         38.4858         4.99969         76.2138 
        2.69983          38.125         4.94366         75.7058 
        2.71213         37.7394         4.88836         75.1725 
        2.72441         37.3584         4.83401         74.6167 
        2.73665         36.8228         4.78062         74.0808 
         2.7489          36.701         4.72806         73.5585 
        2.76118         36.1795         4.67613         73.0466 
        2.77349         35.8943         4.62486         72.5208 
        2.78576         35.6252         4.57456         71.9781 
        2.79802         35.2108         4.52503         71.5401 
        2.81031         34.8046         4.47612         71.0148 
        2.82259         34.7441         4.42796         70.4895 
        2.83483         34.2602         4.38068         70.0351 
         2.8471         33.9083         4.33401         69.5419 
         2.8594          33.665         4.28787         69.0349 
         2.8717         33.4786         4.24242         68.5734 
        2.88396         33.1024         4.19779         68.0895 
        2.89619          32.954         4.15389         67.5853 
        2.90847         32.6059         4.11046         67.1203 
        2.92072         32.3979         4.06771         66.6874 
        2.93299         32.2079         4.02556         66.2322 
        2.94526         31.8874         3.98396         65.7854 
        2.95753         31.6893         3.94296         65.3328 
        2.96982         31.5516         3.90247          64.887 
        2.98209         31.2474         3.86263         64.4568 
        2.99436         31.0523         3.82332         63.9912 
        3.00666         30.9845         3.78448         63.5737 
        3.01894         30.7137         3.74626         63.1338 
        3.03119         30.5713         3.70862         62.7239 
        3.04345         30.4463          3.6715         62.3287 
        3.05573         30.1912         3.63481         61.9109 
          3.068          30.189         3.59866         61.4942 
        3.08026         30.0181         3.56304         61.0805 
        3.09254         29.8864         3.52783         60.6797 
        3.10483         29.8784          3.4931         60.2874 
         3.1171         29.6658         3.45888           59.89 
        3.12933         29.6505         3.42521         59.4848 
        3.14159          29.512         3.39192         59.0814 
