# k  (h/Mpc)    Pcb(k)  (Mpc/h)^3    Pcb_linear(k) (Mpc/h)^3    Pcb_NL(k) (Mpc/h)^3   ShotnoiseSubtracted = false
      0.0156606         23242.5         23378.8         23188.5 
      0.0273761           19905         20211.7         19978.3 
      0.0384619         15043.8         15226.4         15017.2 
      0.0498308         11610.2         11976.2         11765.1 
      0.0625568         9812.33           10178         9991.05 
      0.0751274         8750.33         8647.17         8385.34 
      0.0867833         6772.45         6961.85         6880.13 
      0.0984825         5739.47         5509.36         5579.66 
       0.111151          4918.3         4600.19         4689.68 
       0.123864         4405.52         4145.68         4217.84 
       0.135742          4022.4         3727.98          3800.1 
        0.14762         3507.28          3187.6         3377.89 
       0.160083          2990.9         2657.04         2893.09 
       0.172465         2667.68         2319.08         2619.98 
       0.184281         2413.34         2137.91         2438.57 
       0.196406         2286.61         1974.35         2248.63 
       0.209011         2145.04         1756.67         2040.17 
       0.221538         1930.06         1535.16         1909.19 
       0.233611         1857.13         1373.57         1792.63 
       0.245665         1681.65         1267.75         1657.28 
       0.258103         1672.84         1180.17         1566.04 
       0.270422         1492.51         1084.44         1473.22 
       0.282519         1414.29         984.186         1398.37 
       0.294636         1385.24         896.702         1326.41 
       0.306978         1270.65         829.599         1272.82 
       0.319417         1249.78         775.627         1200.67 
        0.33169            1174         723.964         1138.74 
       0.343948         1129.79         670.795         1104.68 
       0.356249         1073.94         620.931         1064.98 
       0.368458         1028.91         579.166         1020.03 
        0.38068         1016.31         544.239         982.573 
       0.392856         967.065         512.356         949.715 
       0.405069         915.949         481.181         918.358 
       0.417459         881.474         450.994         888.564 
       0.429752         881.333         423.897         857.901 
       0.441978         850.604         400.114         836.943 
       0.454294         814.913         378.517         803.755 
        0.46658         792.254         358.253         787.884 
       0.478753         778.742         339.137         764.897 
       0.490964         749.767          321.18         742.068 
       0.503334         718.937         304.606         726.467 
       0.515665         715.977         289.492         709.925 
       0.527909          686.05          275.54         696.104 
       0.540159         670.689          262.34         679.357 
        0.55248         657.177         249.815         662.154 
       0.564743         651.614         238.218         651.027 
        0.57686         631.748         227.559         634.349 
       0.589077         622.835         217.497         620.818 
       0.601441         606.719         207.929         609.217 
        0.61382         589.507         198.908         598.493 
       0.626067         584.215         190.491         587.932 
       0.638306         563.387         182.564         575.953 
       0.650632         558.357         175.053         563.102 
       0.662899         554.205         168.015           556.1 
       0.675076         537.811          161.42          549.06 
       0.687267         522.254          155.17         536.354 
       0.699615         522.067         149.173         527.904 
       0.711937         510.187         143.503         517.887 
       0.724148         494.418         138.177         511.356 
       0.736433         483.282         133.094         502.554 
       0.748747         477.442          128.26         493.895 
       0.761037         469.392         123.677         488.176 
       0.773197         461.757         119.366         479.892 
       0.785376         456.918         115.255         473.158 
       0.797761         443.453         111.274         466.583 
       0.810096         437.648         107.497         460.544 
       0.822371         427.395         103.914         453.204 
       0.834626         422.911         100.501         448.176 
       0.846916         417.488         97.2328         441.181 
       0.859215         411.629         94.1089         434.687 
       0.871383         403.062         91.1541         429.094 
        0.88363          397.82         88.3093         424.799 
       0.895928         392.998         85.5756           418.3 
       0.908253         383.585         82.9531         411.376 
       0.920535         375.179         80.4499         407.251 
       0.932774         370.448         78.0592          400.97 
        0.94508         364.966         75.7541         397.092 
       0.957324         360.477         73.5538         391.827 
        0.96953         356.127         71.4479         387.105 
       0.981769         348.086         69.4197         382.785 
       0.994071         346.923         67.4609         378.203 
         1.0064         340.797         65.5746         372.729 
        1.01868         336.799         63.7664         368.065 
        1.03092         327.222         62.0347         364.882 
         1.0432         324.291         60.3613          360.48 
        1.05553          321.25         58.7435         355.495 
        1.06777         316.595         57.1969         351.411 
           1.08         309.602         55.7079         347.569 
        1.09227         309.392         54.2672         343.425 
         1.1046         303.045         52.8723         340.262 
         1.1169         297.187         51.5291         335.794 
        1.12915         292.831         50.2395         332.271 
        1.14142         287.064         48.9914         328.446 
        1.15365         283.999         47.7896         325.018 
        1.16585         279.543         46.6314         321.432 
        1.17807         276.927         45.5104         317.814 
        1.19037         271.652          44.419         315.134 
        1.20276         268.954         43.3561         311.048 
        1.21504         263.603         42.3365         307.546 
        1.22728         259.848         41.3541         304.395 
        1.23954          258.32         40.4005         301.133 
        1.25184         252.476         39.4754         297.996 
        1.26414          247.78         38.5789         295.195 
        1.27632         245.339         37.7183         292.438 
         1.2886         242.893         36.8781         289.173 
        1.30093         237.961         36.0605         285.452 
        1.31316         233.133         35.2737         282.862 
        1.32541          232.04         34.5104         279.717 
        1.33772         227.708         33.7654         277.258 
        1.35005          225.22         33.0421         274.118 
        1.36225         221.096         32.3473         271.562 
        1.37447          217.59         31.6712         268.325 
        1.38676         215.628         31.0114         266.431 
        1.39907          212.57         30.3694         263.147 
        1.41133         208.562         29.7483         260.371 
        1.42358         206.029         29.1453         257.934 
        1.43591         203.305         28.5548         255.671 
        1.44818         199.489          27.984         252.918 
        1.46037         197.996         27.4322         250.212 
        1.47263          194.28         26.8923         247.754 
        1.48494         192.927         26.3649         244.834 
        1.49724         189.283         25.8521          243.34 
        1.50952         186.197         25.3539         240.404 
        1.52178         183.812         24.8697         238.157 
        1.53409          180.88         24.3962         235.898 
        1.54637         178.026          23.936         233.953 
        1.55858         176.177         23.4903         231.502 
        1.57081         173.241         23.0554         229.177 
        1.58313         171.163         22.6288         226.861 
        1.59544         168.005         22.2132          224.85 
        1.60767         166.606         21.8107         222.863 
        1.61994          163.77         21.4169         220.567 
        1.63225          161.16         21.0319         218.347 
        1.64452          158.67         20.6575         216.419 
        1.65676         156.795         20.2934         214.584 
          1.669         154.966         19.9378          212.38 
        1.68133         151.977         19.5885         210.439 
        1.69363         149.436         19.2486         208.731 
        1.70585         147.229          18.919          206.74 
        1.71809          145.35         18.5964          204.55 
        1.73038         143.376         18.2803         202.812 
        1.74268         142.188         17.9714         200.834 
        1.75493         139.244          17.671         199.227 
        1.76714         138.446         17.3783         197.461 
        1.77942         135.679         17.0907         195.674 
        1.79173         133.877         16.8089         193.769 
        1.80402         131.929         16.5341         192.051 
         1.8163         129.742         16.2656         190.537 
         1.8286         127.928         16.0025         188.663 
         1.8409           126.3         15.7455         186.917 
        1.85315         124.081         15.4951         185.376 
        1.86537          122.74         15.2505         183.796 
        1.87765         121.277         15.0104         182.219 
        1.88995         119.221         14.7748         180.477 
        1.90221         117.738         14.5452         179.077 
        1.91445         115.945         14.3207         177.379 
        1.92674         114.073         14.1003         175.784 
        1.93902         112.793         13.8845           174.2 
        1.95124         111.258         13.6743         172.745 
         1.9635         109.467          13.468         171.244 
        1.97583         107.844         13.2646         169.703 
        1.98812         106.334         13.0662         168.535 
        2.00039         105.172         12.8723         166.893 
        2.01264         103.905         12.6825         165.517 
        2.02492         102.268         12.4962         163.995 
        2.03717         100.875          12.314         162.719 
        2.04942         99.5847         12.1357         161.302 
        2.06171         97.9421         11.9602         159.853 
        2.07397         96.6835         11.7887         158.659 
        2.08629         95.2631         11.6198         157.275 
        2.09857          94.198         11.4546         156.024 
        2.11081          92.723         11.2933         154.587 
        2.12309         91.5659         11.1347          153.39 
        2.13538         90.1103          10.979         152.065 
        2.14763         88.8141         10.8267         150.817 
        2.15986         87.9552         10.6777         149.469 
        2.17214         86.7143         10.5309         148.352 
        2.18443         85.7364         10.3867         147.256 
        2.19671           84.65         10.2453         145.966 
        2.20898         83.4426         10.1068         144.655 
        2.22126         82.3139         9.97072         143.601 
        2.23354         81.2663         9.83717         142.475 
         2.2458         79.6952          9.7063          141.24 
        2.25807         79.0722         9.57769         140.128 
        2.27035         77.9303          9.4513         138.999 
        2.28263         76.9861         9.32726         137.942 
         2.2949         75.5841          9.2055         136.852 
        2.30718         74.5038         9.08589         135.719 
        2.31946         73.7864         8.96833          134.56 
        2.33169         72.6536         8.85337         133.556 
        2.34393         71.9661         8.74025         132.629 
        2.35622         70.8604         8.62874         131.479 
        2.36847         70.0418         8.51949         130.559 
        2.38076         68.8301         8.41181          129.44 
        2.39305         68.2363         8.30601         128.527 
        2.40534         67.1619         8.20203         127.456 
        2.41762         66.5728         8.09985         126.454 
        2.42989         65.4688         7.99956         125.522 
        2.44216         64.8947         7.90098         124.481 
         2.4544         63.9871         7.80428         123.594 
        2.46667         62.9932         7.70899         122.651 
        2.47897         62.4948         7.61505         121.624 
        2.49124         61.6799         7.52295         120.713 
        2.50349         60.5925          7.4325         119.829 
        2.51578         60.2132         7.34326             119 
        2.52805         59.2127         7.25565         118.023 
        2.54029         58.6564         7.16969         117.135 
        2.55257         57.9423         7.08486         116.313 
        2.56487         57.4907         7.00124         115.445 
        2.57716         56.8598         6.91909         114.582 
        2.58942         55.9636         6.83844         113.745 
        2.60167         55.3455         6.75916         112.927 
        2.61395         54.9346         6.68101         112.064 
        2.62624         54.0952         6.60399         111.179 
        2.63849         53.4915         6.52844         110.418 
        2.65073         52.7531         6.45414         109.589 
        2.66302         52.3351         6.38073          108.81 
         2.6753         51.5896         6.30851         108.036 
        2.68756         51.2552         6.23756         107.221 
        2.69983         50.6518         6.16765         106.449 
        2.71213         50.0792         6.09866         105.692 
        2.72441         49.6126         6.03086         104.915 
        2.73665         49.0513         5.96424         104.195 
         2.7489         48.5615         5.89867         103.466 
        2.76118          48.111         5.83389         102.693 
        2.77349          47.626         5.76992         101.988 
        2.78576         47.1481         5.70717         101.248 
        2.79802         46.7457         5.64538         100.591 
        2.81031         46.2045         5.58436         99.8655 
        2.82259         45.7107         5.52427         99.1201 
        2.83483         45.2589         5.46529         98.4721 
         2.8471         44.7687         5.40706         97.7602 
         2.8594         44.3756          5.3495         97.0739 
         2.8717         44.0788         5.29279         96.4454 
        2.88396         43.6218         5.23712         95.7758 
        2.89619         43.3113         5.18235         95.0742 
        2.90847         42.8918         5.12816         94.3789 
        2.92072         42.5399         5.07483          93.802 
        2.93299         42.3212         5.02224         93.1747 
        2.94526         41.9533         4.97034         92.5098 
        2.95753         41.6689         4.91919         91.8762 
        2.96982         41.2307         4.86868          91.273 
        2.98209         41.0111         4.81898           90.65 
        2.99436         40.7944         4.76993         90.0098 
        3.00666         40.5641         4.72148         89.4058 
        3.01894         40.3342         4.67379         88.8153 
        3.03119         40.0448         4.62684         88.2491 
        3.04345         39.7763         4.58052         87.6706 
        3.05573          39.764         4.53475         87.0748 
          3.068         39.4489         4.48965         86.5042 
        3.08026         39.2297         4.44521         85.9276 
        3.09254         39.2099         4.40129         85.3688 
        3.10483         39.0968         4.35795          84.812 
         3.1171         38.9348         4.31526         84.2445 
        3.12933         38.6908         4.27325         83.6852 
        3.14159         38.6661         4.23172         83.1326 
