# k  (h/Mpc)    P(k)  (Mpc/h)^3    P_linear(k)  (Mpc/h)^3     P_NL(k)  ShotnoiseSubtracted = false
      0.0156606         465.726         479.073         476.882 
      0.0273761         405.869         414.402         413.598 
      0.0384619         308.103         312.274         312.308 
      0.0498308         242.566         245.656         245.862 
      0.0625568         204.747         208.795         208.729 
      0.0751274         175.068         177.403         177.163 
      0.0867833         140.279         142.834         142.813 
      0.0984825         112.276         113.037         113.205 
       0.111151         93.7858         94.3858         94.5302 
       0.123864         84.1794         85.0617         85.0974 
       0.135742         75.5189         76.4923         76.4963 
        0.14762         64.2908         65.4053         65.5247 
       0.160083         53.5575         54.5194         54.6954 
       0.172465         46.8461         47.5852         47.7861 
       0.184281         43.3007         43.8681         44.0599 
       0.196406         39.6784         40.5122         40.6385 
       0.209011         35.4639         36.0456         36.2036 
       0.221538         31.1848         31.5005         31.7441 
       0.233611         27.9115         28.1848         28.4564 
       0.245665         25.9731         26.0136         26.2476 
       0.258103         23.6833         24.2164         24.4432 
       0.270422          22.027         22.2521          22.468 
       0.282519           19.99         20.1951         20.4364 
       0.294636         18.4944         18.3999         18.6565 
       0.306978         16.7186         17.0231         17.2861 
       0.319417         15.7918         15.9156         16.1694 
        0.33169         14.7002         14.8555         15.0985 
       0.343948         13.7409         13.7645         14.0057 
       0.356249         12.6024         12.7413         13.0225 
       0.368458         11.8532         11.8843         12.1303 
        0.38068         11.0636         11.1677         11.4124 
       0.392856         10.4142         10.5135         10.7604 
       0.405069         9.82675         9.87372         10.1056 
       0.417459         9.07659         9.25434         9.50095 
       0.429752         8.60778         8.69833         8.94006 
       0.441978         8.16597         8.21029         8.46778 
       0.454294         7.66425         7.76712         8.00965 
        0.46658           7.365         7.35131         7.58733 
       0.478753         6.92011         6.95903         7.19286 
       0.490964         6.61768         6.59054         6.84075 
       0.503334         6.29596         6.25048         6.48268 
       0.515665         5.92708         5.94035         6.18575 
       0.527909         5.68175         5.65405         5.87981 
       0.540159         5.37721         5.38317          5.6045 
        0.55248           5.084         5.12616         5.33658 
       0.564743         4.94391          4.8882         5.11682 
        0.57686         4.71138         4.66947         4.88776 
       0.589077         4.43995         4.46301         4.69016 
       0.601441         4.26811         4.26668          4.4879 
        0.61382         4.08526         4.08158          4.2942 
       0.626067          3.9004         3.90885         4.11885 
       0.638306         3.75642         3.74619         3.95184 
       0.650632         3.63341         3.59208         3.80124 
       0.662899         3.47785         3.44766         3.64869 
       0.675076         3.30697         3.31231         3.51352 
       0.687267         3.17743         3.18407         3.37393 
       0.699615         3.09554         3.06101         3.24873 
       0.711937         2.95484         2.94467         3.13824 
       0.724148         2.87471         2.83537         3.02374 
       0.736433         2.74231         2.73108           2.911 
       0.748747         2.64908         2.63188            2.82 
       0.761037         2.55415         2.53784         2.71874 
       0.773197         2.45501         2.44937         2.63318 
       0.785376         2.36672         2.36502         2.54334 
       0.797761         2.28788         2.28334         2.45451 
       0.810096         2.23233         2.20584         2.38353 
       0.822371         2.16735         2.13231         2.30109 
       0.834626         2.09388         2.06227         2.22716 
       0.846916         2.02051         1.99521         2.16649 
       0.859215         1.93711         1.93111         2.10182 
       0.871383         1.87923         1.87047         2.03514 
        0.88363         1.82544          1.8121         1.97598 
       0.895928         1.78008           1.756         1.91596 
       0.908253         1.72499         1.70219         1.86138 
       0.920535         1.67448         1.65083          1.8053 
       0.932774          1.6192         1.60177         1.75152 
        0.94508         1.57676         1.55447         1.70363 
       0.957324         1.53486         1.50932         1.66098 
        0.96953         1.48194         1.46611         1.61449 
       0.981769         1.43486         1.42449         1.56683 
       0.994071         1.40132         1.38429         1.53134 
         1.0064         1.36105         1.34559         1.48789 
        1.01868         1.32056         1.30848         1.45005 
        1.03092         1.29854         1.27295         1.40957 
         1.0432         1.25764         1.23861         1.37466 
        1.05553         1.22255         1.20541          1.3422 
        1.06777         1.18768         1.17368          1.3087 
           1.08         1.16362         1.14312         1.27544 
        1.09227         1.12371         1.11356         1.24338 
         1.1046         1.09815         1.08494         1.21514 
         1.1169         1.06967         1.05737         1.18589 
        1.12915         1.04336         1.03091         1.15751 
        1.14142         1.02272          1.0053         1.13063 
        1.15365        0.997986         0.98064         1.10479 
        1.16585        0.972417        0.956875         1.07841 
        1.17807        0.956682        0.933872         1.05586 
        1.19037        0.919478        0.911476         1.03039 
        1.20276        0.903195        0.889666         1.00552 
        1.21504        0.884458        0.868744        0.987817 
        1.22728        0.868582        0.848584        0.962495 
        1.23954        0.846003        0.829018        0.944681 
        1.25184        0.830815        0.810034        0.922314 
        1.26414        0.810746        0.791637        0.902675 
        1.27632        0.786555        0.773979        0.883555 
         1.2886        0.769281        0.756736         0.86387 
        1.30093        0.749773         0.73996        0.849078 
        1.31316        0.728884        0.723816        0.830411 
        1.32541        0.717261        0.708152        0.814672 
        1.33772        0.704959        0.692866        0.798135 
        1.35005        0.692748        0.678022        0.782527 
        1.36225        0.676143        0.663765        0.766092 
        1.37447        0.661854        0.649892        0.752518 
        1.38676        0.649434        0.636353        0.736577 
        1.39907        0.635686        0.623178        0.723048 
        1.41133        0.619749        0.610434        0.709359 
        1.42358        0.611879         0.59806        0.694426 
        1.43591          0.5983        0.585944        0.683505 
        1.44818        0.586553        0.574231        0.671197 
        1.46037        0.573607        0.562909        0.657154 
        1.47263        0.562957        0.551829        0.646032 
        1.48494        0.552673        0.541007        0.635023 
        1.49724        0.542124        0.530483        0.623702 
        1.50952        0.530266        0.520262        0.610225 
        1.52178        0.520532        0.510325          0.6001 
        1.53409        0.511862        0.500609        0.590071 
        1.54637        0.499281        0.491166        0.579127 
        1.55858        0.492314         0.48202        0.569194 
        1.57081        0.485602        0.473095        0.559057 
        1.58313        0.474918        0.464341        0.550297 
        1.59544        0.467468        0.455814        0.540432 
        1.60767        0.459126        0.447555        0.531495 
        1.61994        0.449038        0.439473        0.523399 
        1.63225        0.440609        0.431574         0.51474 
        1.64452        0.434876        0.423892         0.50562 
        1.65676        0.428196         0.41642        0.497688 
          1.669        0.420754        0.409124        0.489235 
        1.68133        0.412118        0.401956        0.481733 
        1.69363        0.404866        0.394981        0.474256 
        1.70585        0.398707        0.388217        0.466364 
        1.71809        0.391215        0.381597        0.458966 
        1.73038        0.385173        0.375111        0.452109 
        1.74268        0.377189        0.368772        0.444377 
        1.75493        0.374201        0.362609         0.43853 
        1.76714        0.366074        0.356602        0.431608 
        1.77942          0.3609        0.350701        0.425144 
        1.79173         0.35515        0.344919        0.417827 
        1.80402        0.348838        0.339279        0.412191 
         1.8163        0.344238        0.333769        0.404965 
         1.8286        0.336849        0.328372        0.400597 
         1.8409        0.333044        0.323098         0.39379 
        1.85315        0.328193        0.317958        0.388046 
        1.86537        0.320892        0.312941         0.38241 
        1.87765        0.316796        0.308013        0.377091 
        1.88995        0.313406        0.303179        0.371867 
        1.90221        0.308777        0.298466        0.366287 
        1.91445         0.30333        0.293862        0.361332 
        1.92674        0.298479        0.289338        0.356127 
        1.93902        0.293212         0.28491        0.350841 
        1.95124        0.289003        0.280597         0.34601 
         1.9635        0.285753        0.276364        0.341104 
        1.97583        0.281714         0.27219        0.336334 
        1.98812        0.277429        0.268119        0.332267 
        2.00039        0.274746         0.26414        0.327308 
        2.01264        0.270271        0.260244        0.323154 
        2.02492        0.266697        0.256422         0.31868 
        2.03717        0.261396        0.252683        0.314469 
        2.04942        0.259115        0.249024        0.310158 
        2.06171        0.255006        0.245424        0.306019 
        2.07397        0.250927        0.241904        0.302151 
        2.08629        0.248472        0.238438        0.298062 
        2.09857        0.244527        0.235048        0.294271 
        2.11081        0.240888        0.231738        0.289997 
        2.12309         0.23801        0.228484        0.286957 
        2.13538        0.234577        0.225288        0.283034 
        2.14763        0.232305        0.222164        0.279599 
        2.15986        0.228369        0.219106        0.276131 
        2.17214        0.225693        0.216093        0.272581 
        2.18443        0.223443        0.213134        0.269123 
        2.19671        0.219989        0.210235        0.266035 
        2.20898        0.217941        0.207392        0.262451 
        2.22126        0.214293        0.204599        0.259483 
        2.23354        0.212457        0.201859        0.256404 
         2.2458        0.209727        0.199173        0.252661 
        2.25807        0.207328        0.196534        0.250104 
        2.27035        0.204176        0.193941        0.247079 
        2.28263        0.201765        0.191395        0.244224 
         2.2949        0.199799        0.188897        0.240988 
        2.30718        0.196762        0.186443        0.238259 
        2.31946        0.195665         0.18403        0.235551 
        2.33169        0.192213        0.181671        0.232753 
        2.34393        0.190021         0.17935        0.230276 
        2.35622        0.188354        0.177062         0.22741 
        2.36847        0.186727         0.17482        0.224852 
        2.38076        0.184323         0.17261        0.222343 
        2.39305        0.181855         0.17044        0.219723 
        2.40534        0.179749        0.168306        0.217216 
        2.41762        0.178416        0.166209        0.214784 
        2.42989        0.175859        0.164151        0.212288 
        2.44216        0.173998        0.162128        0.210026 
         2.4544        0.172226        0.160144        0.207767 
        2.46667        0.170221        0.158189        0.205306 
        2.47897         0.16822        0.156261        0.203018 
        2.49124        0.166617        0.154371        0.200857 
        2.50349        0.165001        0.152515        0.198564 
        2.51578        0.163011        0.150684        0.196382 
        2.52805        0.161888        0.148886        0.194344 
        2.54029        0.160575        0.147122         0.19233 
        2.55257        0.158675        0.145382        0.190315 
        2.56487        0.157085        0.143666         0.18827 
        2.57716        0.155768         0.14198        0.186206 
        2.58942        0.153978        0.140325        0.184164 
        2.60167        0.152704        0.138698        0.182309 
        2.61395        0.151419        0.137095        0.180396 
        2.62624        0.149895        0.135514        0.178552 
        2.63849        0.148628        0.133964        0.176711 
        2.65073        0.146927        0.132439         0.17488 
        2.66302        0.145984        0.130933        0.173005 
         2.6753        0.144547        0.129451        0.171276 
        2.68756          0.1437        0.127995        0.169572 
        2.69983        0.142108         0.12656        0.167635 
        2.71213         0.14072        0.125145        0.166107 
        2.72441         0.13956        0.123753        0.164522 
        2.73665        0.138571        0.122387        0.162851 
         2.7489        0.138264        0.121041         0.16124 
        2.76118        0.137014        0.119712        0.159611 
        2.77349        0.135401        0.118399        0.158122 
        2.78576        0.134773        0.117111        0.156676 
        2.79802        0.133505        0.115843         0.15483 
        2.81031        0.132748        0.114591        0.153456 
        2.82259         0.13166        0.113358        0.151978 
        2.83483        0.130555        0.112148        0.150407 
         2.8471        0.129875        0.110953        0.149153 
         2.8594        0.129422        0.109772        0.147755 
         2.8717        0.128269        0.108608        0.146227 
        2.88396         0.12785        0.107466        0.144917 
        2.89619        0.127023        0.106342        0.143597 
        2.90847        0.126306         0.10523        0.142197 
        2.92072        0.125136        0.104136        0.140795 
        2.93299         0.12475        0.103057        0.139503 
        2.94526        0.124028        0.101992        0.138265 
        2.95753        0.123042        0.100942        0.136958 
        2.96982        0.122751       0.0999057        0.135615 
        2.98209         0.12188       0.0988858        0.134387 
        2.99436        0.121856       0.0978793        0.133177 
        3.00666        0.121293       0.0968851        0.131892 
        3.01894        0.120862       0.0959066        0.130767 
        3.03119        0.120266       0.0949431        0.129624 
        3.04345        0.119833       0.0939927        0.128453 
        3.05573        0.119853       0.0930534          0.1273 
          3.068        0.119352        0.092128         0.12613 
        3.08026        0.118753        0.091216        0.125076 
        3.09254        0.118907       0.0903148        0.123966 
        3.10483        0.118556       0.0894255        0.122885 
         3.1171        0.118218       0.0885495        0.121761 
        3.12933        0.118017       0.0876876        0.120564 
        3.14159        0.117679       0.0868353         0.11964 
