# k  (h/Mpc)    P(k)  (Mpc/h)^3    P_linear(k)  (Mpc/h)^3     P_NL(k)  ShotnoiseSubtracted = false
      0.0156606         23992.9         24138.5         23938.8 
      0.0273761         20504.6         20833.6         20585.8 
      0.0384619         15475.6         15680.7         15457.8 
      0.0498308         11928.7         12326.4         12101.2 
      0.0625568         10075.5         10471.3         10272.5 
      0.0751274         8985.35         8893.98         8615.94 
      0.0867833         6948.92          7159.3         7072.24 
      0.0984825         5892.82          5664.9         5738.66 
       0.111151         5051.42         4729.56         4824.47 
       0.123864         4522.08         4261.93         4338.36 
       0.135742         4130.53          3832.3         3908.57 
        0.14762         3602.59         3276.65         3477.19 
       0.160083         3075.34         2731.16         2980.54 
       0.172465         2742.37          2383.7         2701.71 
       0.184281         2477.58         2197.43         2514.65 
       0.196406         2351.01         2029.28         2319.96 
       0.209011         2206.44          1805.5         2105.73 
       0.221538         1983.56         1577.81         1972.32 
       0.233611         1910.81         1411.71         1853.31 
       0.245665         1729.14         1302.94          1714.2 
       0.258103         1722.52         1212.91         1620.34 
       0.270422         1535.92         1114.51         1525.14 
       0.282519         1456.92         1011.47         1449.23 
       0.294636         1424.37         921.557         1375.39 
       0.306978         1308.28          852.59         1320.54 
       0.319417         1287.71         797.118         1245.94 
        0.33169         1208.47          744.02         1182.38 
       0.343948         1163.85         689.374         1147.39 
       0.356249         1106.94         638.127         1106.68 
       0.368458         1058.41         595.203         1060.99 
        0.38068         1046.56          559.31         1022.64 
       0.392856         996.209         526.542         989.065 
       0.405069         942.122           494.5         955.982 
       0.417459         906.051         463.478         926.157 
       0.429752         907.156          435.63         894.335 
       0.441978         875.179         411.187         872.793 
       0.454294         838.365         388.992         838.604 
        0.46658          814.98         368.166         822.252 
       0.478753          801.27         348.519          798.65 
       0.490964         771.339         330.064         775.016 
       0.503334         739.551         313.032          759.11 
       0.515665         735.924           297.5         741.681 
       0.527909         704.506         283.162         727.738 
       0.540159         688.907         269.596         710.653 
        0.55248         674.317         256.724          692.87 
       0.564743         667.738         244.806          681.23 
        0.57686         648.057         233.852          663.98 
       0.589077          639.79         223.512         650.076 
       0.601441         621.701          213.68         638.129 
        0.61382         603.501         204.409         626.775 
       0.626067         597.852         195.758         616.004 
       0.638306         576.387         187.612         603.436 
       0.650632         570.882         179.894         590.407 
       0.662899         566.168         172.661         582.907 
       0.675076         549.992         165.883         575.777 
       0.687267         533.467          159.46         562.658 
       0.699615         533.591         153.297         553.767 
       0.711937         520.104         147.471          543.21 
       0.724148         504.235         141.997         536.579 
       0.736433         492.861         136.774         527.457 
       0.748747         486.558         131.806         518.473 
       0.761037         478.173         127.096         512.578 
       0.773197         469.431         122.666         503.718 
       0.785376         464.824         118.441         496.712 
       0.797761         450.939         114.351         490.132 
       0.810096         443.723         110.469         483.664 
       0.822371         433.833         106.787         476.048 
       0.834626         428.667         103.279         470.893 
       0.846916         423.566         99.9207         463.584 
       0.859215         416.631         96.7105         456.732 
       0.871383         407.973          93.674         450.895 
        0.88363         401.688         90.7505         446.396 
       0.895928          397.15         87.9412         439.642 
       0.908253          387.63         85.2462         432.316 
       0.920535         377.892         82.6738         428.175 
       0.932774         373.237          80.217         421.508 
        0.94508         367.568         77.8481          417.54 
       0.957324         362.027          75.587         411.996 
        0.96953         357.442         73.4229         407.004 
       0.981769         349.294         71.3386         402.467 
       0.994071         348.024         69.3256         397.697 
         1.0064         341.693         67.3872         391.956 
        1.01868         337.242          65.529         387.123 
        1.03092         327.656         63.7494         383.778 
         1.0432         324.329         62.0298         379.156 
        1.05553         321.161         60.3672         373.906 
        1.06777         315.973         58.7779         369.548 
           1.08         308.982         57.2476         365.514 
        1.09227         308.671         55.7672         361.191 
         1.1046         301.781         54.3337         357.944 
         1.1169         296.152         52.9534         353.275 
        1.12915         291.305         51.6281          349.47 
        1.14142         285.527         50.3455         345.521 
        1.15365         281.975         49.1105         341.922 
        1.16585         277.735         47.9203         338.164 
        1.17807          274.83         46.7683         334.255 
        1.19037         268.924         45.6467         331.407 
        1.20276         266.445         44.5544         327.149 
        1.21504         261.135         43.5067         323.456 
        1.22728         257.087         42.4971         320.335 
        1.23954         255.303         41.5172         316.701 
        1.25184         249.474         40.5664         313.437 
        1.26414         244.865         39.6451         310.484 
        1.27632         241.819         38.7608         307.554 
         1.2886         239.035         37.8973         304.162 
        1.30093          234.27         37.0572         300.197 
        1.31316         229.477         36.2487         297.607 
        1.32541         228.164         35.4642         294.178 
        1.33772         223.729         34.6987         291.652 
        1.35005         220.901         33.9553         288.341 
        1.36225         216.853         33.2413         285.661 
        1.37447         213.196         32.5465         282.327 
        1.38676         211.072         31.8685         280.298 
        1.39907         207.891         31.2087         276.833 
        1.41133         203.956         30.5705         273.906 
        1.42358         201.206         29.9508         271.356 
        1.43591         198.286          29.344         268.991 
        1.44818         194.471         28.7574         266.048 
        1.46037         192.821         28.1904         263.226 
        1.47263         189.267         27.6356         260.549 
        1.48494         187.797         27.0935         257.529 
        1.49724         183.965         26.5665         255.977 
        1.50952         181.095         26.0547          252.78 
        1.52178          178.29          25.557         250.583 
        1.53409         175.544         25.0704         248.104 
        1.54637         172.559         24.5975         246.069 
        1.55858         170.624         24.1395          243.53 
        1.57081         167.633         23.6926         241.004 
        1.58313         165.654         23.2541         238.587 
        1.59544         162.447         22.8271         236.478 
        1.60767         161.041         22.4135         234.402 
        1.61994         158.122         22.0088         231.943 
        1.63225         155.518         21.6132         229.607 
        1.64452         152.976         21.2284         227.583 
        1.65676         151.121         20.8543         225.681 
          1.669         149.261         20.4888         223.312 
        1.68133         146.202         20.1299          221.27 
        1.69363         143.785         19.7806         219.501 
        1.70585         141.579         19.4418         217.363 
        1.71809         139.613         19.1103         215.086 
        1.73038         137.456         18.7855         213.227 
        1.74268         136.242          18.468          211.16 
        1.75493         133.627         18.1594         209.478 
        1.76714         132.508         17.8586         207.603 
        1.77942         129.924         17.5631         205.777 
        1.79173          128.24         17.2735         203.713 
        1.80402         126.169          16.991         201.914 
         1.8163         124.104         16.7151         200.327 
         1.8286         122.178         16.4448          198.37 
         1.8409         120.526         16.1807         196.532 
        1.85315          118.36         15.9233         194.898 
        1.86537         116.978          15.672         193.226 
        1.87765         115.489         15.4252         191.565 
        1.88995         113.587         15.1831         189.745 
        1.90221         112.085         14.9471         188.264 
        1.91445         110.295         14.7165         186.512 
        1.92674         108.383           14.49         184.806 
        1.93902         107.165         14.2682         183.143 
        1.95124         105.547         14.0522         181.622 
         1.9635         103.909         13.8402         180.047 
        1.97583         102.352         13.6312         178.409 
        1.98812         100.789         13.4273         177.202 
        2.00039         99.6897          13.228         175.471 
        2.01264         98.3945          13.033         174.017 
        2.02492         96.6524         12.8416         172.423 
        2.03717         95.3657         12.6543         171.083 
        2.04942           94.08          12.471         169.575 
        2.06171         92.5516         12.2908         168.037 
        2.07397         91.2031         12.1145         166.799 
        2.08629         89.8427         11.9409         165.358 
        2.09857         88.7612         11.7711         164.036 
        2.11081         87.3795         11.6054         162.531 
        2.12309         86.1998         11.4424         161.253 
        2.13538         84.8121         11.2824         159.887 
        2.14763          83.509         11.1259         158.559 
        2.15986           82.68         10.9728         157.141 
        2.17214         81.4387         10.8219         156.003 
        2.18443         80.5524         10.6737          154.81 
        2.19671         79.5002         10.5285         153.453 
        2.20898         78.2302         10.3861         152.078 
        2.22126         77.2061         10.2463         150.963 
        2.23354          76.142          10.109         149.806 
         2.2458         74.6265         9.97453         148.489 
        2.25807         74.0908         9.84237         147.322 
        2.27035         73.0193         9.71249         146.157 
        2.28263         72.0588         9.58502         145.039 
         2.2949         70.8592          9.4599         143.893 
        2.30718         69.7466         9.33698         142.706 
        2.31946         68.9593         9.21618         141.487 
        2.33169          67.926         9.09804         140.432 
        2.34393         67.1173         8.98179         139.466 
        2.35622          66.187          8.8672         138.244 
        2.36847          65.288         8.75493         137.266 
        2.38076          64.181         8.64427         136.124 
        2.39305         63.6252         8.53555         135.141 
        2.40534         62.5716          8.4287         134.022 
        2.41762         62.0128         8.32369         132.981 
        2.42989         60.9183         8.22062         131.987 
        2.44216         60.3932         8.11932         130.908 
         2.4544         59.6556         8.01996         129.977 
        2.46667         58.5774         7.92203          128.99 
        2.47897         58.1838          7.8255           127.9 
        2.49124         57.3572         7.73084         126.941 
        2.50349         56.3339          7.6379         126.018 
        2.51578         55.9183         7.54619         125.131 
        2.52805         54.9691         7.45616         124.126 
        2.54029         54.4679         7.36782         123.199 
        2.55257         53.7835         7.28065         122.322 
        2.56487         53.2863         7.19472         121.417 
        2.57716         52.6588          7.1103           120.5 
        2.58942          51.922         7.02742         119.625 
        2.60167         51.2413         6.94595         118.773 
        2.61395         50.8102         6.86564         117.862 
        2.62624         50.1078          6.7865         116.942 
        2.63849         49.4889         6.70885         116.147 
        2.65073         48.8035          6.6325         115.259 
        2.66302         48.3706         6.55706         114.464 
         2.6753         47.6876         6.48285         113.642 
        2.68756         47.3265         6.40993         112.791 
        2.69983         46.8047         6.33809         111.978 
        2.71213         46.2941          6.2672         111.179 
        2.72441         45.8052         6.19752         110.362 
        2.73665          45.258         6.12906         109.601 
         2.7489         44.8249         6.06168         108.835 
        2.76118         44.4031         5.99511          108.03 
        2.77349         43.9519         5.92937         107.284 
        2.78576          43.489         5.86488         106.512 
        2.79802         43.1166         5.80139         105.814 
        2.81031         42.6484         5.73868          105.06 
        2.82259         42.2042         5.67693         104.271 
        2.83483         41.7552         5.61632         103.588 
         2.8471         41.2923         5.55648         102.846 
         2.8594          40.934         5.49733         102.131 
         2.8717         40.6217         5.43906         101.464 
        2.88396         40.1726         5.38185         100.763 
        2.89619         39.9533         5.32556         100.038 
        2.90847          39.553         5.26987         99.3054 
        2.92072         39.1932         5.21507         98.6985 
        2.93299         38.9487         5.16103         98.0352 
        2.94526         38.6381          5.1077         97.3335 
        2.95753         38.3954         5.05513         96.6777 
        2.96982         37.9503         5.00322         96.0495 
        2.98209         37.7166         4.95215         95.3866 
        2.99436         37.5793         4.90174         94.7211 
        3.00666          37.345         4.85195         94.0863 
        3.01894         37.0841         4.80295         93.4629 
        3.03119         36.8436          4.7547          92.869 
        3.04345         36.6049          4.7071         92.2661 
        3.05573         36.5817         4.66006         91.6435 
          3.068         36.2639         4.61372         91.0439 
        3.08026         36.0581         4.56805         90.4412 
        3.09254         36.0851         4.52291         89.8528 
        3.10483         35.8707         4.47838         89.2665 
         3.1171         35.7656         4.43451         88.6718 
        3.12933         35.6147         4.39134         88.0858 
        3.14159         35.5268         4.34866           87.51 
