# k  (h/Mpc)    Pcb(k)  (Mpc/h)^3    Pcb_linear(k) (Mpc/h)^3    Pcb_NL(k) (Mpc/h)^3   ShotnoiseSubtracted = false
      0.0156606         1625.43         1626.25         1618.52 
      0.0273761         1414.41         1407.48         1404.16 
      0.0384619         1074.65         1060.84         1060.21 
      0.0498308         843.856         834.625         834.644 
      0.0625568          712.06         709.436         708.729 
      0.0751274          613.37         602.796         601.239 
      0.0867833          488.42         485.344         485.189 
      0.0984825          393.87         384.102         385.193 
       0.111151         329.442         320.728         321.757 
       0.123864         295.857         289.047         289.714 
       0.135742         265.577         259.929         260.544 
        0.14762         225.607         222.255         223.848 
       0.160083         187.507         185.264         187.133 
       0.172465         164.702         161.701         163.917 
       0.184281         152.597          149.07         151.398 
       0.196406         139.338         137.666         139.415 
       0.209011           125.1         122.488         124.509 
       0.221538         110.633         107.044         109.897 
       0.233611         99.3451         95.7766         98.9396 
       0.245665         93.0496         88.3984         91.1985 
       0.258103         83.9717         82.2915         85.0724 
       0.270422         78.7078         75.6165         78.2962 
       0.282519         71.3842         68.6263         71.5194 
       0.294636         67.2048         62.5263         65.5763 
       0.306978         59.8196         57.8474         60.9898 
       0.319417         56.8929          54.084         57.1294 
        0.33169         52.8722         50.4817         53.4208 
       0.343948         49.9049         46.7742         49.7277 
       0.356249         45.6782         43.2973         46.6025 
       0.368458         43.3472         40.3851         43.3733 
        0.38068         40.4858         37.9497         40.9191 
       0.392856          37.966         35.7265         38.7243 
       0.405069         35.8664         33.5527         36.4222 
       0.417459         33.2884         31.4478         34.3979 
       0.429752         31.7756         29.5583         32.4884 
       0.441978         30.1989            27.9         30.9666 
       0.454294         28.1532          26.394         29.2968 
        0.46658         27.6049          24.981         27.8455 
       0.478753         25.7342          23.648         26.5118 
       0.490964         24.7664         22.3959         25.3587 
       0.503334         23.6585         21.2402         24.0712 
       0.515665         22.3308         20.1863         23.1442 
       0.527909         21.3773         19.2135         21.9469 
       0.540159         20.3566          18.293         21.0079 
        0.55248         19.0501         17.4197         20.0587 
       0.564743         18.7419          16.611         19.3508 
        0.57686         18.0143         15.8677         18.5427 
       0.589077         16.9256         15.1661         17.8881 
       0.601441         16.2585          14.499         17.1782 
        0.61382         15.6375           13.87         16.4606 
       0.626067         14.9885          13.283          15.873 
       0.638306         14.4478         12.7302         15.2604 
       0.650632         14.0557         12.2065          14.752 
       0.662899         13.3747         11.7158         14.1947 
       0.675076         12.7319         11.2559         13.7041 
       0.687267         12.4264         10.8201         13.2012 
       0.699615         12.0374         10.4019          12.771 
       0.711937         11.4085         10.0065         12.3676 
       0.724148         11.2837         9.63512         11.9796 
       0.736433         10.6509         9.28071         11.5618 
       0.748747         10.3736         8.94361         11.2367 
       0.761037          10.111         8.62405          10.888 
       0.773197         9.66896         8.32342         10.5854 
       0.785376          9.3382         8.03679         10.2602 
       0.797761         9.06674         7.75921         9.93779 
       0.810096         8.81994         7.49584         9.69794 
       0.822371         8.59237         7.24599         9.38298 
       0.834626         8.29985         7.00798         9.13176 
       0.846916         8.00909         6.78009         8.88995 
       0.859215         7.70645         6.56227         8.66103 
       0.871383          7.5098         6.35623         8.44082 
        0.88363         7.31839         6.15785          8.2111 
       0.895928         7.15809         5.96723         7.98622 
       0.908253          6.9417         5.78437         7.78955 
       0.920535         6.70535         5.60982         7.58216 
       0.932774         6.56688         5.44311         7.36598 
        0.94508         6.35326         5.28238         7.21432 
       0.957324         6.20146         5.12894         7.06016 
        0.96953         5.98474         4.98211         6.88515 
       0.981769         5.85984         4.84067         6.70467 
       0.994071         5.73888         4.70409         6.56468 
         1.0064         5.53857         4.57256         6.41492 
        1.01868         5.39706         4.44647         6.26591 
        1.03092         5.29708         4.32571         6.11625 
         1.0432         5.09991         4.20903         5.98614 
        1.05553         5.00453         4.09622         5.86857 
        1.06777         4.85047         3.98838         5.74606 
           1.08         4.76861         3.88454         5.61647 
        1.09227         4.63596         3.78408         5.49392 
         1.1046         4.52817         3.68682         5.37924 
         1.1169         4.38272         3.59316         5.27179 
        1.12915         4.34643         3.50323         5.17909 
        1.14142         4.19631          3.4162         5.05911 
        1.15365         4.11132          3.3324         4.96668 
        1.16585         4.04385         3.25164         4.87676 
        1.17807         3.95185         3.17347         4.77105 
        1.19037         3.82492         3.09737         4.67963 
        1.20276         3.74627         3.02325         4.58402 
        1.21504         3.66619         2.95215         4.51312 
        1.22728         3.58154         2.88364         4.41656 
        1.23954         3.51926         2.81716         4.35516 
        1.25184          3.4358         2.75264         4.26292 
        1.26414         3.38158         2.69013         4.17954 
        1.27632         3.27401         2.63012         4.12067 
         1.2886         3.23543         2.57153         4.04191 
        1.30093         3.14845         2.51452         3.98114 
        1.31316          3.0621         2.45966         3.90613 
        1.32541         3.02325         2.40643         3.84804 
        1.33772          2.9697         2.35449         3.77779 
        1.35005         2.90972         2.30404         3.71798 
        1.36225         2.85007          2.2556         3.65077 
        1.37447         2.78955         2.20845         3.60135 
        1.38676         2.72941         2.16245         3.53532 
        1.39907         2.66781         2.11768         3.48735 
        1.41133         2.62252         2.07437         3.43111 
        1.42358         2.58495         2.03232            3.37 
        1.43591         2.53924         1.99115         3.33312 
        1.44818         2.47491         1.95134         3.27851 
        1.46037         2.42188         1.91287         3.22413 
        1.47263         2.37826         1.87522         3.17965 
        1.48494         2.34354         1.83844         3.13215 
        1.49724           2.293         1.80268         3.08362 
        1.50952         2.27836         1.76795          3.0391 
        1.52178         2.21673         1.73418         3.00049 
        1.53409         2.17238         1.70116         2.94907 
        1.54637         2.13374         1.66907         2.90812 
        1.55858             2.1           1.638         2.86266 
        1.57081         2.06373         1.60767          2.8294 
        1.58313         2.02124         1.57792         2.79107 
        1.59544         1.99102         1.54894         2.75412 
        1.60767         1.96215         1.52088         2.71521 
        1.61994         1.91833         1.49341         2.68077 
        1.63225         1.89342         1.46657         2.64557 
        1.64452         1.86067         1.44046         2.60779 
        1.65676         1.82074         1.41507         2.57533 
          1.669         1.79791         1.39028         2.54007 
        1.68133         1.75544         1.36592         2.51206 
        1.69363         1.74725         1.34222         2.47844 
        1.70585         1.71616         1.31923         2.44669 
        1.71809         1.69064         1.29674         2.41577 
        1.73038         1.65619          1.2747          2.3851 
        1.74268         1.62632         1.25316         2.35613 
        1.75493         1.60892         1.23221         2.32961 
        1.76714         1.58321          1.2118         2.29598 
        1.77942         1.55486         1.19175         2.27123 
        1.79173         1.53257          1.1721         2.24241 
        1.80402          1.5092         1.15293         2.21649 
         1.8163         1.48889         1.13421         2.19022 
         1.8286         1.45838         1.11587         2.16962 
         1.8409         1.44634         1.09795         2.14352 
        1.85315         1.42457         1.08048         2.11396 
        1.86537         1.39929         1.06343         2.09403 
        1.87765         1.38243         1.04668         2.07066 
        1.88995         1.35974         1.03026         2.04656 
        1.90221         1.34088         1.01424         2.02296 
        1.91445         1.31977        0.998595         2.00383 
        1.92674         1.30322        0.983224         1.97841 
        1.93902         1.27949        0.968175          1.9552 
        1.95124         1.26193        0.953521         1.93665 
         1.9635         1.24565        0.939134         1.91419 
        1.97583         1.22411        0.924953          1.8931 
        1.98812         1.20967        0.911118         1.87554 
        2.00039          1.1909        0.897594         1.85404 
        2.01264         1.17204        0.884358         1.83749 
        2.02492         1.16198         0.87137         1.81939 
        2.03717         1.15159        0.858664         1.79937 
        2.04942         1.12779        0.846228         1.77882 
        2.06171         1.11298        0.833996         1.76063 
        2.07397         1.09841        0.822033          1.7449 
        2.08629         1.08678        0.810255         1.72864 
        2.09857         1.06973        0.798737         1.71116 
        2.11081         1.05586        0.787489         1.69307 
        2.12309         1.04437        0.776431         1.67878 
        2.13538         1.03107         0.76557         1.66029 
        2.14763         1.02177        0.754953         1.64473 
        2.15986         1.00776        0.744562         1.63105 
        2.17214        0.987211        0.734324         1.61149 
        2.18443        0.978791        0.724269         1.59932 
        2.19671        0.968915        0.714415          1.5844 
        2.20898        0.954721        0.704756         1.56943 
        2.22126        0.942273        0.695265         1.55502 
        2.23354        0.930055        0.685953         1.54038 
         2.2458        0.921641        0.676827         1.52539 
        2.25807        0.907539        0.667859         1.51111 
        2.27035        0.900064        0.659046         1.49864 
        2.28263        0.883917        0.650396         1.48606 
         2.2949        0.876069        0.641906         1.47223 
        2.30718        0.867679        0.633565         1.45987 
        2.31946        0.854456        0.625368         1.44687 
        2.33169        0.844722        0.617352         1.43449 
        2.34393        0.840936        0.609464         1.42212 
        2.35622        0.825548        0.601688         1.40978 
        2.36847        0.819395         0.59407         1.39761 
        2.38076        0.805229        0.586561         1.38548 
        2.39305        0.801492        0.579184          1.3735 
        2.40534        0.790032        0.571933         1.36242 
        2.41762        0.782045        0.564808          1.3501 
        2.42989        0.772108        0.557815         1.34069 
        2.44216        0.766635         0.55094         1.32916 
         2.4544        0.759247        0.544198         1.31842 
        2.46667         0.74952        0.537553         1.30752 
        2.47897        0.741716        0.531003          1.2965 
        2.49124        0.731128         0.52458         1.28604 
        2.50349        0.725686        0.518273         1.27533 
        2.51578        0.718713        0.512051         1.26451 
        2.52805        0.709432        0.505942         1.25519 
        2.54029        0.703811        0.499947         1.24505 
        2.55257        0.695411        0.494032         1.23573 
        2.56487        0.687862        0.488202         1.22666 
        2.57716        0.683427        0.482473         1.21612 
        2.58942        0.678634        0.476849         1.20767 
        2.60167        0.671995        0.471321         1.19799 
        2.61395        0.664029        0.465872         1.18881 
        2.62624        0.658751        0.460501         1.18045 
        2.63849        0.651078        0.455232         1.17109 
        2.65073        0.645264        0.450051         1.16212 
        2.66302        0.640857        0.444933         1.15302 
         2.6753        0.636871        0.439897         1.14503 
        2.68756        0.629744        0.434949          1.1374 
        2.69983        0.624387        0.430074         1.12884 
        2.71213        0.616478        0.425264         1.12073 
        2.72441         0.61416        0.420536         1.11237 
        2.73665        0.610074        0.415891         1.10533 
         2.7489        0.604287        0.411318         1.09784 
        2.76118         0.59926        0.406801          1.0886 
        2.77349         0.59568        0.402341         1.08141 
        2.78576        0.592617        0.397965         1.07363 
        2.79802        0.586749        0.393656         1.06559 
        2.81031        0.583002        0.389401         1.05935 
        2.82259        0.579079        0.385211         1.05096 
        2.83483        0.575644        0.381098         1.04399 
         2.8471        0.571002        0.377038         1.03655 
         2.8594        0.568687        0.373024         1.02983 
         2.8717        0.563622         0.36907         1.02353 
        2.88396         0.55998        0.365188         1.01634 
        2.89619        0.557481        0.361369         1.00954 
        2.90847        0.554261         0.35759         1.00303 
        2.92072        0.553292        0.353872        0.996263 
        2.93299        0.547073        0.350204        0.989102 
        2.94526        0.546765        0.346585        0.982914 
        2.95753        0.544738        0.343019        0.976832 
        2.96982        0.542283        0.339497        0.970031 
        2.98209        0.540311        0.336031        0.963645 
        2.99436        0.537482         0.33261        0.957593 
        3.00666        0.536915        0.329232         0.95165 
        3.01894        0.535888        0.325907        0.945984 
        3.03119        0.532621        0.322633        0.939478 
        3.04345        0.530675        0.319403        0.933513 
        3.05573        0.530531        0.316211        0.928486 
          3.068        0.528918        0.313066        0.922683 
        3.08026        0.529201        0.309967        0.916501 
        3.09254        0.527526        0.306905        0.910402 
        3.10483        0.525899        0.303883          0.9051 
         3.1171        0.527103        0.300906        0.900023 
        3.12933        0.526597        0.297977        0.894414 
        3.14159        0.526757        0.295081        0.888929 
