# k  (h/Mpc)    P(k)  (Mpc/h)^3    P_linear(k)  (Mpc/h)^3     P_NL(k)  ShotnoiseSubtracted = false
      0.0156606         22297.9         22452.6         22272.8 
      0.0273761         19074.2         19379.1         19162.2 
      0.0384619         14406.7         14586.4         14393.2 
      0.0498308         11116.5         11466.4         11271.8 
      0.0625568         9389.69         9740.86         9568.22 
      0.0751274         8365.62         8273.64         8031.55 
      0.0867833         6476.52            6660         6584.78 
      0.0984825         5480.17         5269.85         5335.69 
       0.111151         4691.57         4399.76         4482.64 
       0.123864          4202.5         3964.75         4031.69 
       0.135742         3834.17         3565.09         3632.09 
        0.14762         3340.47         3048.19         3225.47 
       0.160083         2843.25         2540.74         2760.02 
       0.172465         2535.92         2217.51         2496.88 
       0.184281         2296.33         2044.23         2323.87 
       0.196406         2170.99          1887.8         2141.68 
       0.209011         2033.96         1679.63         1942.28 
       0.221538         1830.83         1467.81         1815.76 
       0.233611         1758.52         1313.29         1703.45 
       0.245665         1593.08          1212.1         1574.06 
       0.258103         1581.11         1128.35         1486.89 
       0.270422         1410.49         1036.82         1397.94 
       0.282519         1334.51         940.961         1325.36 
       0.294636         1308.94         857.313         1256.42 
       0.306978         1198.29         793.154         1204.96 
       0.319417          1176.7          741.55         1136.42 
        0.33169         1105.81         692.154         1077.11 
       0.343948          1062.8         641.317         1044.51 
       0.356249          1008.9         593.643         1006.47 
       0.368458          968.03         553.711         962.999 
        0.38068         954.394         520.321         927.078 
       0.392856         907.219         489.837         895.487 
       0.405069         860.094         460.028         866.299 
       0.417459         827.575         431.169         837.039 
       0.429752         825.453         405.262         808.027 
       0.441978         796.587         382.524         787.982 
       0.454294         762.425         361.876         756.368 
        0.46658          741.04         342.501         741.206 
       0.478753         727.717         324.224          719.22 
       0.490964         700.051         307.056         697.558 
       0.503334          670.78         291.211         682.524 
       0.515665          668.25         276.762         667.117 
       0.527909         640.517         263.423         653.633 
       0.540159         625.475         250.803         637.521 
        0.55248         613.024         238.829         621.204 
       0.564743         608.061         227.741          610.75 
        0.57686         588.529         217.551         594.904 
       0.589077         578.881         207.931         582.009 
       0.601441         565.029         198.784         570.932 
        0.61382         549.238          190.16         560.963 
       0.626067         543.849         182.112         550.789 
       0.638306         524.244         174.534         539.616 
       0.650632         519.534         167.354         527.164 
       0.662899         515.502         160.625          520.74 
       0.675076         499.343          154.32         513.874 
       0.687267         485.104         148.345         501.831 
       0.699615         484.041         142.611         493.939 
       0.711937          473.86         137.191         484.631 
       0.724148         458.754         132.099          478.32 
       0.736433         448.183          127.24         469.964 
       0.748747         442.672         122.618         461.772 
       0.761037         435.021         118.237         456.302 
       0.773197         428.423         114.115         448.721 
       0.785376         423.273         110.185         442.348 
       0.797761         410.736          106.38         435.928 
       0.810096          406.19         102.769         430.381 
       0.822371         395.781         99.3431         423.449 
       0.834626         391.954         96.0799         418.617 
       0.846916         386.207         92.9555         412.069 
       0.859215         381.593         89.9691         406.044 
       0.871383         373.247         87.1443         400.763 
        0.88363         368.993         84.4245         396.731 
       0.895928         363.951         81.8111         390.599 
       0.908253         355.033          79.304         384.185 
       0.920535         348.103         76.9109         380.139 
       0.932774         343.136         74.6253         374.352 
        0.94508         338.001         72.4216         370.643 
       0.957324         334.549          70.318          365.72 
        0.96953         330.388         68.3048         361.314 
       0.981769         322.605         66.3658         357.298 
       0.994071         321.466         64.4931         352.978 
         1.0064         315.562         62.6899         347.857 
        1.01868          312.01         60.9611         343.453 
        1.03092         302.865         59.3056         340.468 
         1.0432         300.148         57.7059         336.356 
        1.05553         297.087         56.1592         331.722 
        1.06777         293.132         54.6807         327.971 
           1.08         286.547         53.2571         324.366 
        1.09227         285.978         51.8798         320.476 
         1.1046         280.377         50.5463         317.461 
         1.1169         274.502         49.2622         313.263 
        1.12915         270.749         48.0292         310.077 
        1.14142         265.344         46.8361         306.436 
        1.15365         262.539         45.6871         303.226 
        1.16585         258.089         44.5799         299.844 
        1.17807         255.672         43.5082         296.592 
        1.19037         251.276         42.4648         294.088 
        1.20276         248.308         41.4487          290.25 
        1.21504         243.218          40.474         286.996 
        1.22728         239.756         39.5347         283.882 
        1.23954         238.434         38.6231         281.039 
        1.25184         233.005         37.7387         278.079 
        1.26414         228.453         36.8816         275.453 
        1.27632         226.631         36.0589         272.925 
         1.2886         224.637         35.2556         269.832 
        1.30093         219.635          34.474         266.412 
        1.31316         215.074         33.7219         263.869 
        1.32541         214.032         32.9921         261.066 
        1.33772         210.265         32.2799         258.703 
        1.35005         207.904         31.5884          255.78 
        1.36225         203.977         30.9241         253.391 
        1.37447         200.832         30.2778         250.322 
        1.38676         198.977         29.6471         248.561 
        1.39907          196.13         29.0332         245.525 
        1.41133         192.409         28.4395         242.961 
        1.42358         190.134          27.863         240.678 
        1.43591         187.716         27.2985         238.525 
        1.44818         184.152         26.7528         236.011 
        1.46037         182.704         26.2253         233.477 
        1.47263         179.152         25.7092         231.274 
        1.48494         177.736         25.2049         228.502 
        1.49724         174.645         24.7147          227.07 
        1.50952         171.557         24.2385         224.439 
        1.52178         169.763         23.7755         222.201 
        1.53409         166.767         23.3228         220.179 
        1.54637          164.26         22.8829          218.36 
        1.55858          162.51         22.4568         216.036 
        1.57081         159.745          22.041         213.946 
        1.58313         157.724         21.6332         211.772 
        1.59544         154.846         21.2359         209.886 
        1.60767         153.474         20.8511         208.023 
        1.61994          150.92         20.4746         205.937 
        1.63225         148.553         20.1066         203.848 
        1.64452         146.227         19.7487         202.042 
        1.65676          144.41         19.4006          200.31 
          1.669         142.779         19.0606         198.318 
        1.68133         140.037         18.7267         196.508 
        1.69363         137.641         18.4017         194.874 
        1.70585         135.552         18.0866          193.06 
        1.71809         133.856         17.7782         190.993 
        1.73038         132.221          17.476         189.402 
        1.74268         131.044         17.1807         187.548 
        1.75493         128.016         16.8935         186.034 
        1.76714         127.458         16.6137         184.408 
        1.77942         124.824         16.3388         182.687 
        1.79173         123.002         16.0694         180.971 
        1.80402         121.406         15.8066         179.361 
         1.8163         119.242         15.5499         177.932 
         1.8286         117.697         15.2985         176.185 
         1.8409         116.324         15.0528         174.552 
        1.85315         114.067         14.8133         173.121 
        1.86537         112.987         14.5796          171.66 
        1.87765           111.6           14.35         170.191 
        1.88995         109.568         14.1248         168.563 
        1.90221          108.28         13.9052         167.254 
        1.91445         106.662         13.6907         165.644 
        1.92674         105.001         13.4799         164.183 
        1.93902         103.759         13.2736         162.703 
        1.95124         102.361         13.0727         161.336 
         1.9635         100.675         12.8755         159.933 
        1.97583         99.1615          12.681         158.519 
        1.98812         97.7733         12.4914         157.396 
        2.00039          96.697          12.306         155.876 
        2.01264         95.5215         12.1245         154.594 
        2.02492         94.2143         11.9464         153.176 
        2.03717         92.8018         11.7722         151.977 
        2.04942         91.6503         11.6017         150.675 
        2.06171         90.0478          11.434         149.336 
        2.07397         89.0117           11.27         148.203 
        2.08629         87.6844         11.1085         146.908 
        2.09857         86.6544         10.9506         145.735 
        2.11081         85.2705         10.7964          144.39 
        2.12309         84.2202         10.6448          143.29 
        2.13538         82.8787         10.4959         142.037 
        2.14763         81.7532         10.3503         140.884 
        2.15986         80.8663         10.2079         139.626 
        2.17214         79.7341         10.0675         138.555 
        2.18443         78.7733         9.92968         137.565 
        2.19671         77.7807         9.79458         136.365 
        2.20898         76.7744         9.66215         135.139 
        2.22126         75.6593         9.53203         134.151 
        2.23354         74.7584         9.40436         133.081 
         2.2458         73.3119         9.27924         131.955 
        2.25807         72.6175         9.15629         130.902 
        2.27035         71.5686         9.03547         129.839 
        2.28263         70.7124         8.91688         128.852 
         2.2949          69.359         8.80048         127.834 
        2.30718         68.4423         8.68613         126.783 
        2.31946         67.8486         8.57375           125.7 
        2.33169         66.7773         8.46385         124.759 
        2.34393         66.2473          8.3557         123.883 
        2.35622          65.087          8.2491         122.824 
        2.36847         64.4589         8.14465         121.975 
        2.38076         63.3069         8.04171         120.901 
        2.39305         62.7242         7.94057         120.067 
        2.40534         61.7909         7.84116         119.066 
        2.41762         61.1346         7.74347         118.117 
        2.42989         60.1879         7.64759          117.26 
        2.44216         59.6377         7.55335          116.28 
         2.4544          58.711         7.46091         115.443 
        2.46667         57.9103         7.36981         114.562 
        2.47897         57.3608         7.28001         113.613 
        2.49124         56.7019         7.19195         112.768 
        2.50349         55.7651         7.10548         111.934 
        2.51578         55.3708         7.02017         111.172 
        2.52805         54.5247         6.93642         110.244 
        2.54029         53.9912         6.85424         109.405 
        2.55257         53.2856         6.77314         108.648 
        2.56487         52.9522          6.6932         107.838 
        2.57716         52.3527         6.61467         107.033 
        2.58942         51.4979         6.53757         106.246 
        2.60167          50.949         6.46177         105.476 
        2.61395         50.5955         6.38706         104.676 
        2.62624         49.7423         6.31343         103.846 
        2.63849         49.2262          6.2412         103.124 
        2.65073          48.575         6.17017         102.367 
        2.66302          48.172         6.09999         101.614 
         2.6753         47.5544         6.03095         100.902 
        2.68756         47.2143         5.96312         100.134 
        2.69983         46.6256         5.89629         99.4208 
        2.71213         46.1032         5.83033          98.713 
        2.72441         45.6976         5.76551         97.9869 
        2.73665         45.1933         5.70183         97.3169 
         2.7489          44.709         5.63914         96.6346 
        2.76118         44.2924         5.57721          95.913 
        2.77349         43.8251         5.51606         95.2511 
        2.78576         43.4146         5.45606         94.5522 
        2.79802         43.0418         5.39699         93.9478 
        2.81031         42.4719         5.33866         93.2618 
        2.82259         42.0722         5.28121         92.5692 
        2.83483         41.6251         5.22483         91.9672 
         2.8471         41.2471         5.16916          91.299 
         2.8594          40.821         5.11413         90.6522 
         2.8717         40.5434         5.05992         90.0681 
        2.88396          40.196          5.0067         89.4389 
        2.89619         39.8753         4.95434         88.7741 
        2.90847         39.4914         4.90253         88.1279 
        2.92072         39.1886         4.85155          87.586 
        2.93299         39.0385         4.80127         87.0047 
        2.94526         38.6428         4.75166         86.3883 
        2.95753         38.3941         4.70276         85.7861 
        2.96982         37.9994         4.65447         85.2181 
        2.98209         37.8555         4.60695         84.6456 
        2.99436         37.5529         4.56006         84.0403 
        3.00666          37.405         4.51374         83.4786 
        3.01894         37.1637         4.46816         82.9278 
        3.03119         36.9287         4.42326         82.3955 
        3.04345         36.7012         4.37899         81.8532 
        3.05573         36.6073         4.33523         81.2958 
          3.068         36.3759         4.29211         80.7604 
        3.08026         36.1716         4.24963         80.2207 
        3.09254         36.1015         4.20764         79.6983 
        3.10483         36.0965         4.16621         79.1768 
         3.1171         35.9022         4.12539         78.6466 
        3.12933         35.6559         4.08524         78.1243 
        3.14159         35.6663         4.04553         77.6038 
