# k  (h/Mpc)    Pcb(k)  (Mpc/h)^3    Pcb_linear(k) (Mpc/h)^3    Pcb_NL(k) (Mpc/h)^3   ShotnoiseSubtracted = false
      0.0156606         17843.7         17925.6         17795.4 
      0.0273761         15325.8         15499.1         15356.1 
      0.0384619         11604.5           11677         11554.5 
      0.0498308         8980.29         9184.73         9063.06 
      0.0625568         7584.43         7805.88         7696.08 
      0.0751274          6734.2         6631.93         6476.24 
      0.0867833         5229.61         5339.43         5292.89 
      0.0984825         4392.83         4225.47          4272.3 
       0.111151         3744.38         3528.19         3583.49 
       0.123864         3357.03          3179.6         3224.82 
       0.135742         3052.12         2859.25            2905 
        0.14762         2647.47          2444.8         2566.12 
       0.160083         2233.37         2037.88         2185.16 
       0.172465         1992.09         1778.68         1965.43 
       0.184281         1814.84         1639.73         1828.88 
       0.196406         1696.35         1514.29         1681.01 
       0.209011         1578.68         1347.33         1521.24 
       0.221538         1423.61         1177.44         1412.87 
       0.233611         1352.54          1053.5         1318.28 
       0.245665         1231.74          972.34         1215.32 
       0.258103          1203.9         905.165         1145.95 
       0.270422          1077.6         831.741         1073.71 
       0.282519         1009.98         754.852         1010.99 
       0.294636         997.483         687.753         954.896 
       0.306978          903.18         636.287         912.645 
       0.319417          879.32         594.892         859.703 
        0.33169         828.151         555.268         812.101 
       0.343948         791.479         514.488         785.307 
       0.356249          746.66         476.243           754.5 
       0.368458         721.805          444.21         717.604 
        0.38068         703.166         417.422         688.545 
       0.392856         665.078         392.968         662.777 
       0.405069         634.331         369.057         642.279 
       0.417459         609.378         345.905         615.439 
       0.429752         598.969         325.122         593.573 
       0.441978         578.578         306.881         577.435 
       0.454294         550.126         290.316         553.017 
        0.46658         536.699         274.774         540.584 
       0.478753          523.28         260.112         523.148 
       0.490964         503.427          246.34         506.502 
       0.503334           478.4         233.627          493.99 
       0.515665         477.357         222.036         483.258 
       0.527909         458.928         211.335         471.072 
       0.540159         447.282         201.211         458.189 
        0.55248         438.475         191.604         445.953 
       0.564743         433.926         182.709         438.024 
        0.57686         417.336         174.534         425.763 
       0.589077         405.349         166.816         416.242 
       0.601441         399.846         159.478         407.311 
        0.61382         390.845         152.559         399.943 
       0.626067         385.312         146.103         391.628 
       0.638306         369.784         140.023         384.078 
       0.650632         364.925         134.263         373.615 
       0.662899         361.685         128.865         369.189 
       0.675076         347.937         123.806          362.85 
       0.687267         339.119         119.013         354.255 
       0.699615         334.994         114.413         348.465 
       0.711937         329.891         110.065          342.19 
       0.724148         318.973         105.979         337.136 
       0.736433         311.791         102.081         330.589 
       0.748747         307.407         98.3731         324.467 
       0.761037         301.559         94.8582         319.805 
       0.773197         297.893         91.5515         315.218 
       0.785376         293.269         88.3987         310.025 
       0.797761         285.716         85.3456         305.179 
       0.810096          283.02         82.4487         301.156 
       0.822371         272.853         79.7005         296.174 
       0.834626         271.801         77.0825         292.077 
       0.846916         265.869          74.576         287.721 
       0.859215         265.715           72.18         283.606 
       0.871383         258.567         69.9137         279.472 
        0.88363         256.953         67.7318         276.591 
       0.895928         251.283         65.6351          272.19 
       0.908253         244.681         63.6237         267.812 
       0.920535         243.014         61.7038           264.3 
       0.932774         236.177         59.8701         260.636 
        0.94508         233.584         58.1022         257.919 
       0.957324         232.713         56.4145         254.211 
        0.96953         229.299         54.7994         250.783 
       0.981769         222.448         53.2438          248.32 
       0.994071         221.516         51.7414         245.138 
         1.0064         216.637         50.2947         241.487 
        1.01868         213.794         48.9078         238.572 
        1.03092         208.897         47.5796         236.221 
         1.0432         205.317         46.2962         233.328 
        1.05553         202.599         45.0553         230.327 
        1.06777         202.058         43.8691         227.967 
           1.08         196.997          42.727         225.166 
        1.09227         194.645         41.6221          222.65 
         1.1046         191.734         40.5522         220.359 
         1.1169         187.891          39.522         217.336 
        1.12915         185.249         38.5329         215.371 
        1.14142         182.274         37.5756         212.587 
        1.15365         179.698         36.6539          210.35 
        1.16585         177.046         35.7656          207.67 
        1.17807         174.764         34.9058         206.012 
        1.19037         173.059         34.0687         204.008 
        1.20276         170.418         33.2534         201.435 
        1.21504         166.993         32.4715         199.266 
        1.22728         163.876         31.7179         196.717 
        1.23954         163.355         30.9866         195.301 
        1.25184         160.213          30.277         193.073 
        1.26414         157.509         29.5894         191.078 
        1.27632         156.914         28.9294          189.79 
         1.2886         154.847         28.2849         187.281 
        1.30093         150.342         27.6578         185.209 
        1.31316          148.58         27.0544         183.115 
        1.32541         147.042         26.4689          181.69 
        1.33772         145.634         25.8976         179.753 
        1.35005         143.314         25.3427         177.734 
        1.36225         141.243         24.8098         176.126 
        1.37447         139.161         24.2913         174.042 
        1.38676         137.434         23.7853         172.501 
        1.39907         135.013         23.2928         170.721 
        1.41133         132.974         22.8165          169.22 
        1.42358         131.167         22.3539         167.632 
        1.43591         129.678         21.9011         165.799 
        1.44818         128.163         21.4633         164.347 
        1.46037         126.006         21.0401         162.633 
        1.47263         124.667          20.626         161.381 
        1.48494          122.68         20.2215         159.465 
        1.49724         121.014         19.8281         158.075 
        1.50952         118.789         19.4461         156.584 
        1.52178         118.285         19.0747         154.942 
        1.53409         115.795         18.7115         153.667 
        1.54637         114.392         18.3585         152.354 
        1.55858         112.322         18.0167         150.751 
        1.57081         110.847         17.6831         149.479 
        1.58313         109.494         17.3559         147.986 
        1.59544         108.062         17.0372         146.707 
        1.60767         106.821         16.7285         145.298 
        1.61994         104.951         16.4264         144.225 
        1.63225         103.649         16.1311         142.539 
        1.64452         101.734          15.844         141.277 
        1.65676         100.267         15.5647         140.128 
          1.669         99.6713          15.292         138.972 
        1.68133         97.5666         15.0241         137.673 
        1.69363         96.5942         14.7634         136.469 
        1.70585         94.8042         14.5105         135.241 
        1.71809         93.6453         14.2631         133.907 
        1.73038         92.9255         14.0207         132.801 
        1.74268         91.6527         13.7838         131.577 
        1.75493         90.0322         13.5534         130.416 
        1.76714         88.8178         13.3289         129.371 
        1.77942         87.7278         13.1083         128.086 
        1.79173         86.3947         12.8922         127.092 
        1.80402         85.7179         12.6814         126.009 
         1.8163         83.9957         12.4754         124.792 
         1.8286          82.828         12.2737         123.738 
         1.8409         82.1864         12.0766          122.65 
        1.85315         80.8349         11.8845         121.676 
        1.86537         79.8627         11.6969          120.65 
        1.87765         79.1617         11.5127         119.571 
        1.88995         77.8184         11.3321         118.602 
        1.90221         76.7669         11.1559         117.581 
        1.91445         75.6297         10.9838         116.522 
        1.92674         74.4305         10.8147          115.58 
        1.93902         73.5296         10.6492         114.541 
        1.95124         72.8307          10.488         113.651 
         1.9635         71.7063         10.3298         112.563 
        1.97583         70.6446         10.1738         111.758 
        1.98812         69.7236         10.0216           110.8 
        2.00039         68.7715         9.87285         109.856 
        2.01264         68.1486         9.72726         108.935 
        2.02492         67.1675          9.5844         108.024 
        2.03717         66.0487         9.44464         107.081 
        2.04942         65.7394         9.30786          106.32 
        2.06171         64.2802         9.17332         105.391 
        2.07397         63.5838         9.04174         104.569 
        2.08629         62.8533         8.91219         103.656 
        2.09857         61.8793         8.78549         102.837 
        2.11081         60.9302         8.66177         101.895 
        2.12309         60.3562         8.54015         101.207 
        2.13538          59.498         8.42068         100.336 
        2.14763         58.6798          8.3039         99.5324 
        2.15986         57.6051         8.18961         98.6993 
        2.17214         57.2027           8.077         97.8838 
        2.18443         56.4976         7.96641         97.2321 
        2.19671         55.4627         7.85802         96.3962 
        2.20898         55.2348         7.75178         95.6056 
        2.22126         54.3501         7.64738         94.8195 
        2.23354         53.6473         7.54495         94.1091 
         2.2458         52.9309         7.44458          93.394 
        2.25807         52.2128         7.34594         92.5996 
        2.27035          51.676           7.249         91.8598 
        2.28263         50.8703         7.15386         91.1327 
         2.2949         50.4183         7.06047         90.4261 
        2.30718           49.45         6.96873         89.7547 
        2.31946         49.0575         6.87857         89.0449 
        2.33169          48.267          6.7904         88.3575 
        2.34393         47.6451         6.70363         87.6919 
        2.35622         47.2044         6.61811         87.0032 
        2.36847         46.6499         6.53431         86.4068 
        2.38076         45.8918         6.45172         85.6467 
        2.39305         45.3649         6.37058         85.0512 
        2.40534          44.891         6.29083         84.3525 
        2.41762         44.3844         6.21245         83.6667 
        2.42989         43.8619         6.13553         83.1131 
        2.44216         43.3645         6.05992         82.4432 
         2.4544         42.8053         5.98576         81.8129 
        2.46667         42.3273         5.91267         81.1685 
        2.47897         41.8487         5.84063         80.5704 
        2.49124         41.2794         5.76998         79.9901 
        2.50349         40.8883         5.70061         79.3581 
        2.51578         40.2995         5.63217         78.8444 
        2.52805         39.8968         5.56497         78.2104 
        2.54029         39.4458         5.49904         77.5848 
        2.55257         38.8545         5.43398         77.0534 
        2.56487         38.5327         5.36984         76.5197 
        2.57716         38.0315         5.30683         75.9681 
        2.58942         37.5178         5.24498         75.3843 
        2.60167         37.2085         5.18417         74.8332 
        2.61395         36.6917         5.12423          74.292 
        2.62624         36.4849         5.06516          73.715 
        2.63849         36.0448         5.00721         73.2031 
        2.65073         35.6687         4.95022         72.6536 
        2.66302         35.1601         4.89392         72.1229 
         2.6753         34.7522         4.83853         71.6148 
        2.68756         34.3491         4.78411         71.0705 
        2.69983         34.1068         4.73049          70.606 
        2.71213         33.7433         4.67758         70.1159 
        2.72441         33.3735         4.62557          69.596 
        2.73665         32.9418         4.57448         69.0915 
         2.7489          32.868         4.52419          68.607 
        2.76118         32.3582          4.4745         68.1364 
        2.77349         32.1625         4.42544         67.6475 
        2.78576         31.9026         4.37731         67.1462 
        2.79802         31.4803         4.32992         66.7292 
        2.81031         31.1474         4.28312         66.2438 
        2.82259         31.0672         4.23703         65.7557 
        2.83483         30.6368         4.19179         65.3252 
         2.8471         30.3051         4.14713         64.8753 
         2.8594          30.156         4.10298         64.4104 
         2.8717         29.9389         4.05949         63.9737 
        2.88396         29.6222         4.01679         63.5182 
        2.89619         29.4318         3.97478         63.0554 
        2.90847         29.1961         3.93322          62.635 
        2.92072         28.9617         3.89232         62.2175 
        2.93299         28.7828         3.85198         61.7901 
        2.94526         28.5225         3.81217         61.3819 
        2.95753         28.3602         3.77294          60.966 
        2.96982         28.2585          3.7342         60.5483 
        2.98209         27.9637         3.69608         60.1454 
        2.99436         27.8166         3.65846         59.7169 
        3.00666         27.7029          3.6213         59.3288 
        3.01894         27.4804         3.58473         58.9158 
        3.03119         27.3504         3.54871         58.5318 
        3.04345         27.1869         3.51319         58.1656 
        3.05573          27.066         3.47808         57.7792 
          3.068         27.0262         3.44349         57.3902 
        3.08026         26.8387          3.4094         57.0038 
        3.09254         26.7273         3.37572         56.6274 
        3.10483         26.7373         3.34248         56.2632 
         3.1171         26.5769         3.30973         55.8963 
        3.12933         26.5549         3.27752         55.5198 
        3.14159         26.4164         3.24566         55.1478 
