# k  (h/Mpc)    Pcb(k)  (Mpc/h)^3    Pcb_linear(k) (Mpc/h)^3    Pcb_NL(k) (Mpc/h)^3   ShotnoiseSubtracted = false
      0.0156606         11502.6         11537.1         11464.6 
      0.0273761         9918.64         9977.48         9911.96 
      0.0384619         7525.67         7517.73          7467.2 
      0.0498308         5848.87         5913.56         5865.38 
      0.0625568         4937.46         5025.99         4980.82 
      0.0751274         4353.59         4270.22         4204.38 
      0.0867833         3400.98         3438.04         3420.53 
      0.0984825         2823.73          2720.8         2745.39 
       0.111151         2391.17         2271.83         2298.56 
       0.123864         2146.75         2047.39         2069.73 
       0.135742         1942.57         1841.12         1864.03 
        0.14762         1671.68         1574.25          1632.8 
       0.160083         1396.13         1312.23         1381.04 
       0.172465         1243.65         1145.33         1231.46 
       0.184281         1143.76         1055.86         1144.99 
       0.196406          1053.7         975.086         1049.85 
       0.209011         970.304         867.578          947.32 
       0.221538         874.633         758.183         868.685 
       0.233611         814.788         678.377         802.551 
       0.245665         752.838         626.116         738.417 
       0.258103         712.356         582.861         694.397 
       0.270422         648.544         535.582         646.999 
       0.282519         598.017          486.07         603.134 
       0.294636         592.247         442.864         565.741 
       0.306978         528.084         409.724         537.325 
       0.319417         508.838         383.068          505.36 
        0.33169         478.718         357.553          475.64 
       0.343948         456.252         331.294         456.197 
       0.356249         427.312         306.667         435.989 
       0.368458         414.397          286.04         411.536 
        0.38068          396.87         268.791         392.927 
       0.392856         372.252         253.044         376.709 
       0.405069         357.437         237.647         363.703 
       0.417459          341.71         222.739         345.036 
       0.429752         330.357         209.356         332.112 
       0.441978          319.52          197.61         321.849 
       0.454294         299.744         186.944         307.031 
        0.46658         297.737         176.936         298.438 
       0.478753         284.909         167.494         287.891 
       0.490964         275.409         158.626         277.738 
       0.503334         259.935          150.44         269.669 
       0.515665         257.073         142.976          263.42 
       0.527909         249.136         136.085          254.36 
       0.540159         242.053         129.566         247.053 
        0.55248         237.117          123.38         239.607 
       0.564743         231.085         117.652         234.375 
        0.57686         222.879         112.388         227.034 
       0.589077          213.99         107.418         222.097 
       0.601441         210.739         102.693         216.684 
        0.61382         208.461         98.2379         211.375 
       0.626067         202.916         94.0804          206.34 
       0.638306         193.738         90.1655         202.149 
       0.650632         188.585         86.4562         195.702 
       0.662899          188.43         82.9803         192.341 
       0.675076         181.591         79.7227         188.037 
       0.687267         176.937          76.636         183.912 
       0.699615         173.396         73.6741         180.241 
       0.711937         169.255         70.8741         176.564 
       0.724148         166.197         68.2434         173.973 
       0.736433         162.121         65.7332         169.954 
       0.748747         158.559         63.3456         166.485 
       0.761037         156.158         61.0822         163.089 
       0.773197         152.935         58.9529         161.225 
       0.785376         151.085         56.9227         157.578 
       0.797761         147.997         54.9567         155.565 
       0.810096         144.434         53.0914         152.557 
       0.822371         139.945         51.3217         149.989 
       0.834626         138.195         49.6359         147.427 
       0.846916         136.692         48.0218         145.205 
       0.859215         134.895          46.479         142.799 
       0.871383         132.223         45.0197         140.402 
        0.88363         129.715         43.6147         138.752 
       0.895928         127.191         42.2646         136.772 
       0.908253         123.812         40.9694          134.25 
       0.920535         123.241         39.7331         132.545 
       0.932774           119.7         38.5523         130.306 
        0.94508         118.753         37.4138         128.652 
       0.957324         117.308         36.3271         126.825 
        0.96953         116.759         35.2871         124.759 
       0.981769         113.025         34.2854         123.616 
       0.994071         112.263          33.318         121.846 
         1.0064         109.576         32.3864         120.053 
        1.01868         108.587         31.4933         118.681 
        1.03092         106.645          30.638          117.21 
         1.0432         104.834         29.8116         115.657 
        1.05553         102.355         29.0126         114.515 
        1.06777         102.209         28.2487         113.186 
           1.08         100.211         27.5133         111.676 
        1.09227         98.7915         26.8018         110.349 
         1.1046         97.0802         26.1129          108.99 
         1.1169           95.96         25.4495           107.5 
        1.12915         94.6255         24.8125         106.379 
        1.14142         93.0413         24.1961         105.052 
        1.15365         91.2524         23.6026         103.877 
        1.16585         90.1916         23.0306          102.63 
        1.17807         88.7848         22.4769         101.725 
        1.19037         88.6404         21.9379          100.66 
        1.20276         86.7026          21.413         99.4614 
        1.21504         86.1105         20.9094         98.2846 
        1.22728         84.2241         20.4242         97.2934 
        1.23954         83.5827         19.9533         96.1862 
        1.25184         81.9545         19.4963         95.2772 
        1.26414         80.8757         19.0536         94.2997 
        1.27632         80.0951         18.6285         93.6391 
         1.2886         78.8164         18.2135         92.2993 
        1.30093         77.7337         17.8098         91.2637 
        1.31316         76.9147         17.4212         90.5783 
        1.32541         76.2026         17.0442         89.6874 
        1.33772         74.9985         16.6763         88.7588 
        1.35005         74.3254          16.319         87.8791 
        1.36225         73.1716         15.9759         87.0112 
        1.37447          71.574          15.642         86.0844 
        1.38676         71.6393         15.3161         85.1543 
        1.39907         70.2698          14.999         84.5419 
        1.41133         69.0468         14.6923         83.8831 
        1.42358         68.2851         14.3944         82.8442 
        1.43591         67.8078         14.1028         82.1117 
        1.44818         66.8381         13.8209         81.2809 
        1.46037         66.0358         13.5484         80.6572 
        1.47263         65.0584         13.2817         80.0029 
        1.48494         64.3384         13.0212         79.1892 
        1.49724         63.3391          12.768         78.3859 
        1.50952         62.9033          12.522         77.6432 
        1.52178         62.0821         12.2828          77.048 
        1.53409         61.5371         12.0489          76.383 
        1.54637         60.0862         11.8216          75.636 
        1.55858         59.4863         11.6015         74.9122 
        1.57081         59.0487         11.3867         74.3733 
        1.58313          58.104          11.176         73.7582 
        1.59544         57.3503         10.9708         73.0246 
        1.60767         56.7856          10.772         72.4212 
        1.61994         55.9195         10.5775         71.8948 
        1.63225         55.2601         10.3874          71.108 
        1.64452         54.6719         10.2025          70.609 
        1.65676         53.8618         10.0226         69.9352 
          1.669         53.4983         9.84702         69.4108 
        1.68133           52.95          9.6745         68.7711 
        1.69363         52.0358         9.50662         68.2873 
        1.70585         51.7444         9.34381         67.7029 
        1.71809         50.6679         9.18449         67.1685 
        1.73038         50.3237         9.02838         66.5898 
        1.74268         49.6038          8.8758         66.0269 
        1.75493         49.0965         8.72746         65.4745 
        1.76714         48.4922         8.58289         64.9225 
        1.77942         48.2098         8.44087         64.4257 
        1.79173         47.3784          8.3017         63.8298 
        1.80402         46.9545         8.16596         63.4134 
         1.8163         46.3455         8.03333         62.8102 
         1.8286         45.7103         7.90342         62.4421 
         1.8409         45.1633          7.7765         61.8216 
        1.85315         44.6859         7.65279         61.4691 
        1.86537         44.1615         7.53202         60.9482 
        1.87765         43.7588         7.41342         60.3824 
        1.88995         43.1491         7.29708         59.8953 
        1.90221         42.8041         7.18365         59.4284 
        1.91445         42.1234         7.07281         59.0373 
        1.92674         41.7239         6.96394         58.5239 
        1.93902         41.2778         6.85735         58.0537 
        1.95124         40.8542         6.75357         57.6862 
         1.9635         40.2139         6.65166          57.181 
        1.97583         39.8678         6.55122         56.8152 
        1.98812         39.2111         6.45323          56.321 
        2.00039         38.9711         6.35745         55.8781 
        2.01264         38.3663          6.2637         55.5063 
        2.02492         38.0513          6.1717         55.0873 
        2.03717         37.5067         6.08171          54.623 
        2.04942         37.0753         5.99363         54.2301 
        2.06171         36.7363           5.907         53.7725 
        2.07397         36.2451         5.82227         53.4247 
        2.08629         35.8597         5.73885         52.9943 
        2.09857         35.5363         5.65726         52.6435 
        2.11081         35.0346          5.5776         52.2115 
        2.12309         34.7361         5.49928          51.815 
        2.13538         34.2289         5.42235         51.4828 
        2.14763         33.9299         5.34715         51.0844 
        2.15986         33.7208         5.27355         50.6815 
        2.17214           33.13         5.20104         50.3856 
        2.18443         32.8614         5.12983         49.9333 
        2.19671          32.376         5.06003          49.576 
        2.20898         31.9579         4.99162         49.2024 
        2.22126         31.8263          4.9244         48.8372 
        2.23354         31.4127         4.85844         48.5434 
         2.2458         31.0704          4.7938          48.165 
        2.25807         30.5711         4.73029         47.7958 
        2.27035          30.275         4.66786         47.4729 
        2.28263         29.9428          4.6066         47.1429 
         2.2949         29.6949         4.54647          46.809 
        2.30718         29.3791         4.48739         46.4561 
        2.31946         29.0789         4.42933          46.131 
        2.33169         28.7776         4.37256         45.7903 
        2.34393         28.3933         4.31669         45.4393 
        2.35622         28.0768         4.26161         45.1755 
        2.36847         27.7618         4.20766         44.8066 
        2.38076         27.5239         4.15447         44.5399 
        2.39305         27.1949         4.10222         44.2308 
        2.40534         26.9532         4.05087         43.8564 
        2.41762         26.5787          4.0004         43.5798 
        2.42989         26.4178         3.95087         43.2753 
        2.44216         26.0888         3.90218         42.9819 
         2.4544         25.8337         3.85443         42.6949 
        2.46667         25.4981         3.80736         42.3809 
        2.47897          25.283         3.76097         42.1034 
        2.49124         25.0705         3.71548         41.8016 
        2.50349         24.7523         3.67081          41.542 
        2.51578         24.4222         3.62673         41.2596 
        2.52805         24.2635         3.58347         40.9564 
        2.54029           24.06         3.54101         40.6797 
        2.55257         23.8193         3.49911         40.4007 
        2.56487          23.591         3.45782         40.1279 
        2.57716         23.3401         3.41724         39.8421 
        2.58942         23.1009         3.37741         39.6041 
        2.60167         22.8844         3.33825         39.3122 
        2.61395         22.6681         3.29966         39.0472 
        2.62624         22.4934         3.26162         38.7999 
        2.63849          22.313          3.2243         38.5354 
        2.65073         22.0305         3.18761         38.2595 
        2.66302         21.7651         3.15135         38.0269 
         2.6753         21.6645         3.11569         37.7768 
        2.68756         21.5087         3.08064         37.5446 
        2.69983         21.3066         3.04612         37.2667 
        2.71213          21.105         3.01204         37.0279 
        2.72441         20.9483         2.97855         36.7656 
        2.73665         20.7392         2.94566          36.524 
         2.7489         20.5245         2.91327         36.2899 
        2.76118         20.4045         2.88127         36.0275 
        2.77349         20.2979         2.84968         35.8154 
        2.78576         20.0532         2.81869         35.5904 
        2.79802         19.8763         2.78817         35.3504 
        2.81031         19.7701         2.75804          35.138 
        2.82259         19.6726         2.72836         34.9039 
        2.83483         19.4196         2.69923         34.6616 
         2.8471         19.3718         2.67047         34.4294 
         2.8594         19.2111         2.64204         34.2183 
         2.8717         19.0412         2.61404         33.9891 
        2.88396           18.87         2.58654         33.7614 
        2.89619         18.8409         2.55949          33.555 
        2.90847         18.7012         2.53273         33.3377 
        2.92072         18.5528         2.50639         33.1369 
        2.93299         18.4913         2.48041         32.9319 
        2.94526         18.4075         2.45478         32.7167 
        2.95753         18.3192         2.42952         32.5058 
        2.96982         18.2442         2.40457         32.3051 
        2.98209         18.1007         2.38003          32.105 
        2.99436         18.0658          2.3558         31.9018 
        3.00666         17.9451         2.33187         31.6943 
        3.01894         17.8911         2.30832         31.4858 
        3.03119         17.7405         2.28513         31.2882 
        3.04345         17.7859         2.26226         31.1009 
        3.05573         17.7071         2.23965         30.9071 
          3.068         17.6212         2.21737         30.7016 
        3.08026         17.6109         2.19543         30.5136 
        3.09254         17.5371         2.17373         30.3311 
        3.10483         17.5049         2.15233         30.1464 
         3.1171         17.5247         2.13124         29.9621 
        3.12933         17.4608          2.1105          29.776 
        3.14159         17.3889         2.08999          29.586 
