# k  (h/Mpc)    P(k)  (Mpc/h)^3    P_linear(k)  (Mpc/h)^3     P_NL(k)  ShotnoiseSubtracted = false
      0.0156606         22283.5         22452.6         22272.8 
      0.0273761         19062.3         19379.1         19162.2 
      0.0384619         14398.1         14586.4         14393.2 
      0.0498308         11110.4         11466.4         11271.8 
      0.0625568         9384.87         9740.86         9568.22 
      0.0751274         8361.52         8273.64         8031.55 
      0.0867833         6473.55            6660         6584.78 
      0.0984825         5477.91         5269.85         5335.69 
       0.111151         4689.79         4399.76         4482.64 
       0.123864         4201.12         3964.75         4031.69 
       0.135742         3832.96         3565.09         3632.09 
        0.14762         3339.53         3048.19         3225.47 
       0.160083         2842.62         2540.74         2760.02 
       0.172465         2535.42         2217.51         2496.88 
       0.184281         2296.02         2044.23         2323.87 
       0.196406         2170.77          1887.8         2141.68 
       0.209011          2033.9         1679.63         1942.28 
       0.221538         1830.89         1467.81         1815.76 
       0.233611         1758.62         1313.29         1703.45 
       0.245665         1593.25          1212.1         1574.06 
       0.258103         1581.33         1128.35         1486.89 
       0.270422         1410.83         1036.82         1397.94 
       0.282519         1334.86         940.961         1325.36 
       0.294636         1309.38         857.313         1256.42 
       0.306978         1198.74         793.154         1204.96 
       0.319417         1177.23          741.55         1136.42 
        0.33169         1106.39         692.154         1077.11 
       0.343948         1063.39         641.317         1044.51 
       0.356249         1009.54         593.643         1006.47 
       0.368458         968.722         553.711         962.999 
        0.38068          955.12         520.321         927.078 
       0.392856         907.959         489.837         895.487 
       0.405069         860.873         460.028         866.299 
       0.417459         828.401         431.169         837.039 
       0.429752         826.325         405.262         808.027 
       0.441978         797.473         382.524         787.982 
       0.454294         763.349         361.876         756.368 
        0.46658         741.975         342.501         741.206 
       0.478753         728.687         324.224          719.22 
       0.490964         701.067         307.056         697.558 
       0.503334         671.786         291.211         682.524 
       0.515665         669.294         276.762         667.117 
       0.527909         641.572         263.423         653.633 
       0.540159         626.567         250.803         637.521 
        0.55248         614.146         238.829         621.204 
       0.564743         609.237         227.741          610.75 
        0.57686         589.692         217.551         594.904 
       0.589077         580.058         207.931         582.009 
       0.601441         566.246         198.784         570.932 
        0.61382         550.461          190.16         560.963 
       0.626067         545.131         182.112         550.789 
       0.638306         525.509         174.534         539.616 
       0.650632         520.826         167.354         527.164 
       0.662899         516.835         160.625          520.74 
       0.675076         500.671          154.32         513.874 
       0.687267         486.446         148.345         501.831 
       0.699615         485.424         142.611         493.939 
       0.711937         475.274         137.191         484.631 
       0.724148         460.152         132.099          478.32 
       0.736433         449.581          127.24         469.964 
       0.748747         444.095         122.618         461.772 
       0.761037         436.457         118.237         456.302 
       0.773197         429.889         114.115         448.721 
       0.785376          424.76         110.185         442.348 
       0.797761         412.215          106.38         435.928 
       0.810096         407.695         102.769         430.381 
       0.822371         397.281         99.3431         423.449 
       0.834626          393.48         96.0799         418.617 
       0.846916         387.733         92.9555         412.069 
       0.859215         383.143         89.9691         406.044 
       0.871383         374.794         87.1443         400.763 
        0.88363         370.573         84.4245         396.731 
       0.895928         365.529         81.8111         390.599 
       0.908253         356.594          79.304         384.185 
       0.920535         349.691         76.9109         380.139 
       0.932774         344.729         74.6253         374.352 
        0.94508         339.604         72.4216         370.643 
       0.957324         336.174          70.318          365.72 
        0.96953         332.019         68.3048         361.314 
       0.981769         324.233         66.3658         357.298 
       0.994071         323.115         64.4931         352.978 
         1.0064         317.216         62.6899         347.857 
        1.01868         313.672         60.9611         343.453 
        1.03092         304.517         59.3056         340.468 
         1.0432          301.82         57.7059         336.356 
        1.05553         298.768         56.1592         331.722 
        1.06777         294.826         54.6807         327.971 
           1.08          288.23         53.2571         324.366 
        1.09227         287.688         51.8798         320.476 
         1.1046         282.085         50.5463         317.461 
         1.1169         276.202         49.2622         313.263 
        1.12915         272.447         48.0292         310.077 
        1.14142         267.029         46.8361         306.436 
        1.15365         264.248         45.6871         303.226 
        1.16585         259.792         44.5799         299.844 
        1.17807         257.382         43.5082         296.592 
        1.19037         252.989         42.4648         294.088 
        1.20276         250.029         41.4487          290.25 
        1.21504         244.922          40.474         286.996 
        1.22728         241.461         39.5347         283.882 
        1.23954         240.154         38.6231         281.039 
        1.25184         234.703         37.7387         278.079 
        1.26414         230.145         36.8816         275.453 
        1.27632         228.331         36.0589         272.925 
         1.2886         226.343         35.2556         269.832 
        1.30093         221.324          34.474         266.412 
        1.31316         216.754         33.7219         263.869 
        1.32541         215.726         32.9921         261.066 
        1.33772          211.94         32.2799         258.703 
        1.35005         209.591         31.5884          255.78 
        1.36225         205.657         30.9241         253.391 
        1.37447         202.505         30.2778         250.322 
        1.38676         200.652         29.6471         248.561 
        1.39907         197.799         29.0332         245.525 
        1.41133         194.064         28.4395         242.961 
        1.42358         191.785          27.863         240.678 
        1.43591         189.369         27.2985         238.525 
        1.44818         185.788         26.7528         236.011 
        1.46037         184.349         26.2253         233.477 
        1.47263         180.781         25.7092         231.274 
        1.48494         179.374         25.2049         228.502 
        1.49724         176.267         24.7147          227.07 
        1.50952          173.16         24.2385         224.439 
        1.52178         171.367         23.7755         222.201 
        1.53409          168.36         23.3228         220.179 
        1.54637         165.847         22.8829          218.36 
        1.55858         164.091         22.4568         216.036 
        1.57081         161.326          22.041         213.946 
        1.58313         159.295         21.6332         211.772 
        1.59544         156.397         21.2359         209.886 
        1.60767         155.032         20.8511         208.023 
        1.61994         152.465         20.4746         205.937 
        1.63225         150.086         20.1066         203.848 
        1.64452          147.75         19.7487         202.042 
        1.65676         145.924         19.4006          200.31 
          1.669         144.287         19.0606         198.318 
        1.68133         141.534         18.7267         196.508 
        1.69363         139.119         18.4017         194.874 
        1.70585         137.022         18.0866          193.06 
        1.71809         135.326         17.7782         190.993 
        1.73038         133.687          17.476         189.402 
        1.74268         132.508         17.1807         187.548 
        1.75493          129.45         16.8935         186.034 
        1.76714         128.904         16.6137         184.408 
        1.77942         126.253         16.3388         182.687 
        1.79173         124.419         16.0694         180.971 
        1.80402         122.814         15.8066         179.361 
         1.8163         120.634         15.5499         177.932 
         1.8286         119.079         15.2985         176.185 
         1.8409           117.7         15.0528         174.552 
        1.85315         115.435         14.8133         173.121 
        1.86537         114.344         14.5796          171.66 
        1.87765         112.951           14.35         170.191 
        1.88995         110.901         14.1248         168.563 
        1.90221         109.608         13.9052         167.254 
        1.91445         107.976         13.6907         165.644 
        1.92674         106.307         13.4799         164.183 
        1.93902         105.054         13.2736         162.703 
        1.95124         103.653         13.0727         161.336 
         1.9635         101.948         12.8755         159.933 
        1.97583         100.423          12.681         158.519 
        1.98812         99.0279         12.4914         157.396 
        2.00039         97.9431          12.306         155.876 
        2.01264         96.7597         12.1245         154.594 
        2.02492         95.4433         11.9464         153.176 
        2.03717         94.0208         11.7722         151.977 
        2.04942         92.8629         11.6017         150.675 
        2.06171         91.2443          11.434         149.336 
        2.07397         90.1986           11.27         148.203 
        2.08629         88.8644         11.1085         146.908 
        2.09857         87.8247         10.9506         145.735 
        2.11081         86.4291         10.7964          144.39 
        2.12309         85.3693         10.6448          143.29 
        2.13538         84.0203         10.4959         142.037 
        2.14763         82.8796         10.3503         140.884 
        2.15986         81.9877         10.2079         139.626 
        2.17214         80.8467         10.0675         138.555 
        2.18443         79.8788         9.92968         137.565 
        2.19671         78.8756         9.79458         136.365 
        2.20898         77.8595         9.66215         135.139 
        2.22126         76.7324         9.53203         134.151 
        2.23354         75.8258         9.40436         133.081 
         2.2458         74.3613         9.27924         131.955 
        2.25807         73.6646         9.15629         130.902 
        2.27035         72.6013         9.03547         129.839 
        2.28263         71.7379         8.91688         128.852 
         2.2949         70.3703         8.80048         127.834 
        2.30718         69.4429         8.68613         126.783 
        2.31946         68.8477         8.57375           125.7 
        2.33169         67.7625         8.46385         124.759 
        2.34393         67.2309          8.3557         123.883 
        2.35622          66.055          8.2491         122.824 
        2.36847         65.4222         8.14465         121.975 
        2.38076         64.2556         8.04171         120.901 
        2.39305         63.6688         7.94057         120.067 
        2.40534         62.7244         7.84116         119.066 
        2.41762         62.0596         7.74347         118.117 
        2.42989         61.1049         7.64759          117.26 
        2.44216         60.5449         7.55335          116.28 
         2.4544         59.6097         7.46091         115.443 
        2.46667         58.8028         7.36981         114.562 
        2.47897         58.2437         7.28001         113.613 
        2.49124         57.5772         7.19195         112.768 
        2.50349         56.6299         7.10548         111.934 
        2.51578         56.2314         7.02017         111.172 
        2.52805         55.3767         6.93642         110.244 
        2.54029         54.8372         6.85424         109.405 
        2.55257         54.1212         6.77314         108.648 
        2.56487         53.7859          6.6932         107.838 
        2.57716         53.1794         6.61467         107.033 
        2.58942         52.3111         6.53757         106.246 
        2.60167         51.7571         6.46177         105.476 
        2.61395         51.4025         6.38706         104.676 
        2.62624          50.536         6.31343         103.846 
        2.63849         50.0138          6.2412         103.124 
        2.65073         49.3545         6.17017         102.367 
        2.66302         48.9464         6.09999         101.614 
         2.6753         48.3215         6.03095         100.902 
        2.68756         47.9767         5.96312         100.134 
        2.69983         47.3795         5.89629         99.4208 
        2.71213         46.8503         5.83033          98.713 
        2.72441          46.441         5.76551         97.9869 
        2.73665         45.9288         5.70183         97.3169 
         2.7489         45.4386         5.63914         96.6346 
        2.76118         45.0158         5.57721          95.913 
        2.77349          44.544         5.51606         95.2511 
        2.78576         44.1271         5.45606         94.5522 
        2.79802         43.7497         5.39699         93.9478 
        2.81031         43.1713         5.33866         93.2618 
        2.82259         42.7663         5.28121         92.5692 
        2.83483         42.3139         5.22483         91.9672 
         2.8471         41.9327         5.16916          91.299 
         2.8594         41.4993         5.11413         90.6522 
         2.8717         41.2187         5.05992         90.0681 
        2.88396          40.864          5.0067         89.4389 
        2.89619         40.5398         4.95434         88.7741 
        2.90847         40.1504         4.90253         88.1279 
        2.92072         39.8425         4.85155          87.586 
        2.93299         39.6918         4.80127         87.0047 
        2.94526         39.2903         4.75166         86.3883 
        2.95753         39.0381         4.70276         85.7861 
        2.96982         38.6386         4.65447         85.2181 
        2.98209         38.4905         4.60695         84.6456 
        2.99436         38.1846         4.56006         84.0403 
        3.00666         38.0344         4.51374         83.4786 
        3.01894         37.7893         4.46816         82.9278 
        3.03119         37.5546         4.42326         82.3955 
        3.04345          37.321         4.37899         81.8532 
        3.05573         37.2276         4.33523         81.2958 
          3.068         36.9923         4.29211         80.7604 
        3.08026         36.7848         4.24963         80.2207 
        3.09254         36.7148         4.20764         79.6983 
        3.10483         36.7087         4.16621         79.1768 
         3.1171         36.5115         4.12539         78.6466 
        3.12933         36.2618         4.08524         78.1243 
        3.14159         36.2733         4.04553         77.6038 
