# k  (h/Mpc)    Pcb(k)  (Mpc/h)^3    Pcb_linear(k) (Mpc/h)^3    Pcb_NL(k) (Mpc/h)^3   ShotnoiseSubtracted = false
      0.0156606         22390.1           22517         22336.8 
      0.0273761         19183.3           19467         19249.1 
      0.0384619         14502.4         14665.5         14471.3 
      0.0498308         11196.5         11535.1         11339.4 
      0.0625568         9461.23         9803.18         9629.43 
      0.0751274         8431.81         8328.73         8085.04 
      0.0867833         6528.79         6705.49         6629.75 
      0.0984825         5525.23         5306.49          5372.8 
       0.111151         4730.66          4430.8         4514.26 
       0.123864         4237.81         3993.03         4060.44 
       0.135742         3866.62         3590.71          3658.2 
        0.14762          3368.9         3070.23         3248.79 
       0.160083         2867.58         2559.21         2780.08 
       0.172465         2557.68         2233.69         2515.11 
       0.184281         2316.08          2059.2         2340.89 
       0.196406          2189.7         1901.66         2157.41 
       0.209011         2051.53         1691.99         1956.57 
       0.221538         1846.68         1478.64         1829.15 
       0.233611         1773.75            1323         1716.04 
       0.245665          1606.9         1221.07          1585.7 
       0.258103         1594.83         1136.71         1497.91 
       0.270422         1422.74         1044.51         1408.31 
       0.282519         1346.11         947.949          1335.2 
       0.294636         1320.32         863.686         1265.76 
       0.306978         1208.71         799.054         1213.92 
       0.319417         1186.94         747.069         1144.88 
        0.33169         1115.44         697.309         1085.13 
       0.343948         1072.06         646.097          1052.3 
       0.356249         1017.69         598.069         1013.98 
       0.368458          976.46         557.842         970.184 
        0.38068         962.706         524.201         933.992 
       0.392856         915.122         493.492         902.169 
       0.405069         867.587         463.464         872.769 
       0.417459         834.785         434.389         843.291 
       0.429752         832.644          408.29         814.064 
       0.441978         803.528         385.383         793.871 
       0.454294         769.069         364.581         762.022 
        0.46658         747.497         345.063         746.749 
       0.478753         734.058          326.65         724.601 
       0.490964         706.151         309.355         702.781 
       0.503334         676.625         293.391         687.632 
       0.515665         674.073         278.833          672.11 
       0.527909         646.099         265.395         658.526 
       0.540159         630.926         252.681         642.295 
        0.55248         618.367         240.617         625.856 
       0.564743          613.36         229.447         615.323 
        0.57686         593.658          219.18          599.36 
       0.589077         583.925         209.489         586.369 
       0.601441         569.953         200.274         575.209 
        0.61382         554.024         191.585         565.166 
       0.626067         548.588         183.477         554.916 
       0.638306         528.812         175.842          543.66 
       0.650632         524.061         168.608         531.115 
       0.662899         519.994         161.829         524.643 
       0.675076         503.694         155.476         517.726 
       0.687267         489.332         149.457         505.593 
       0.699615         488.259          143.68         497.642 
       0.711937          477.99          138.22         488.264 
       0.724148         462.752         133.089         481.906 
       0.736433         452.089         128.194         473.488 
       0.748747          446.53         123.537         465.234 
       0.761037         438.812         119.123         459.724 
       0.773197         432.156         114.971         452.086 
       0.785376         426.961         111.011         445.665 
       0.797761         414.316         107.177         439.197 
       0.810096          409.73         103.539         433.609 
       0.822371          399.23         100.088         426.625 
       0.834626         395.369         96.8006         421.757 
       0.846916         389.572         93.6528         415.159 
       0.859215         384.918          90.644          409.09 
       0.871383         376.499          87.798         403.769 
        0.88363         372.208         85.0579         399.707 
       0.895928         367.123         82.4249         393.529 
       0.908253         358.127         79.8989         387.067 
       0.920535         351.137         77.4879         382.992 
       0.932774         346.127         75.1852         377.161 
        0.94508         340.947          72.965         373.424 
       0.957324         337.465         70.8456         368.464 
        0.96953         333.267         68.8174         364.025 
       0.981769         325.416         66.8638         359.979 
       0.994071         324.268         64.9771         355.627 
         1.0064         318.312         63.1603         350.468 
        1.01868         314.729         61.4186         346.031 
        1.03092         305.505         59.7507         343.023 
         1.0432         302.764         58.1389          338.88 
        1.05553         299.676         56.5807         334.211 
        1.06777         295.687          55.091         330.432 
           1.08         289.044         53.6568           326.8 
        1.09227         288.471         52.2692         322.881 
         1.1046          282.82         50.9257         319.844 
         1.1169         276.894         49.6319         315.614 
        1.12915         273.109         48.3897         312.404 
        1.14142         267.657         47.1876         308.736 
        1.15365         264.827         46.0301         305.502 
        1.16585         260.339         44.9146         302.094 
        1.17807           257.9         43.8348         298.819 
        1.19037         253.466         42.7836         296.295 
        1.20276         250.472         41.7598         292.429 
        1.21504         245.337         40.7778          289.15 
        1.22728         241.845         39.8315         286.013 
        1.23954         240.512         38.9131         283.149 
        1.25184         235.036          38.022         280.166 
        1.26414         230.444         37.1585         277.521 
        1.27632         228.606         36.3296         274.974 
         1.2886         226.595         35.5203         271.858 
        1.30093         221.549         34.7328         268.412 
        1.31316         216.948          33.975          265.85 
        1.32541         215.897         33.2398         263.026 
        1.33772         212.097         32.5223         260.645 
        1.35005         209.716         31.8255           257.7 
        1.36225         205.755         31.1563         255.293 
        1.37447         202.583         30.5051         252.201 
        1.38676         200.711         29.8696         250.427 
        1.39907          197.84         29.2512         247.368 
        1.41133         194.085          28.653         244.785 
        1.42358         191.791         28.0722         242.485 
        1.43591         189.352         27.5035         240.316 
        1.44818         185.757         26.9537         237.783 
        1.46037         184.296         26.4222          235.23 
        1.47263         180.713         25.9022         233.011 
        1.48494         179.285         25.3942         230.217 
        1.49724         176.167         24.9002         228.775 
        1.50952         173.052         24.4205         226.124 
        1.52178         171.242          23.954          223.87 
        1.53409          168.22          23.498         221.832 
        1.54637         165.692         23.0547         219.999 
        1.55858         163.926         22.6254         217.658 
        1.57081         161.138         22.2065         215.552 
        1.58313         159.098         21.7956         213.362 
        1.59544         156.195         21.3953         211.462 
        1.60767         154.812         21.0077         209.585 
        1.61994         152.235         20.6283         207.483 
        1.63225         149.848         20.2576         205.379 
        1.64452         147.502         19.8969         203.559 
        1.65676         145.669         19.5463         201.814 
          1.669         144.024         19.2038         199.807 
        1.68133         141.258         18.8673         197.984 
        1.69363          138.84         18.5399         196.337 
        1.70585         136.733         18.2224          194.51 
        1.71809         135.023         17.9117         192.427 
        1.73038         133.373         17.6072         190.824 
        1.74268         132.186         17.3097         188.956 
        1.75493         129.132         17.0204          187.43 
        1.76714         128.569         16.7385         185.793 
        1.77942         125.912         16.4615         184.058 
        1.79173         124.074         16.1901          182.33 
        1.80402         122.464         15.9253         180.707 
         1.8163         120.281         15.6667         179.268 
         1.8286         118.723         15.4133         177.508 
         1.8409         117.337         15.1658         175.863 
        1.85315         115.061         14.9246         174.421 
        1.86537         113.972          14.689         172.949 
        1.87765         112.573         14.4577         171.469 
        1.88995         110.523         14.2308         169.829 
        1.90221         109.223         14.0096         168.509 
        1.91445         107.591         13.7935         166.888 
        1.92674         105.916         13.5812         165.416 
        1.93902         104.663         13.3733         163.925 
        1.95124         103.253         13.1709         162.548 
         1.9635         101.552         12.9721         161.133 
        1.97583         100.026         12.7763          159.71 
        1.98812         98.6254         12.5852         158.578 
        2.00039         97.5397         12.3984         157.046 
        2.01264          96.354         12.2155         155.755 
        2.02492         95.0353         12.0361         154.326 
        2.03717         93.6106         11.8606         153.119 
        2.04942         92.4491         11.6888         151.807 
        2.06171         90.8326         11.5199         150.457 
        2.07397         89.7874         11.3547         149.316 
        2.08629         88.4486          11.192         148.011 
        2.09857         87.4096         11.0329          146.83 
        2.11081         86.0136         10.8775         145.474 
        2.12309         84.9542         10.7248         144.366 
        2.13538         83.6009         10.5747         143.104 
        2.14763         82.4657         10.4281         141.942 
        2.15986          81.571         10.2845         140.675 
        2.17214          80.429         10.1431         139.595 
        2.18443         79.4598         10.0042         138.598 
        2.19671         78.4585         9.86813         137.389 
        2.20898         77.4434         9.73471         136.154 
        2.22126         76.3186         9.60362         135.159 
        2.23354         75.4099         9.47498          134.08 
         2.2458         73.9508         9.34893         132.946 
        2.25807         73.2504         9.22505         131.885 
        2.27035         72.1923         9.10332         130.814 
        2.28263         71.3287         8.98384          129.82 
         2.2949         69.9635         8.86657         128.794 
        2.30718         69.0388         8.75136         127.736 
        2.31946         68.4399         8.63813         126.644 
        2.33169         67.3593         8.52741         125.696 
        2.34393         66.8247         8.41845         124.814 
        2.35622         65.6542         8.31105         123.746 
        2.36847         65.0206         8.20582         122.891 
        2.38076         63.8587          8.1021         121.809 
        2.39305         63.2709          8.0002         120.969 
        2.40534         62.3294         7.90005          119.96 
        2.41762         61.6674         7.80162         119.004 
        2.42989         60.7125         7.70503          118.14 
        2.44216         60.1574         7.61008         117.153 
         2.4544         59.2227         7.51694          116.31 
        2.46667          58.415         7.42516         115.422 
        2.47897         57.8606         7.33468         114.467 
        2.49124         57.1961         7.24596         113.615 
        2.50349          56.251         7.15885         112.775 
        2.51578         55.8533          7.0729         112.007 
        2.52805         54.9998         6.98851         111.072 
        2.54029         54.4617         6.90571         110.227 
        2.55257         53.7499         6.82401         109.464 
        2.56487         53.4136         6.74347         108.648 
        2.57716          52.809         6.66434         107.837 
        2.58942         51.9467         6.58666         107.044 
        2.60167          51.393          6.5103         106.268 
        2.61395         51.0365         6.43503         105.462 
        2.62624         50.1758         6.36085         104.626 
        2.63849         49.6552         6.28807         103.899 
        2.65073         48.9983         6.21651         103.136 
        2.66302         48.5918          6.1458         102.377 
         2.6753         47.9689         6.07624         101.659 
        2.68756         47.6258          6.0079         100.887 
        2.69983          47.032         5.94057         100.167 
        2.71213          46.505         5.87412         99.4544 
        2.72441         46.0958         5.80881         98.7228 
        2.73665         45.5872         5.74465         98.0478 
         2.7489         45.0986         5.68149         97.3603 
        2.76118         44.6784         5.61909         96.6333 
        2.77349          44.207         5.55748         95.9665 
        2.78576          43.793         5.49704         95.2623 
        2.79802         43.4169         5.43752         94.6534 
        2.81031         42.8421         5.37875         93.9622 
        2.82259         42.4388         5.32088         93.2644 
        2.83483         41.9879         5.26407         92.6579 
         2.8471         41.6065         5.20798         91.9846 
         2.8594         41.1767         5.15254          91.333 
         2.8717         40.8968         5.09792         90.7445 
        2.88396         40.5463          5.0443         90.1106 
        2.89619         40.2228         4.99155         89.4408 
        2.90847         39.8355         4.93935         88.7898 
        2.92072         39.5301         4.88798         88.2438 
        2.93299         39.3787         4.83733         87.6581 
        2.94526         38.9796         4.78734         87.0371 
        2.95753         38.7287         4.73808         86.4304 
        2.96982         38.3305         4.68942         85.8581 
        2.98209         38.1854         4.64155         85.2814 
        2.99436         37.8802         4.59431         84.6715 
        3.00666         37.7309         4.54764         84.1055 
        3.01894         37.4876         4.50171         83.5506 
        3.03119         37.2506         4.45648         83.0143 
        3.04345         37.0211         4.41187          82.468 
        3.05573         36.9263         4.36778         81.9064 
          3.068         36.6929         4.32435          81.367 
        3.08026         36.4868         4.28154         80.8232 
        3.09254         36.4161         4.23924         80.2968 
        3.10483         36.4111          4.1975         79.7715 
         3.1171         36.2151         4.15638         79.2372 
        3.12933         35.9666         4.11592          78.711 
        3.14159         35.9772         4.07591         78.1866 
