# k  (h/Mpc)    P(k)  (Mpc/h)^3    P_linear(k)  (Mpc/h)^3     P_NL(k)  ShotnoiseSubtracted = false
      0.0156606         7695.73         7632.65         7589.38 
      0.0273761         6644.12         6591.69         6559.81 
      0.0384619         5041.96         4963.29         4942.22 
      0.0498308         3928.83         3902.66         3883.93 
      0.0625568          3314.5         3316.02         3297.31 
      0.0751274          2904.5         2816.93         2788.49 
      0.0867833         2279.96         2267.74         2261.33 
      0.0984825         1876.58         1794.51         1807.56 
       0.111151            1582         1498.31         1511.81 
       0.123864         1420.97         1350.23         1361.58 
       0.135742         1282.12         1214.16         1225.84 
        0.14762         1096.88         1038.15         1066.62 
       0.160083         912.144         865.341         898.042 
       0.172465         810.466         755.267         795.642 
       0.184281          748.94         696.259         738.713 
       0.196406         685.317         642.988         677.308 
       0.209011         626.078          572.09         609.536 
       0.221538         562.395         499.949         552.261 
       0.233611         516.567         447.322         505.924 
       0.245665         482.241         412.859         465.389 
       0.258103         445.398         384.335         436.606 
       0.270422         411.773         353.158          404.95 
       0.282519         376.206         320.509         374.921 
       0.294636         369.733         292.019         349.342 
       0.306978         327.206         270.166         329.756 
       0.319417          313.81         252.589         309.812 
        0.33169         293.798         235.764         290.999 
       0.343948         280.371         218.449           276.4 
       0.356249         260.936          202.21         262.937 
       0.368458          251.91         188.609         246.876 
        0.38068          239.33         177.236         234.799 
       0.392856         223.455         166.852         224.469 
       0.405069         213.778         156.699         214.846 
       0.417459         203.624         146.869         203.295 
       0.429752          195.99         138.045         194.958 
       0.441978         188.741         130.299          188.25 
       0.454294         175.844         123.266         178.868 
        0.46658         176.034         116.667         172.806 
       0.478753         165.753         110.441         166.351 
       0.490964         160.646         104.593         160.004 
       0.503334         152.618         99.1962         154.595 
       0.515665         148.806         94.2744          150.54 
       0.527909         144.163         89.7307         143.972 
       0.540159          139.34         85.4317         139.714 
        0.55248         134.866         81.3528         134.892 
       0.564743         131.001         77.5763         131.308 
        0.57686         126.845         74.1051         126.968 
       0.589077          121.19         70.8285         123.851 
       0.601441         118.545         67.7127         120.483 
        0.61382         116.537         64.7751          116.76 
       0.626067         112.011         62.0338         113.755 
       0.638306         108.083         59.4524         110.905 
       0.650632         104.257         57.0065         107.004 
       0.662899         103.957         54.7146         104.549 
       0.675076         100.212         52.5667         101.991 
       0.687267           97.98         50.5314          99.515 
       0.699615         94.9943         48.5784         97.4777 
       0.711937         92.1295         46.7321         94.6906 
       0.724148         91.2804         44.9975         93.3548 
       0.736433         87.6098         43.3423         90.8187 
       0.748747         85.9773          41.768         88.8022 
       0.761037         84.0727         40.2756         86.6923 
       0.773197          82.239         38.8716         85.6116 
       0.785376         80.2876          37.533         83.4143 
       0.797761         79.4897         36.2367         82.0975 
       0.810096         76.7203         35.0067         80.2226 
       0.822371         75.2658         33.8398         78.6438 
       0.834626         73.5383         32.7283         77.3217 
       0.846916         72.4496          31.664         75.9121 
       0.859215         70.8589         30.6467         74.3516 
       0.871383          69.908         29.6845         73.0991 
        0.88363         67.9821          28.758         72.0625 
       0.895928         66.5872         27.8678         70.7693 
       0.908253          64.969         27.0138         69.5599 
       0.920535         64.6223         26.1986         68.4365 
       0.932774         63.2951         25.4201         67.2579 
        0.94508         62.4172         24.6694         66.0389 
       0.957324         60.8422         23.9529          65.169 
        0.96953         60.8004         23.2671         63.9873 
       0.981769         58.7768         22.6066         63.2242 
       0.994071         58.1009         21.9687           62.28 
         1.0064         56.8326         21.3545         61.3123 
        1.01868         55.9872         20.7656         60.4799 
        1.03092         55.0979         20.2017         59.5744 
         1.0432         54.1582         19.6567         58.6082 
        1.05553         52.8124         19.1299         58.1428 
        1.06777         52.3554         18.6262         57.2271 
           1.08         51.1347         18.1413         56.3986 
        1.09227         50.5156         17.6722         55.6156 
         1.1046         49.7631         17.2179         54.8598 
         1.1169         49.1885         16.7805         54.0737 
        1.12915         48.3577         16.3605         53.4864 
        1.14142         47.4333         15.9541         52.8108 
        1.15365         46.7226         15.5627         52.1991 
        1.16585          46.017         15.1856         51.4511 
        1.17807         45.2784         14.8205         50.7864 
        1.19037         45.1489         14.4651         50.3322 
        1.20276         44.3417          14.119         49.7052 
        1.21504         43.7666          13.787         49.1508 
        1.22728         42.9134          13.467         48.5661 
        1.23954         42.4336         13.1565         47.8903 
        1.25184          41.719         12.8552         47.4545 
        1.26414         41.1206         12.5633         46.8401 
        1.27632         40.7887          12.283          46.361 
         1.2886         40.3588         12.0094         45.8593 
        1.30093         39.6741         11.7432         45.2686 
        1.31316         39.0648         11.4869         44.8975 
        1.32541         38.8059         11.2383         44.3878 
        1.33772         38.0582         10.9958         43.9216 
        1.35005         37.6319         10.7602         43.4904 
        1.36225         37.0174         10.5339         43.0685 
        1.37447         36.1476         10.3138         42.5832 
        1.38676         36.2792         10.0989         42.2091 
        1.39907         35.6958         9.88982         41.8213 
        1.41133          34.958         9.68757         41.3806 
        1.42358         34.6008         9.49118         40.9487 
        1.43591         34.2038          9.2989         40.5979 
        1.44818         33.8501         9.11302         40.1298 
        1.46037         33.4066         8.93334         39.7652 
        1.47263         33.1697         8.75751         39.4489 
        1.48494         32.5161         8.58575         39.0317 
        1.49724         32.4185         8.41875         38.6697 
        1.50952          31.935         8.25654         38.3583 
        1.52178         31.4546         8.09884          37.988 
        1.53409         31.2043         7.94464         37.6538 
        1.54637         30.7811         7.79478         37.2732 
        1.55858         30.0796         7.64964         36.9549 
        1.57081         30.1684           7.508         36.6683 
        1.58313         29.7944         7.36907         36.3186 
        1.59544         29.2389         7.23374          36.017 
        1.60767          28.904         7.10268         35.6602 
        1.61994         28.5586         6.97442         35.3833 
        1.63225         28.4117         6.84906         35.1196 
        1.64452         27.9925         6.72714         34.8243 
        1.65676         27.6924         6.60857         34.5083 
          1.669         27.4212         6.49277         34.2604 
        1.68133         27.0837         6.37902         33.9479 
        1.69363         26.6901         6.26833         33.6172 
        1.70585          26.484         6.16098         33.4404 
        1.71809         26.0489         6.05593         33.0913 
        1.73038         25.9163         5.95299         32.8843 
        1.74268         25.5808         5.85239         32.5537 
        1.75493          25.266         5.75458         32.3272 
        1.76714          25.119         5.65926          32.091 
        1.77942         24.8356         5.56561         31.8215 
        1.79173          24.401         5.47385         31.5719 
        1.80402         24.1547         5.38434         31.4062 
         1.8163         24.0473         5.29689         31.0345 
         1.8286         23.6179         5.21124          30.856 
         1.8409          23.418         5.12755         30.6247 
        1.85315         23.1803         5.04598         30.4094 
        1.86537         22.8695         4.96635         30.1786 
        1.87765         22.7423         4.88814         29.9433 
        1.88995         22.4256         4.81144         29.6798 
        1.90221         22.2005         4.73664         29.4685 
        1.91445         21.9191         4.66356         29.2544 
        1.92674         21.7263         4.59178          29.037 
        1.93902          21.471          4.5215         28.8522 
        1.95124          21.145         4.45306         28.6898 
         1.9635         21.0273         4.38587         28.4314 
        1.97583         20.8062         4.31964         28.2313 
        1.98812         20.6341         4.25503         28.0474 
        2.00039         20.4059         4.19188         27.8378 
        2.01264         20.1659         4.13006         27.6575 
        2.02492         20.0104          4.0694         27.4253 
        2.03717         19.6992         4.01007          27.248 
        2.04942         19.5448         3.95199         27.0424 
        2.06171         19.4059         3.89487         26.8655 
        2.07397         19.2058           3.839         26.6557 
        2.08629         19.0187         3.78399         26.4661 
        2.09857         18.8282          3.7302         26.3016 
        2.11081         18.5911         3.67767         26.1181 
        2.12309         18.4649         3.62603         25.9357 
        2.13538         18.2264          3.5753         25.7629 
        2.14763         18.0575         3.52572          25.591 
        2.15986         17.9221         3.47719         25.4258 
        2.17214         17.7193         3.42938         25.2584 
        2.18443         17.5508         3.38243         25.0701 
        2.19671         17.3608         3.33641         24.8929 
        2.20898         17.1971          3.2913         24.7293 
        2.22126         17.0707         3.24697         24.5779 
        2.23354         16.9731         3.20348         24.4119 
         2.2458         16.7634         3.16086         24.2765 
        2.25807         16.5466         3.11898         24.0706 
        2.27035          16.413         3.07782         23.9307 
        2.28263         16.2513         3.03743         23.7752 
         2.2949         16.1571         2.99778         23.6325 
        2.30718         16.0055         2.95883         23.4834 
        2.31946         15.8843         2.92055         23.3177 
        2.33169         15.7101         2.88311         23.1674 
        2.34393         15.5649         2.84627         23.0385 
        2.35622         15.3663         2.80996         22.8837 
        2.36847         15.2499         2.77438         22.7267 
        2.38076         15.0893         2.73931         22.5989 
        2.39305         14.9926         2.70486         22.4515 
        2.40534         14.8302           2.671         22.2823 
        2.41762         14.6864         2.63772         22.1787 
        2.42989         14.5699         2.60506         22.0159 
        2.44216         14.4288         2.57296         21.8825 
         2.4544         14.4133         2.54147         21.7326 
        2.46667         14.2179         2.51044         21.6113 
        2.47897          14.042         2.47985         21.4661 
        2.49124         13.9883         2.44985         21.3347 
        2.50349          13.819          2.4204         21.1921 
        2.51578         13.7234         2.39134         21.0901 
        2.52805         13.6146         2.36281         20.9513 
        2.54029         13.5223         2.33482          20.822 
        2.55257         13.4237         2.30719         20.6913 
        2.56487         13.2456         2.27996         20.5683 
        2.57716         13.1658         2.25321         20.4252 
        2.58942         13.0935         2.22695         20.3251 
        2.60167         12.9218         2.20113         20.2006 
        2.61395         12.9127         2.17568         20.0758 
        2.62624         12.8079          2.1506         19.9522 
        2.63849         12.6701         2.12599         19.8505 
        2.65073         12.5721          2.1018          19.718 
        2.66302         12.4995         2.07789         19.6107 
         2.6753         12.4418         2.05437         19.4847 
        2.68756         12.3321         2.03127         19.3783 
        2.69983         12.2321          2.0085         19.2567 
        2.71213         12.1278         1.98604         19.1296 
        2.72441         12.0888         1.96395         19.0283 
        2.73665         12.0021         1.94226         18.9164 
         2.7489         11.9511         1.92091         18.7985 
        2.76118         11.8193         1.89981         18.6953 
        2.77349          11.757         1.87898         18.5856 
        2.78576          11.658         1.85854         18.4849 
        2.79802         11.6259         1.83842         18.3698 
        2.81031         11.5477         1.81855         18.2598 
        2.82259         11.4863         1.79898         18.1615 
        2.83483         11.4332         1.77978         18.0595 
         2.8471         11.3698         1.76081         17.9492 
         2.8594          11.323         1.74207         17.8402 
         2.8717         11.2611          1.7236         17.7441 
        2.88396         11.1858         1.70547         17.6422 
        2.89619         11.1547         1.68764          17.539 
        2.90847         11.1076         1.66999         17.4478 
        2.92072         11.0649         1.65262         17.3326 
        2.93299          10.975          1.6355         17.2442 
        2.94526         10.9597          1.6186         17.1534 
        2.95753         10.9112         1.60194         17.0499 
        2.96982         10.8658         1.58549         16.9527 
        2.98209         10.8607         1.56931         16.8581 
        2.99436         10.8299         1.55333         16.7578 
        3.00666         10.8025         1.53755         16.6653 
        3.01894         10.7746         1.52203          16.586 
        3.03119         10.7373         1.50673         16.4879 
        3.04345         10.6732         1.49165         16.3834 
        3.05573          10.692         1.47674         16.2967 
          3.068         10.6691         1.46206         16.2147 
        3.08026         10.6471         1.44759         16.1115 
        3.09254         10.6489         1.43328         16.0303 
        3.10483         10.6396         1.41917         15.9519 
         3.1171         10.6632         1.40527         15.8584 
        3.12933         10.6304         1.39159         15.7694 
        3.14159         10.5963         1.37806         15.6794 
