# k  (h/Mpc)    P(k)  (Mpc/h)^3    P_linear(k)  (Mpc/h)^3     P_NL(k)  ShotnoiseSubtracted = false
      0.0156606          5737.9         5811.98         5780.63 
      0.0273761         4962.25         5020.13         4999.76 
      0.0384619         3767.24         3780.31          3768.5 
      0.0498308         2941.17         2972.65         2962.87 
      0.0625568         2481.05         2525.92         2515.43 
      0.0751274         2165.44          2145.8         2129.26 
      0.0867833         1705.51         1727.49         1724.22 
      0.0984825         1396.44         1367.02         1375.54 
       0.111151         1174.37         1141.39         1150.03 
       0.123864         1055.02         1028.59         1035.78 
       0.135742         950.447         924.942          932.32 
        0.14762         810.656         790.859         808.436 
       0.160083         673.255         659.217         679.227 
       0.172465         596.821         575.365         599.862 
       0.184281         552.583         530.414         556.337 
       0.196406         504.473         489.832         510.431 
       0.209011         458.681         435.823         458.592 
       0.221538         410.664         380.866         412.698 
       0.233611         374.361         340.775         376.347 
       0.245665         350.996         314.521         346.305 
       0.258103          320.28         292.791         324.445 
       0.270422         298.472          269.04         300.222 
       0.282519          271.72         244.168         277.024 
       0.294636         264.767         222.464         257.119 
       0.306978          233.73         205.816         241.808 
       0.319417         223.792         192.426         227.052 
        0.33169         208.848         179.609         213.048 
       0.343948         199.295         166.418         201.208 
       0.356249         184.599         154.047         190.894 
       0.368458         177.559         143.685         178.709 
        0.38068         167.973         135.021         169.636 
       0.392856         156.632         127.111          161.86 
       0.405069         149.204         119.376          154.08 
       0.417459          141.62         111.887          145.81 
       0.429752          136.11         105.165         139.377 
       0.441978         130.502         99.2642         134.269 
       0.454294         121.424         93.9062         127.338 
        0.46658         121.535         88.8788         122.542 
       0.478753         113.591         84.1361         117.783 
       0.490964         110.132         79.6809         113.157 
       0.503334         105.203         75.5694         108.875 
       0.515665         101.595         71.8199         105.816 
       0.527909         97.9749         68.3584         100.706 
       0.540159         94.5532         65.0833          97.575 
        0.55248         90.2059          61.976         93.9766 
       0.564743         88.1041          59.099          91.224 
        0.57686         85.3723         56.4546         88.1387 
       0.589077         81.2042         53.9584         85.7388 
       0.601441         79.1674         51.5848         83.1763 
        0.61382         77.1881         49.3468         80.3571 
       0.626067         73.9867         47.2584         78.2318 
       0.638306          71.742         45.2919         75.9421 
       0.650632         69.2437         43.4286         73.2873 
       0.662899         68.2536         41.6826         71.3442 
       0.675076         65.5961         40.0463         69.4806 
       0.687267         64.4969         38.4957         67.6225 
       0.699615         62.2557         37.0079         66.1946 
       0.711937         59.9991         35.6014          64.037 
       0.724148         59.6359         34.2799         63.0282 
       0.736433         56.6227          33.019         61.2092 
       0.748747         55.8428         31.8196         59.7307 
       0.761037         54.3382         30.6827         58.3219 
       0.773197         53.1359         29.6131         57.3576 
       0.785376         51.4444         28.5933         55.8645 
       0.797761         50.9311         27.6058         54.8306 
       0.810096         49.4447         26.6687         53.5144 
       0.822371         48.4114         25.7798         52.2983 
       0.834626         47.1484          24.933         51.4302 
       0.846916         46.1291         24.1222         50.3385 
       0.859215         44.8607         23.3472         49.2499 
       0.871383         44.2569         22.6142         48.3882 
        0.88363         43.1085         21.9084         47.5997 
       0.895928          42.113         21.2302         46.5659 
       0.908253         41.2395         20.5796         45.8227 
       0.920535         40.7238         19.9586           44.94 
       0.932774         39.9809         19.3655         44.1485 
        0.94508         39.2615         18.7936         43.2549 
       0.957324          38.332         18.2477          42.602 
        0.96953         37.8316         17.7253         41.7911 
       0.981769         36.8552         17.2221         41.2211 
       0.994071         36.2215         16.7362         40.5335 
         1.0064         35.4372         16.2682          39.862 
        1.01868         34.7412         15.8196         39.2763 
        1.03092         34.4141           15.39         38.6152 
         1.0432          33.665         14.9749         37.9069 
        1.05553         32.9606         14.5735         37.5961 
        1.06777         32.2697         14.1898          36.872 
           1.08         31.5401         13.8204         36.3047 
        1.09227         31.1962          13.463         35.8673 
         1.1046         30.7426         13.1169         35.2657 
         1.1169         30.3016         12.7837         34.7721 
        1.12915         29.8491         12.4638         34.3105 
        1.14142         29.1059         12.1541         33.8226 
        1.15365          28.792          11.856         33.3909 
        1.16585         28.3843         11.5687         32.9318 
        1.17807         27.8359         11.2906         32.3944 
        1.19037          27.647         11.0198         32.1368 
        1.20276          27.236         10.7561         31.6637 
        1.21504         26.6785         10.5032         31.3291 
        1.22728         26.2221         10.2594         30.8879 
        1.23954         25.9144         10.0229         30.4363 
        1.25184         25.4216         9.79335         30.1148 
        1.26414         25.1239         9.57093         29.7057 
        1.27632         24.8333         9.35744         29.3517 
         1.2886         24.5692         9.14898         29.0326 
        1.30093         24.0004         8.94616         28.7042 
        1.31316         23.7216         8.75097         28.3591 
        1.32541         23.4792         8.56159         28.0653 
        1.33772         23.0596         8.37678         27.7456 
        1.35005         22.7529         8.19732         27.4599 
        1.36225         22.4524         8.02495         27.1595 
        1.37447          21.978         7.85722         26.8174 
        1.38676         21.8423         7.69354         26.5774 
        1.39907         21.5046         7.53425          26.295 
        1.41133         21.1493         7.38018         25.9817 
        1.42358         20.9321         7.23056         25.7064 
        1.43591         20.6027         7.08408         25.4803 
        1.44818         20.3833         6.94248         25.2131 
        1.46037         20.2282         6.80559         24.9131 
        1.47263         19.9174         6.67164         24.7224 
        1.48494         19.7126         6.54079         24.4336 
        1.49724         19.5483         6.41356         24.2179 
        1.50952         19.1706         6.28999         24.0156 
        1.52178         18.9585         6.16985         23.7371 
        1.53409         18.6711         6.05238         23.5217 
        1.54637         18.5779         5.93821         23.2607 
        1.55858         18.2031         5.82764         23.0697 
        1.57081         18.0724         5.71974         22.8692 
        1.58313         17.8936          5.6139         22.6408 
        1.59544          17.577          5.5108         22.4592 
        1.60767         17.4155         5.41096         22.2197 
        1.61994         17.1279         5.31325         22.0479 
        1.63225         17.0698         5.21775         21.8886 
        1.64452         16.8046         5.12486         21.6978 
        1.65676         16.6275         5.03454         21.4751 
          1.669         16.4831         4.94632          21.299 
        1.68133         16.1754         4.85966          21.108 
        1.69363         16.0192         4.77534         20.8691 
        1.70585          15.833         4.69355         20.7708 
        1.71809         15.6539         4.61352          20.576 
        1.73038         15.4907          4.5351         20.4259 
        1.74268         15.3702         4.45846         20.2181 
        1.75493         15.0993         4.38395         20.0669 
        1.76714         15.0954         4.31133         19.9041 
        1.77942         14.9144         4.23999         19.7214 
        1.79173         14.6034         4.17008          19.586 
        1.80402         14.4915          4.1019         19.4537 
         1.8163         14.3754         4.03527         19.2705 
         1.8286         14.1767         3.97002         19.1374 
         1.8409          14.028         3.90627         18.9874 
        1.85315         13.9153         3.84413         18.8326 
        1.86537         13.7481         3.78346         18.6957 
        1.87765         13.6439         3.72388         18.5479 
        1.88995         13.4284         3.66545         18.4062 
        1.90221          13.344         3.60847         18.2541 
        1.91445         13.1956         3.55279         18.1253 
        1.92674         13.0562          3.4981         17.9873 
        1.93902          12.912         3.44456         17.8815 
        1.95124         12.7413         3.39243         17.7705 
         1.9635         12.6272         3.34124         17.6039 
        1.97583         12.5091         3.29079         17.4543 
        1.98812         12.4032         3.24157         17.3501 
        2.00039         12.3264         3.19345          17.227 
        2.01264         12.1921         3.14636         17.1177 
        2.02492         12.0669         3.10015         16.9699 
        2.03717         11.9157         3.05495          16.857 
        2.04942         11.7919          3.0107         16.7325 
        2.06171         11.7356         2.96718         16.6176 
        2.07397         11.6045         2.92462         16.5109 
        2.08629         11.5061         2.88272         16.4053 
        2.09857         11.4102         2.84174         16.2844 
        2.11081         11.2878         2.80172         16.1876 
        2.12309          11.143         2.76238         16.0568 
        2.13538         11.0282         2.72374         15.9456 
        2.14763          10.949         2.68596         15.8477 
        2.15986         10.9144         2.64899         15.7591 
        2.17214         10.7855         2.61257         15.6304 
        2.18443         10.6415          2.5768         15.5374 
        2.19671         10.6063         2.54174         15.4273 
        2.20898          10.473         2.50737         15.3372 
        2.22126         10.3526         2.47361         15.2332 
        2.23354         10.3149         2.44048         15.1215 
         2.2458         10.1847         2.40801         15.0507 
        2.25807         10.1016          2.3761         14.9252 
        2.27035         10.0274         2.34475         14.8376 
        2.28263         9.94404         2.31397         14.7377 
         2.2949         9.83674         2.28377         14.6545 
        2.30718         9.76866         2.25409         14.5761 
        2.31946         9.67131         2.22493         14.4753 
        2.33169         9.59036         2.19641         14.3872 
        2.34393         9.51247         2.16834         14.2941 
        2.35622         9.43719         2.14068         14.2091 
        2.36847         9.36037         2.11358         14.1181 
        2.38076         9.28593         2.08686         14.0314 
        2.39305         9.16484         2.06062         13.9361 
        2.40534         9.12268         2.03482         13.8431 
        2.41762         9.05562         2.00947         13.7815 
        2.42989          8.9931         1.98459         13.6927 
        2.44216         8.91116         1.96013         13.5987 
         2.4544         8.83561         1.93614         13.5214 
        2.46667         8.79872          1.9125         13.4459 
        2.47897         8.72564          1.8892         13.3519 
        2.49124         8.62101         1.86635         13.2762 
        2.50349         8.57421         1.84391         13.2017 
        2.51578         8.50599         1.82177         13.1322 
        2.52805         8.45337         1.80004         13.0552 
        2.54029         8.37573         1.77871         12.9809 
        2.55257         8.34899         1.75766         12.8995 
        2.56487         8.22855         1.73692         12.8165 
        2.57716         8.19385         1.71654         12.7466 
        2.58942         8.16289         1.69653         12.6819 
        2.60167         8.10774         1.67686         12.6084 
        2.61395         8.03757         1.65747         12.5341 
        2.62624          7.9781         1.63837         12.4627 
        2.63849         7.94147         1.61962         12.3984 
        2.65073         7.88872         1.60119         12.3189 
        2.66302         7.82518         1.58298         12.2475 
         2.6753         7.79337         1.56506         12.1772 
        2.68756         7.75291         1.54746         12.1215 
        2.69983         7.68618         1.53012         12.0401 
        2.71213          7.6494           1.513         11.9705 
        2.72441         7.58858         1.49618         11.9082 
        2.73665         7.59149         1.47965         11.8351 
         2.7489         7.53513         1.46339         11.7687 
        2.76118         7.46251         1.44731         11.7145 
        2.77349         7.43876         1.43144         11.6474 
        2.78576         7.41724         1.41588         11.5843 
        2.79802         7.36558         1.40055         11.5179 
        2.81031         7.34294         1.38541         11.4586 
        2.82259         7.28861          1.3705         11.3952 
        2.83483         7.25317         1.35587         11.3316 
         2.8471         7.23938         1.34142         11.2757 
         2.8594         7.22739         1.32714         11.2157 
         2.8717         7.17851         1.31307         11.1475 
        2.88396          7.1419         1.29926         11.0903 
        2.89619         7.09284         1.28568         11.0374 
        2.90847         7.08704         1.27223          10.972 
        2.92072         7.09326           1.259         10.9105 
        2.93299         7.04791         1.24595         10.8605 
        2.94526         7.03375         1.23308         10.8017 
        2.95753         7.00716         1.22039         10.7418 
        2.96982         6.97946         1.20786         10.6859 
        2.98209         6.97095         1.19553         10.6242 
        2.99436         6.97113         1.18336         10.5697 
        3.00666         6.96067         1.17134         10.5189 
        3.01894         6.92511         1.15951         10.4648 
        3.03119         6.92625         1.14786         10.4076 
        3.04345         6.91604         1.13637         10.3514 
        3.05573         6.91812         1.12501         10.2987 
          3.068         6.90811         1.11383         10.2479 
        3.08026         6.93104          1.1028         10.1935 
        3.09254          6.9204          1.0919         10.1405 
        3.10483         6.89552         1.08115          10.093 
         3.1171         6.91112         1.07056         10.0426 
        3.12933         6.92909         1.06014         9.98738 
        3.14159          6.9001         1.04984         9.93884 
