# k  (h/Mpc)    P(k)  (Mpc/h)^3    P_linear(k)  (Mpc/h)^3     P_NL(k)  ShotnoiseSubtracted = false
      0.0156606         13750.3           13704         13613.4 
      0.0273761         11820.1         11831.1         11742.8 
      0.0384619         8954.19         8906.62         8835.36 
      0.0498308         6943.71         7002.35         6933.16 
      0.0625568         5860.33         5949.18          5885.4 
      0.0751274         5180.82         5053.42          4961.6 
      0.0867833         4036.72         4068.02         4042.31 
      0.0984825         3366.17         3219.01         3250.51 
       0.111151          2857.3         2687.61         2722.79 
       0.123864         2563.75         2421.94         2451.11 
       0.135742          2323.7         2177.83         2207.63 
        0.14762          2005.9          1862.1         1939.62 
       0.160083         1680.63         1552.12          1644.3 
       0.172465         1498.22         1354.67         1470.67 
       0.184281         1373.07         1248.83         1367.91 
       0.196406         1271.18         1153.27         1254.98 
       0.209011         1175.34          1026.1         1133.59 
       0.221538         1060.19         896.707         1044.64 
       0.233611         995.262         802.313         968.695 
       0.245665         914.024         740.499         891.714 
       0.258103         876.431         689.336         839.388 
       0.270422         791.658         633.416         783.699 
       0.282519         734.463         574.857          733.08 
       0.294636         727.713         523.756         689.477 
       0.306978         652.401          484.56          656.45 
       0.319417         630.693         453.034         617.714 
        0.33169         594.174         422.858         582.034 
       0.343948         566.278         391.801         560.229 
       0.356249          531.76         362.676         536.496 
       0.368458         515.875          338.28         507.658 
        0.38068         496.833         317.882         485.578 
       0.392856         467.534         299.258         466.129 
       0.405069         448.263         281.047         451.133 
       0.417459          429.35         263.417         429.198 
       0.429752         417.005          247.59         413.491 
       0.441978         403.407         233.698         401.268 
       0.454294         380.431         221.083         383.419 
        0.46658         375.055         209.247         373.527 
       0.478753         361.859         198.081         360.703 
       0.490964         349.069         187.593          348.47 
       0.503334         329.552         177.913         338.882 
       0.515665         327.668         169.085         331.356 
       0.527909          316.58         160.936         321.138 
       0.540159         308.327         153.225         311.991 
        0.55248         302.301          145.91         303.105 
       0.564743         296.374         139.136         297.009 
        0.57686         285.151         132.911          288.06 
       0.589077         274.561         127.034         281.795 
       0.601441         271.326         121.446         275.165 
        0.61382         267.517         116.177         269.224 
       0.626067         262.024          111.26         263.095 
       0.638306         250.051          106.63         257.999 
       0.650632         244.828         102.243         250.184 
       0.662899         243.577         98.1328         246.547 
       0.675076         234.365         94.2803         241.387 
       0.687267         228.457         90.6299         235.986 
       0.699615         224.586         87.1271         231.582 
       0.711937         220.245         83.8158         227.268 
       0.724148          214.75         80.7047         223.858 
       0.736433         210.074         77.7361         219.013 
       0.748747         205.985         74.9124         214.704 
       0.761037         202.697         72.2358          210.81 
       0.773197         199.251         69.7177         208.225 
       0.785376         196.889         67.3168         203.967 
       0.797761          192.24         64.9917          201.25 
       0.810096         189.042         62.7857         197.863 
       0.822371         182.092         60.6929         194.567 
       0.834626         181.067         58.6993         191.403 
       0.846916         178.101         56.7905         188.613 
       0.859215         177.088          54.966         185.744 
       0.871383         172.658         53.2401         182.698 
        0.88363          170.52         51.5785         180.723 
       0.895928         166.773         49.9819         178.049 
       0.908253          162.19         48.4502         174.908 
       0.920535         161.634         46.9881         172.615 
       0.932774         156.286         45.5918          170.01 
        0.94508         155.069         44.2454         168.123 
       0.957324          154.37         42.9603         165.585 
        0.96953         152.603         41.7304         163.022 
       0.981769         147.867         40.5457         161.572 
       0.994071         147.152         39.4016          159.37 
         1.0064         143.562         38.2999         156.952 
        1.01868         141.852         37.2438         155.238 
        1.03092         139.566         36.2324         153.451 
         1.0432         136.936          35.255         151.486 
        1.05553         134.396         34.3101         149.823 
        1.06777         134.167         33.4068         148.243 
           1.08          131.12         32.5371         146.255 
        1.09227         129.676         31.6956         144.775 
         1.1046         127.467         30.8809         143.016 
         1.1169          125.88         30.0964         141.088 
        1.12915          123.84         29.3432         139.643 
        1.14142         121.945         28.6142         137.849 
        1.15365         120.119         27.9123          136.38 
        1.16585         118.474         27.2358         134.662 
        1.17807          116.66         26.5811         133.666 
        1.19037         116.229         25.9436          132.24 
        1.20276         113.724         25.3228         130.635 
        1.21504         112.559         24.7273         129.186 
        1.22728         110.257         24.1535         127.731 
        1.23954         109.519         23.5966         126.513 
        1.25184         107.178         23.0562         125.166 
        1.26414         105.882         22.5326          123.89 
        1.27632          105.12           22.03         123.226 
         1.2886         103.167         21.5392         121.394 
        1.30093         101.028         21.0617         120.092 
        1.31316         100.576         20.6022         118.967 
        1.32541         99.1684         20.1563         117.989 
        1.33772         97.9725         19.7212         116.743 
        1.35005         96.8309         19.2987         115.491 
        1.36225         95.5576         18.8929         114.437 
        1.37447         93.5919         18.4981         113.201 
        1.38676         93.2958         18.1127         111.972 
        1.39907         91.1987         17.7377         111.089 
        1.41133         89.9044          17.375           110.2 
        1.42358         88.8375         17.0227         109.006 
        1.43591          88.241         16.6779         107.866 
        1.44818         87.1531         16.3445         106.944 
        1.46037         85.6677         16.0222         105.952 
        1.47263         84.2991         15.7069         105.128 
        1.48494         83.7429         15.3988         104.044 
        1.49724         82.2922         15.0993          102.94 
        1.50952         81.1785         14.8084         102.034 
        1.52178         80.3023         14.5255         101.173 
        1.53409         79.5729          14.249         100.285 
        1.54637         77.7114         13.9802         99.3425 
        1.55858         76.9802         13.7199         98.4112 
        1.57081         75.9853         13.4658         97.5923 
        1.58313          74.941         13.2167          96.736 
        1.59544         74.1428         12.9739         95.8369 
        1.60767         73.1379         12.7389         94.9808 
        1.61994         72.1861         12.5088         94.3609 
        1.63225         71.0843          12.284         93.2393 
        1.64452         70.2304         12.0653         92.5474 
        1.65676         69.1847         11.8527         91.7195 
          1.669         68.7025          11.645         90.9797 
        1.68133          67.905          11.441         90.1382 
        1.69363         66.8924         11.2424         89.4699 
        1.70585         66.2298         11.0499         88.6321 
        1.71809         64.9367         10.8615         88.0032 
        1.73038         64.2332         10.6769         87.1345 
        1.74268         63.3131         10.4964         86.4523 
        1.75493         62.7657          10.321         85.6767 
        1.76714         61.7912         10.1501         84.9528 
        1.77942         61.4373         9.98209         84.2451 
        1.79173         60.3583         9.81751         83.4978 
        1.80402         59.6975         9.65698         82.8964 
         1.8163         58.9731         9.50014         82.0857 
         1.8286           58.09         9.34651         81.5544 
         1.8409         57.2088         9.19641            80.8 
        1.85315         56.4774         9.05012         80.2685 
        1.86537         55.9213          8.9073         79.5412 
        1.87765         55.2218         8.76704         78.7786 
        1.88995         54.5307         8.62946         78.2105 
        1.90221         54.0318         8.49532         77.5634 
        1.91445          53.098         8.36424         76.9877 
        1.92674         52.6018         8.23549         76.3513 
        1.93902         51.9425         8.10944         75.6848 
        1.95124          51.538          7.9867         75.1982 
         1.9635         50.5568         7.86619          74.477 
        1.97583         50.0647         7.74741         73.9896 
        1.98812         49.3821         7.63153         73.3295 
        2.00039         48.8467         7.51826         72.7502 
        2.01264         48.1175         7.40739         72.1901 
        2.02492         47.5747          7.2986         71.6488 
        2.03717         46.9378         7.19217         71.0155 
        2.04942         46.3331         7.08801          70.534 
        2.06171         45.7694         6.98556         69.9061 
        2.07397         45.1453         6.88536         69.4342 
        2.08629         44.6503         6.78671         68.8263 
        2.09857          44.279         6.69022         68.3533 
        2.11081         43.3694         6.59601         67.7584 
        2.12309         43.0403         6.50339         67.2641 
        2.13538         42.5196         6.41242          66.757 
        2.14763         42.1059         6.32349         66.2502 
        2.15986         41.6927         6.23645         65.7231 
        2.17214         40.9703          6.1507         65.2956 
        2.18443         40.7682         6.06648         64.7392 
        2.19671         40.0062         5.98394         64.2162 
        2.20898         39.6331         5.90304         63.7286 
        2.22126         39.1879         5.82355          63.236 
        2.23354         38.6586         5.74554         62.8188 
         2.2458         38.3212          5.6691         62.3383 
        2.25807         37.8372         5.59399         61.8295 
        2.27035         37.3634         5.52017         61.3784 
        2.28263         36.8825         5.44772         60.9197 
         2.2949         36.3751         5.37661         60.4813 
        2.30718         36.0696         5.30674         60.0408 
        2.31946         35.5599         5.23809         59.6123 
        2.33169         35.2135         5.17094         59.1446 
        2.34393         34.6732         5.10487         58.6941 
        2.35622         34.3677         5.03974         58.2797 
        2.36847         33.9276         4.97593         57.8355 
        2.38076         33.7064         4.91304         57.4402 
        2.39305         33.2736         4.85125         57.0232 
        2.40534         32.9063         4.79052         56.5384 
        2.41762         32.5153         4.73083         56.1347 
        2.42989         32.0557         4.67226         55.7722 
        2.44216         31.8224         4.61468         55.3498 
         2.4544         31.5211         4.55821         54.9663 
        2.46667         30.9639         4.50255         54.5301 
        2.47897         30.7434         4.44768         54.1617 
        2.49124         30.3658         4.39389         53.7634 
        2.50349         30.0078         4.34106         53.4062 
        2.51578         29.6664         4.28894         53.0324 
        2.52805         29.4753         4.23777         52.6269 
        2.54029         29.2045         4.18756         52.2637 
        2.55257         28.8162         4.13801         51.9028 
        2.56487         28.5275         4.08918         51.5356 
        2.57716         28.2562          4.0412         51.1937 
        2.58942         27.8728         3.99409         50.8241 
        2.60167         27.5536         3.94778         50.4299 
        2.61395         27.3182         3.90214         50.0971 
        2.62624         27.0685         3.85716          49.753 
        2.63849         26.8397         3.81303         49.4032 
        2.65073         26.5252         3.76963         49.0372 
        2.66302         26.2146         3.72676         48.7247 
         2.6753         25.9645         3.68458         48.3839 
        2.68756         25.6745         3.64314         48.0474 
        2.69983         25.4831         3.60231         47.7171 
        2.71213         25.1278         3.56201         47.4021 
        2.72441         25.0324         3.52241         47.0523 
        2.73665         24.7616          3.4835         46.7343 
         2.7489         24.5857         3.44521         46.4226 
        2.76118         24.3372         3.40737         46.0833 
        2.77349         24.1314         3.37001         45.7964 
        2.78576         23.9521         3.33335         45.4763 
        2.79802         23.6458         3.29726         45.1665 
        2.81031         23.4779         3.26163         44.8781 
        2.82259         23.2953         3.22653         44.5592 
        2.83483         23.0487         3.19208         44.2542 
         2.8471         22.9443         3.15807         43.9627 
         2.8594         22.6944         3.12445         43.6842 
         2.8717         22.4683         3.09133         43.3816 
        2.88396         22.3876         3.05882          43.078 
        2.89619         22.2378         3.02683          42.797 
        2.90847         22.0606         2.99518         42.5091 
        2.92072         21.9113         2.96403         42.2446 
        2.93299         21.8211         2.93331         41.9542 
        2.94526         21.6641           2.903          41.684 
        2.95753         21.4783         2.87313         41.4238 
        2.96982         21.4646         2.84362         41.1475 
        2.98209         21.2539          2.8146         40.8797 
        2.99436         21.1512         2.78595         40.6149 
        3.00666         21.0272         2.75765         40.3476 
        3.01894         20.9682          2.7298         40.0712 
        3.03119         20.7903         2.70237         39.8053 
        3.04345         20.6978         2.67532         39.5572 
        3.05573         20.6253         2.64859         39.3087 
          3.068         20.5953         2.62224         39.0467 
        3.08026         20.5772         2.59629         38.7928 
        3.09254          20.446         2.57064         38.5541 
        3.10483         20.4448         2.54533         38.3133 
         3.1171         20.3564         2.52039         38.0662 
        3.12933         20.3474         2.49586         37.8229 
        3.14159         20.3304          2.4716         37.5775 
