# k  (h/Mpc)    Pcb(k)  (Mpc/h)^3    Pcb_linear(k) (Mpc/h)^3    Pcb_NL(k) (Mpc/h)^3   ShotnoiseSubtracted = false
      0.0156606         19628.6         19727.1         19577.7 
      0.0273761         16842.4           17056         16884.6 
      0.0384619         12745.5         12849.7           12700 
      0.0498308         9854.44           10107          9957.3 
      0.0625568         8324.94         8589.63         8455.53 
      0.0751274         7403.68         7297.77          7108.6 
      0.0867833         5742.58         5875.49         5817.81 
      0.0984825         4838.91         4649.68         4703.93 
       0.111151          4132.3         3882.38          3948.2 
       0.123864         3703.96          3498.8          3552.3 
       0.135742         3372.42         3146.29         3200.17 
        0.14762         2931.03         2690.23         2833.39 
       0.160083         2481.48         2242.46         2417.73 
       0.172465         2213.54         1957.24         2180.03 
       0.184281         2011.83         1804.34          2028.8 
       0.196406         1889.17          1666.3         1866.75 
       0.209011         1763.23         1482.58          1690.8 
       0.221538         1589.31         1295.63         1575.04 
       0.233611         1517.21         1159.26         1473.22 
       0.245665         1378.21         1069.95         1359.38 
       0.258103         1356.45         996.029         1282.76 
       0.270422         1211.85         915.235         1203.69 
       0.282519         1140.47         830.627         1136.74 
       0.294636         1123.74         756.793         1075.44 
       0.306978         1022.19          700.16         1029.41 
       0.319417         998.792         654.609         970.185 
        0.33169         940.102         611.007         917.715 
       0.343948          900.37         566.134         888.678 
       0.356249         851.597          524.05         854.915 
       0.368458         821.087         488.802         815.167 
        0.38068         804.121         459.324         783.247 
       0.392856         762.154         432.416         755.002 
       0.405069         725.296         406.104         731.297 
       0.417459         697.535         380.628         703.249 
       0.429752         689.931         357.758         678.535 
       0.441978         666.089         337.686         660.803 
       0.454294         635.379         319.459         633.427 
        0.46658         618.366         302.357         619.938 
       0.478753         605.113         286.223           600.6 
       0.490964         581.911         271.068         581.956 
       0.503334         555.213          257.08         568.361 
       0.515665         553.951         244.324         555.865 
       0.527909         531.908         232.549         543.106 
       0.540159         518.559         221.409         528.784 
        0.55248         508.519         210.838         514.899 
       0.564743         504.421          201.05          506.05 
        0.57686         486.096         192.054         492.342 
       0.589077         474.529         183.562         481.349 
       0.601441         466.543         175.487         471.548 
        0.61382           454.8         167.874         463.303 
       0.626067         449.387         160.769         454.166 
       0.638306          432.32         154.079         445.213 
       0.650632          427.81         147.741         433.835 
       0.662899         424.137         141.801         428.757 
       0.675076         408.972         136.234         422.178 
       0.687267         398.278         130.959         412.103 
       0.699615         394.977         125.898         405.564 
       0.711937         388.564         121.113         398.141 
       0.724148         375.604         116.618          392.49 
       0.736433         366.968         112.328         385.222 
       0.748747          362.32         108.248         378.266 
       0.761037         355.623          104.38         373.319 
       0.773197         351.242         100.742         367.593 
       0.785376         346.039         97.2724         362.003 
       0.797761         336.487         93.9128         356.298 
       0.810096         333.858         90.7252         351.827 
       0.822371         323.152          87.701          346.04 
       0.834626          321.23         84.8203         341.641 
       0.846916         314.817         82.0621           336.4 
       0.859215         313.689         79.4257         331.583 
       0.871383         305.815         76.9319          327.02 
        0.88363         303.841         74.5309         323.668 
       0.895928          298.04         72.2238          318.54 
       0.908253         290.578         70.0104          313.43 
       0.920535         287.352         67.8978         309.602 
       0.932774         281.018         65.8801         305.154 
        0.94508         277.449         63.9346         301.989 
       0.957324          276.02         62.0776         297.842 
        0.96953         272.104         60.3003         294.092 
       0.981769         264.767         58.5885         290.996 
       0.994071         263.869         56.9354         287.358 
         1.0064         258.355         55.3434         283.149 
        1.01868         255.442         53.8173         279.565 
        1.03092         248.423         52.3558         277.004 
         1.0432         245.284         50.9435         273.642 
        1.05553         242.349         49.5781         269.976 
        1.06777         240.922         48.2728         267.102 
           1.08         235.173         47.0161         264.014 
        1.09227         233.202         45.8002         260.887 
         1.1046         229.487          44.623         258.324 
         1.1169         224.371         43.4894         254.816 
        1.12915         221.503         42.4009         252.462 
        1.14142          217.71         41.3475         249.303 
        1.15365          214.94         40.3333         246.674 
        1.16585         211.409         39.3558         243.708 
        1.17807         209.111         38.4097         241.482 
        1.19037         206.616         37.4886         239.298 
        1.20276         203.747         36.5915           236.2 
        1.21504         199.431          35.731         233.615 
        1.22728         196.224         34.9018         230.712 
        1.23954         195.455         34.0971         228.894 
        1.25184         191.483         33.3163         226.367 
        1.26414         187.966         32.5596         224.126 
        1.27632         187.167         31.8334         222.318 
         1.2886         185.628         31.1242         219.589 
        1.30093          180.46         30.4342         217.011 
        1.31316         177.331         29.7702         214.642 
        1.32541         176.152         29.1259         212.753 
        1.33772         174.118         28.4972         210.607 
        1.35005         171.514         27.8867         208.245 
        1.36225         168.626         27.3003         206.321 
        1.37447          166.34         26.7297         203.798 
        1.38676         164.476         26.1729         202.209 
        1.39907         161.893          25.631         199.927 
        1.41133         159.245         25.1069          198.01 
        1.42358         157.373         24.5979         196.144 
        1.43591         155.559         24.0996         194.173 
        1.44818          153.04         23.6178         192.314 
        1.46037         151.243         23.1522         190.285 
        1.47263         149.043         22.6965         188.717 
        1.48494         147.021         22.2513         186.401 
        1.49724         144.993         21.8185         185.023 
        1.50952          142.36         21.3981         183.131 
        1.52178         141.666         20.9894         181.132 
        1.53409         138.664         20.5898         179.626 
        1.54637         137.066         20.2014         178.134 
        1.55858         134.885         19.8253         176.194 
        1.57081         132.935         19.4582         174.665 
        1.58313         131.196         19.0981         172.884 
        1.59544         129.053         18.7474         171.361 
        1.60767         128.044         18.4077         169.785 
        1.61994         125.721         18.0753         168.327 
        1.63225         124.169         17.7504         166.482 
        1.64452         121.962         17.4345         164.991 
        1.65676         120.243         17.1272         163.591 
          1.669         119.379         16.8271         162.158 
        1.68133         116.884         16.5323         160.674 
        1.69363         115.252         16.2454         159.239 
        1.70585         113.285         15.9672         157.832 
        1.71809         111.971         15.6949         156.151 
        1.73038         111.175         15.4281         154.904 
        1.74268         109.996         15.1674         153.422 
        1.75493         107.234         14.9139         152.116 
        1.76714         106.522         14.6669         150.864 
        1.77942         104.754         14.4242          149.34 
        1.79173          103.22         14.1863         148.117 
        1.80402         102.373         13.9544          146.81 
         1.8163         100.208         13.7277          145.51 
         1.8286         98.9542         13.5057         144.182 
         1.8409         98.2854         13.2889         142.852 
        1.85315         96.3962         13.0775         141.707 
        1.86537         95.4513         12.8711         140.531 
        1.87765         94.4288         12.6684         139.324 
        1.88995         92.8095         12.4696         138.074 
        1.90221         91.5775         12.2758         136.934 
        1.91445         90.4726         12.0864         135.637 
        1.92674         88.9975         11.9003         134.498 
        1.93902         87.8278         11.7182         133.293 
        1.95124         86.8812         11.5408         132.183 
         1.9635         85.4564         11.3667         130.998 
        1.97583         84.1992          11.195         129.954 
        1.98812         83.1594         11.0276         128.916 
        2.00039         82.1875         10.8639         127.747 
        2.01264         81.2047         10.7037         126.693 
        2.02492         80.3244         10.5465         125.576 
        2.03717         78.9414         10.3927         124.537 
        2.04942         78.4647         10.2422         123.574 
        2.06171         76.6834         10.0942           122.5 
        2.07397         75.8942         9.94937         121.523 
        2.08629         75.0109         9.80682         120.468 
        2.09857         73.9176          9.6674         119.501 
        2.11081         72.7032         9.53127         118.396 
        2.12309         71.7427         9.39743         117.566 
        2.13538           70.89         9.26597         116.533 
        2.14763         69.9855         9.13747         115.604 
        2.15986          68.893          9.0117         114.596 
        2.17214         68.2294         8.88779         113.663 
        2.18443         67.3733          8.7661         112.901 
        2.19671         66.1839         8.64683         111.933 
        2.20898         65.6788         8.52992          110.96 
        2.22126         64.7153         8.41505          110.09 
        2.23354         63.9987         8.30233         109.231 
         2.2458         62.8965         8.19188         108.369 
        2.25807          62.137         8.08334         107.468 
        2.27035         61.3683         7.97667          106.59 
        2.28263         60.5525         7.87198         105.758 
         2.2949         59.7707         7.76922         104.931 
        2.30718         58.7874         7.66827         104.124 
        2.31946         58.4452         7.56906         103.243 
        2.33169         57.3871         7.47203         102.456 
        2.34393         56.8796         7.37656         101.704 
        2.35622         55.9266         7.28245         100.892 
        2.36847         55.5148         7.19025         100.203 
        2.38076         54.5629         7.09936         99.2901 
        2.39305         53.9697         7.01007         98.6184 
        2.40534          53.325         6.92232          97.806 
        2.41762         52.7127         6.83608         97.0078 
        2.42989         51.9494         6.75143         96.3314 
        2.44216         51.3936         6.66823         95.5363 
         2.4544         50.6599         6.58663         94.8256 
        2.46667         50.1025          6.5062         94.0857 
        2.47897         49.5585         6.42692         93.3475 
        2.49124         48.9632         6.34919         92.6817 
        2.50349         48.6272         6.27285         91.9583 
        2.51578         47.7871         6.19754         91.3563 
        2.52805         47.2688          6.1236         90.5916 
        2.54029         46.8015         6.05104         89.8694 
        2.55257         46.1662         5.97945         89.2563 
        2.56487         45.8316         5.90888         88.6306 
        2.57716         45.1269         5.83955         87.9665 
        2.58942         44.5189         5.77148         87.2958 
        2.60167         44.1296         5.70457         86.6632 
        2.61395         43.5325         5.63862         86.0313 
        2.62624          43.141         5.57361         85.3395 
        2.63849         42.5985         5.50984         84.7361 
        2.65073         42.2356         5.44714          84.114 
        2.66302         41.6854         5.38518          83.481 
         2.6753         41.2607         5.32423         82.9024 
        2.68756          40.822         5.26435          82.278 
        2.69983         40.3526         5.20535           81.72 
        2.71213         39.9709         5.14712         81.1365 
        2.72441         39.5753          5.0899         80.5387 
        2.73665         39.0203         5.03368         79.9716 
         2.7489         38.7473         4.97834         79.4054 
        2.76118         38.3105         4.92366         78.8394 
        2.77349         37.9233         4.86967         78.2775 
        2.78576          37.614         4.81671          77.687 
        2.79802         37.2387         4.76456         77.2171 
        2.81031         36.7723         4.71307         76.6485 
        2.82259         36.6716         4.66235         76.0801 
        2.83483         36.1681         4.61257         75.5929 
         2.8471         35.8455         4.56343         75.0493 
         2.8594         35.5398         4.51485         74.5033 
         2.8717         35.3816         4.46699         74.0125 
        2.88396         34.9495            4.42         73.4897 
        2.89619         34.7996         4.37378         72.9413 
        2.90847         34.3804         4.32804         72.4263 
        2.92072         34.1905         4.28304         71.9693 
        2.93299         34.0175         4.23865         71.4863 
        2.94526         33.6487         4.19485         70.9945 
        2.95753          33.437         4.15168         70.4973 
        2.96982         33.2049         4.10905         70.0215 
        2.98209          32.942          4.0671         69.5607 
        2.99436         32.6953          4.0257          69.054 
        3.00666          32.672         3.98481         68.5975 
        3.01894         32.3245         3.94457         68.1276 
        3.03119         32.2768         3.90494         67.6881 
        3.04345         32.1442         3.86585         67.2564 
        3.05573         31.7787         3.82722         66.8014 
          3.068         31.7871         3.78915         66.3542 
        3.08026         31.6016         3.75165         65.9075 
        3.09254         31.5263         3.71458         65.4788 
        3.10483         31.4828         3.67801         65.0536 
         3.1171         31.2736         3.64197         64.6207 
        3.12933         31.2041         3.60652         64.1867 
        3.14159         31.0717         3.57147         63.7484 
