# k  (h/Mpc)    Pcb(k)  (Mpc/h)^3    Pcb_linear(k) (Mpc/h)^3    Pcb_NL(k) (Mpc/h)^3   ShotnoiseSubtracted = false
      0.0156606         490.239         490.888         488.643 
      0.0273761         427.598         424.996         424.172 
      0.0384619         324.722         320.367         320.403 
      0.0498308         255.675         252.065         252.277 
      0.0625568         215.829         214.264         214.197 
      0.0751274         184.589          182.06         181.814 
      0.0867833         147.889         146.588         146.567 
      0.0984825         118.391         116.011         116.184 
       0.111151          98.898         96.8705         97.0187 
       0.123864         88.7694          87.302         87.3387 
       0.135742         79.6387         78.5076         78.5117 
        0.14762         67.7918         67.1289         67.2515 
       0.160083         56.4715         55.9564          56.137 
       0.172465          49.399         48.8397         49.0459 
       0.184281          45.665         45.0247         45.2216 
       0.196406         41.8411         41.5804           41.71 
       0.209011         37.4011         36.9961         37.1583 
       0.221538         32.8923         32.3313         32.5813 
       0.233611         29.4417         28.9282         29.2069 
       0.245665         27.4018         26.6997         26.9399 
       0.258103          24.978         24.8552         25.0879 
       0.270422         23.2373         22.8391         23.0607 
       0.282519         21.0882         20.7278         20.9755 
       0.294636         19.5185         18.8854         19.1487 
       0.306978         17.6365         17.4721         17.7422 
       0.319417         16.6621         16.3355          16.596 
        0.33169         15.5101         15.2474         15.4969 
       0.343948         14.5011         14.1276         14.3752 
       0.356249         13.2983         13.0775          13.366 
       0.368458         12.5109         12.1979         12.4504 
        0.38068         11.6768         11.4623         11.7135 
       0.392856         10.9909         10.7908         11.0442 
       0.405069         10.3714         10.1342         10.3722 
       0.417459         9.57957         9.49847         9.75157 
       0.429752         9.08645         8.92777         9.17588 
       0.441978         8.62135         8.42688         8.69117 
       0.454294         8.08967         7.97203         8.22096 
        0.46658         7.77801         7.54526         7.78751 
       0.478753         7.30667         7.14264         7.38263 
       0.490964         6.98886         6.76446         7.02127 
       0.503334         6.64932         6.41538         6.65371 
       0.515665         6.25981         6.09707         6.34895 
       0.527909         6.00099         5.80322         6.03494 
       0.540159         5.68004         5.52522         5.75239 
        0.55248         5.36884         5.26143          5.4774 
       0.564743         5.22277         5.01717         5.25183 
        0.57686         4.97804         4.79268         5.01672 
       0.589077          4.6907         4.58077         4.81391 
       0.601441         4.50866         4.37926         4.60632 
        0.61382         4.31636         4.18927         4.40751 
       0.626067         4.12136         4.01198         4.22753 
       0.638306         3.96961         3.84503         4.05611 
       0.650632         3.84044         3.68685         3.90154 
       0.662899         3.67509         3.53863         3.74497 
       0.675076         3.49488         3.39971         3.60622 
       0.687267         3.35883         3.26808         3.46296 
       0.699615         3.27207         3.14177         3.33446 
       0.711937         3.12284         3.02237         3.22105 
       0.724148         3.03914         2.91019         3.10353 
       0.736433          2.8985         2.80314         2.98781 
       0.748747         2.80005         2.70132         2.89441 
       0.761037         2.70124          2.6048         2.79048 
       0.773197         2.59573           2.514         2.70267 
       0.785376         2.50246         2.42743         2.61045 
       0.797761         2.41919         2.34359         2.51928 
       0.810096          2.3604         2.26404         2.44643 
       0.822371          2.2925         2.18857          2.3618 
       0.834626         2.21444         2.11669         2.28593 
       0.846916         2.13668         2.04786         2.22366 
       0.859215         2.04858         1.98206         2.15728 
       0.871383         1.98768         1.91983         2.08884 
        0.88363         1.93081         1.85991         2.02812 
       0.895928         1.88327         1.80234         1.96652 
       0.908253          1.8247         1.74711          1.9105 
       0.920535         1.77154         1.69439         1.85294 
       0.932774          1.7134         1.64403         1.79773 
        0.94508         1.66836         1.59549         1.74858 
       0.957324         1.62419         1.54914         1.70481 
        0.96953         1.56834         1.50479         1.65709 
       0.981769         1.51828         1.46207         1.60817 
       0.994071         1.48329         1.42082         1.57175 
         1.0064         1.44045         1.38109         1.52715 
        1.01868         1.39716         1.34301         1.48832 
        1.03092         1.37471         1.30654         1.44676 
         1.0432         1.33104         1.27129         1.41094 
        1.05553         1.29435         1.23722         1.37761 
        1.06777         1.25734         1.20465         1.34323 
           1.08         1.23175         1.17329          1.3091 
        1.09227         1.18965         1.14294         1.27619 
         1.1046         1.16276         1.11357         1.24721 
         1.1169         1.13237         1.08528         1.21718 
        1.12915         1.10486         1.05811         1.18805 
        1.14142          1.0828         1.03183         1.16046 
        1.15365         1.05675         1.00652         1.13394 
        1.16585         1.02982        0.982124         1.10686 
        1.17807         1.01325        0.958513         1.08372 
        1.19037        0.973809        0.935527         1.05758 
        1.20276        0.956444        0.913141         1.03205 
        1.21504        0.936765        0.891667         1.01388 
        1.22728        0.919893        0.870975        0.987891 
        1.23954        0.896171        0.850892        0.969608 
        1.25184        0.880156        0.831407         0.94665 
        1.26414        0.858732        0.812526        0.926493 
        1.27632        0.833274        0.794401        0.906869 
         1.2886         0.81541        0.776704        0.886664 
        1.30093        0.794307        0.759485        0.871482 
        1.31316        0.772255        0.742915        0.852323 
        1.32541        0.760176        0.726837        0.836168 
        1.33772        0.747149        0.711148        0.819195 
        1.35005        0.734274        0.695912        0.803175 
        1.36225        0.716586        0.681279        0.786306 
        1.37447         0.70147         0.66704        0.772375 
        1.38676        0.688276        0.653144        0.756012 
        1.39907         0.67376        0.639622        0.742127 
        1.41133        0.656956        0.626542        0.728077 
        1.42358        0.648805         0.61384        0.712749 
        1.43591        0.634346        0.601405        0.701541 
        1.44818        0.621853        0.589383        0.688908 
        1.46037        0.608011        0.577762        0.674494 
        1.47263        0.596776         0.56639        0.663078 
        1.48494        0.586063        0.555282        0.651779 
        1.49724        0.574825        0.544481         0.64016 
        1.50952        0.562404         0.53399        0.626327 
        1.52178        0.551938        0.523791        0.615935 
        1.53409        0.542856        0.513818        0.605642 
        1.54637        0.529467        0.504126        0.594408 
        1.55858        0.522187        0.494739        0.584213 
        1.57081        0.515116        0.485579        0.573808 
        1.58313        0.503776        0.476594        0.564817 
        1.59544        0.495785        0.467841        0.554693 
        1.60767        0.486975        0.459365        0.545519 
        1.61994        0.476358         0.45107         0.53721 
        1.63225        0.467459        0.442962        0.528322 
        1.64452        0.461403        0.435077        0.518962 
        1.65676         0.45422        0.427408         0.51082 
          1.669        0.446357        0.419919        0.502145 
        1.68133        0.437242        0.412562        0.494444 
        1.69363        0.429802        0.405403         0.48677 
        1.70585        0.423103         0.39846        0.478669 
        1.71809        0.415177        0.391666        0.471077 
        1.73038        0.408701        0.385009        0.464039 
        1.74268        0.400321        0.378503        0.456102 
        1.75493        0.397146        0.372177        0.450101 
        1.76714        0.388595        0.366012        0.442996 
        1.77942          0.3829        0.359955        0.436362 
        1.79173        0.376915         0.35402        0.428852 
        1.80402        0.370325        0.348232        0.423067 
         1.8163        0.365392        0.342576         0.41565 
         1.8286        0.357449        0.337036        0.411167 
         1.8409        0.353611        0.331623        0.404181 
        1.85315        0.348424        0.326348        0.398285 
        1.86537        0.340701        0.321198        0.392501 
        1.87765        0.336404         0.31614        0.387041 
        1.88995        0.332698        0.311179        0.381679 
        1.90221        0.327747        0.306342        0.375952 
        1.91445        0.322094        0.301615        0.370867 
        1.92674        0.316896        0.296972        0.365523 
        1.93902        0.311356        0.292427        0.360098 
        1.95124          0.3069        0.288001         0.35514 
         1.9635        0.303507        0.283656        0.350104 
        1.97583        0.299147        0.279372        0.345208 
        1.98812        0.294618        0.275194        0.341034 
        2.00039         0.29161        0.271109        0.335944 
        2.01264        0.287105        0.267111        0.331681 
        2.02492        0.283229        0.263188        0.327089 
        2.03717        0.277614         0.25935        0.322766 
        2.04942        0.275193        0.255594        0.318341 
        2.06171        0.270884          0.2519        0.314093 
        2.07397        0.266531        0.248287        0.310123 
        2.08629        0.263991        0.244729        0.305926 
        2.09857        0.259787         0.24125        0.302035 
        2.11081        0.255878        0.237853        0.297648 
        2.12309        0.252846        0.234513        0.294528 
        2.13538        0.249235        0.231232        0.290502 
        2.14763        0.246782        0.228026        0.286976 
        2.15986        0.242637        0.224887        0.283417 
        2.17214        0.239818        0.221795        0.279773 
        2.18443        0.237386        0.218758        0.276224 
        2.19671        0.233781        0.215782        0.273055 
        2.20898        0.231559        0.212864        0.269376 
        2.22126        0.227696        0.209998         0.26633 
        2.23354        0.225713        0.207185        0.263169 
         2.2458          0.2229        0.204428        0.259328 
        2.25807        0.220291         0.20172        0.256703 
        2.27035        0.216993        0.199058        0.253598 
        2.28263        0.214467        0.196445        0.250668 
         2.2949         0.21234        0.193881        0.247347 
        2.30718        0.209187        0.191362        0.244545 
        2.31946        0.207973        0.188886        0.241766 
        2.33169        0.204295        0.186465        0.238894 
        2.34393         0.20199        0.184082        0.236352 
        2.35622        0.200163        0.181734         0.23341 
        2.36847        0.198453        0.179433        0.230785 
        2.38076        0.195924        0.177165        0.228209 
        2.39305        0.193307        0.174937         0.22552 
        2.40534        0.191076        0.172747        0.222947 
        2.41762        0.189696        0.170594        0.220451 
        2.42989        0.186935        0.168482         0.21789 
        2.44216         0.18499        0.166406        0.215567 
         2.4544        0.183125        0.164369        0.213249 
        2.46667        0.180972        0.162362        0.210723 
        2.47897        0.178956        0.160384        0.208375 
        2.49124        0.177191        0.158444        0.206156 
        2.50349        0.175463        0.156539        0.203803 
        2.51578        0.173376         0.15466        0.201563 
        2.52805        0.172138        0.152814        0.199472 
        2.54029        0.170775        0.151004        0.197404 
        2.55257        0.168694        0.149217        0.195337 
        2.56487         0.16708        0.147456        0.193238 
        2.57716        0.165622        0.145726        0.191119 
        2.58942        0.163839        0.144027        0.189023 
        2.60167        0.162429        0.142358        0.187119 
        2.61395        0.161068        0.140712        0.185155 
        2.62624        0.159377         0.13909        0.183263 
        2.63849        0.158076        0.137498        0.181373 
        2.65073         0.15625        0.135933        0.179494 
        2.66302        0.155307        0.134387        0.177569 
         2.6753        0.153781        0.132866        0.175795 
        2.68756        0.152883        0.131372        0.174046 
        2.69983        0.151201          0.1299        0.172058 
        2.71213        0.149718        0.128447        0.170489 
        2.72441        0.148451        0.127018        0.168863 
        2.73665        0.147457        0.125616        0.167148 
         2.7489        0.147151        0.124234        0.165494 
        2.76118        0.145846         0.12287        0.163822 
        2.77349        0.144069        0.121523        0.162294 
        2.78576        0.143475        0.120201        0.160809 
        2.79802        0.142017          0.1189        0.158915 
        2.81031        0.141308        0.117615        0.157504 
        2.82259        0.140123        0.116349        0.155987 
        2.83483        0.138966        0.115107        0.154375 
         2.8471        0.138236         0.11388        0.153088 
         2.8594        0.137768        0.112668        0.151653 
         2.8717        0.136542        0.111474        0.150085 
        2.88396        0.136113        0.110301        0.148741 
        2.89619        0.135233        0.109148        0.147385 
        2.90847        0.134472        0.108006        0.145949 
        2.92072          0.1333        0.106883         0.14451 
        2.93299        0.132821        0.105776        0.143183 
        2.94526        0.132101        0.104683        0.141913 
        2.95753        0.131048        0.103605        0.140571 
        2.96982        0.130761        0.102541        0.139193 
        2.98209        0.129811        0.101495        0.137932 
        2.99436        0.129747        0.100461         0.13669 
        3.00666        0.129256       0.0994411        0.135372 
        3.01894        0.128763       0.0984368        0.134217 
        3.03119        0.128135       0.0974478        0.133043 
        3.04345         0.12763       0.0964724        0.131842 
        3.05573        0.127671       0.0955082        0.130658 
          3.068         0.12719       0.0945584        0.129457 
        3.08026        0.126516       0.0936224        0.128376 
        3.09254        0.126732       0.0926974        0.127236 
        3.10483         0.12636       0.0917847        0.126127 
         3.1171        0.125951       0.0908855        0.124973 
        3.12933         0.12583       0.0900008        0.123745 
        3.14159        0.125425        0.089126        0.122796 
