# k  (h/Mpc)    Pcb(k)  (Mpc/h)^3    Pcb_linear(k) (Mpc/h)^3    Pcb_NL(k) (Mpc/h)^3   ShotnoiseSubtracted = false
      0.0156606         22461.2           22589         22408.2 
      0.0273761         19242.5         19529.2         19310.6 
      0.0384619         14545.4         14712.4         14517.5 
      0.0498308           11227         11571.9         11375.6 
      0.0625568         9485.32         9834.48         9660.18 
      0.0751274         8452.28         8355.33         8110.85 
      0.0867833         6543.55         6726.89         6650.91 
      0.0984825          5536.4         5323.43         5389.95 
       0.111151         4739.38         4444.94         4528.68 
       0.123864         4244.43         4005.77          4073.4 
       0.135742         3872.37         3602.18         3669.87 
        0.14762         3373.33         3080.03         3259.16 
       0.160083         2870.37         2567.38         2788.96 
       0.172465         2559.83         2240.82         2523.13 
       0.184281         2317.25         2065.77         2348.36 
       0.196406         2190.37         1907.73         2164.29 
       0.209011         2051.37         1697.39         1962.82 
       0.221538         1845.95         1483.36         1834.99 
       0.233611         1772.74         1327.22         1721.52 
       0.245665         1605.61         1224.97         1590.77 
       0.258103         1593.19         1140.34         1502.69 
       0.270422         1420.48         1047.84          1412.8 
       0.282519         1343.78         950.975         1339.46 
       0.294636         1317.52         866.443          1269.8 
       0.306978         1205.89         801.605         1217.79 
       0.319417         1183.69         749.454         1148.53 
        0.33169         1111.94         699.535         1088.59 
       0.343948         1068.46         648.159         1055.65 
       0.356249         1013.83         599.978         1017.21 
       0.368458         972.325         559.623         973.281 
        0.38068         958.364         525.874         936.973 
       0.392856         910.715         495.067         905.048 
       0.405069         862.969         464.943         875.555 
       0.417459          829.92         435.776         845.983 
       0.429752         827.504         409.593         816.662 
       0.441978          798.31         386.613         796.405 
       0.454294         763.642         365.744         764.454 
        0.46658          742.01         346.164         749.133 
       0.478753         728.366         327.693         726.914 
       0.490964         700.214         310.342         705.024 
       0.503334         670.738         294.327         689.827 
       0.515665         667.975         279.723         674.255 
       0.527909         639.941         266.242         660.627 
       0.540159         624.558         253.488         644.345 
        0.55248         611.835         241.385         627.854 
       0.564743         606.523         230.179         617.287 
        0.57686         586.889          219.88         601.273 
       0.589077         577.069         210.158          588.24 
       0.601441         562.869         200.913         577.045 
        0.61382         546.914         192.196          566.97 
       0.626067          541.14         184.063         556.687 
       0.638306          521.46         176.403         545.395 
       0.650632         516.553         169.146          532.81 
       0.662899         512.255         162.346         526.318 
       0.675076         495.978         155.973         519.378 
       0.687267         481.546         149.934         507.207 
       0.699615         480.234         144.139          499.23 
       0.711937         469.802         138.661         489.823 
       0.724148         454.648         133.514         483.444 
       0.736433         443.989         128.603         474.999 
       0.748747         438.286         123.932         466.719 
       0.761037         430.494         119.504         461.191 
       0.773197         423.672         115.338         453.529 
       0.785376         418.356         111.366         447.088 
       0.797761         405.764         107.519         440.599 
       0.810096         401.029          103.87         434.993 
       0.822371         390.557         100.408         427.987 
       0.834626         386.549         97.1095         423.103 
       0.846916          380.75         93.9517         416.485 
       0.859215         375.964         90.9333         410.396 
       0.871383         367.561         88.0782         405.058 
        0.88363          363.09         85.3294         400.983 
       0.895928         358.014         82.6879         394.785 
       0.908253         349.118          80.154         388.303 
       0.920535         341.986         77.7352         384.214 
       0.932774         336.947         75.4252         378.365 
        0.94508         331.711         73.1978         374.616 
       0.957324         328.113         71.0718          369.64 
        0.96953         323.874          69.037         365.187 
       0.981769         316.043         67.0772         361.128 
       0.994071         314.776         65.1845         356.762 
         1.0064           308.8         63.3619         351.586 
        1.01868         305.167         61.6146         347.135 
        1.03092          296.01         59.9414         344.118 
         1.0432         293.158         58.3245         339.962 
        1.05553         290.024         56.7613         335.278 
        1.06777         285.973         55.2669         331.487 
           1.08         279.393          53.828         327.843 
        1.09227          278.67          52.436         323.912 
         1.1046         273.034         51.0882         320.865 
         1.1169         267.158         49.7903         316.621 
        1.12915         263.394         48.5442         313.401 
        1.14142         258.016         47.3382         309.721 
        1.15365         255.056          46.177         306.477 
        1.16585         250.602         45.0579         303.058 
        1.17807         248.127         43.9747         299.772 
        1.19037         243.687         42.9201         297.241 
        1.20276         240.654         41.8931         293.362 
        1.21504         235.613         40.9079         290.073 
        1.22728         232.119         39.9586         286.926 
        1.23954          230.71         39.0373         284.053 
        1.25184         225.363         38.1433          281.06 
        1.26414         220.817         37.2771         278.407 
        1.27632         218.927         36.4456         275.852 
         1.2886          216.89         35.6336         272.726 
        1.30093         211.939         34.8437         269.269 
        1.31316         207.408         34.0835         266.699 
        1.32541         206.275         33.3459         263.866 
        1.33772         202.591         32.6261         261.477 
        1.35005         200.145         31.9271         258.523 
        1.36225         196.235         31.2557         256.108 
        1.37447         193.111         30.6025         253.006 
        1.38676         191.225          29.965         251.226 
        1.39907         188.393         29.3446         248.158 
        1.41133         184.713         28.7445         245.567 
        1.42358         182.454         28.1618         243.259 
        1.43591         180.008         27.5913         241.083 
        1.44818         176.514         27.0397         238.542 
        1.46037          175.01         26.5066         235.981 
        1.47263         171.526         25.9849         233.754 
        1.48494         170.046         25.4752         230.952 
        1.49724         167.017         24.9797         229.505 
        1.50952         164.017         24.4984         226.845 
        1.52178         162.204         24.0305         224.584 
        1.53409          159.25          23.573          222.54 
        1.54637          156.77         23.1283         220.701 
        1.55858         155.037         22.6977         218.353 
        1.57081         152.259         22.2774          216.24 
        1.58313         150.272         21.8652         214.043 
        1.59544         147.482         21.4636         212.137 
        1.60767         146.076         21.0747         210.254 
        1.61994         143.568         20.6942         208.145 
        1.63225         141.253         20.3222         206.034 
        1.64452         138.971         19.9605         204.209 
        1.65676          137.19         19.6086         202.458 
          1.669         135.581         19.2651         200.445 
        1.68133         132.889         18.9275         198.616 
        1.69363         130.576         18.5991         196.964 
        1.70585         128.516         18.2806         195.131 
        1.71809         126.818         17.9689         193.041 
        1.73038         125.197         17.6634         191.433 
        1.74268         124.023         17.3649         189.559 
        1.75493         121.142         17.0747         188.029 
        1.76714         120.521         16.7919         186.386 
        1.77942         117.958          16.514         184.646 
        1.79173         116.185         16.2417         182.912 
        1.80402         114.632         15.9762         181.284 
         1.8163         112.546         15.7167          179.84 
         1.8286         111.037         15.4625         178.074 
         1.8409         109.697         15.2142         176.424 
        1.85315         107.477         14.9722         174.977 
        1.86537         106.449         14.7359         173.501 
        1.87765         105.085         14.5039         172.016 
        1.88995          103.14         14.2763         170.371 
        1.90221         101.872         14.0543         169.047 
        1.91445         100.321         13.8375         167.421 
        1.92674         98.6959         13.6245         165.944 
        1.93902         97.4988          13.416         164.448 
        1.95124         96.1203         13.2129         163.067 
         1.9635         94.5229         13.0135         161.648 
        1.97583         93.0649          12.817          160.22 
        1.98812         91.7092         12.6253         159.084 
        2.00039         90.6696         12.4379         157.548 
        2.01264         89.5327         12.2545         156.252 
        2.02492         88.2688         12.0745         154.818 
        2.03717         86.9025         11.8985         153.607 
        2.04942         85.7806         11.7262         152.291 
        2.06171         84.2565         11.5567         150.937 
        2.07397         83.2644         11.3909         149.793 
        2.08629         81.9705         11.2277         148.483 
        2.09857         80.9879         11.0681         147.298 
        2.11081         79.6585         10.9122         145.939 
        2.12309         78.6537          10.759         144.827 
        2.13538         77.3488         10.6085          143.56 
        2.14763         76.2927         10.4614         142.395 
        2.15986         75.4295         10.3174         141.124 
        2.17214         74.3412         10.1755         140.041 
        2.18443         73.4142         10.0362          139.04 
        2.19671         72.4722         9.89963         137.827 
        2.20898         71.5149         9.76578         136.589 
        2.22126         70.4551         9.63427          135.59 
        2.23354         69.5803         9.50522         134.508 
         2.2458         68.2256         9.37877          133.37 
        2.25807         67.5419          9.2545         132.306 
        2.27035         66.5637         9.13238         131.231 
        2.28263         65.7407         9.01252         130.234 
         2.2949         64.4612         8.89487         129.205 
        2.30718         63.5923         8.77929         128.143 
        2.31946         63.0059          8.6657         127.048 
        2.33169         62.0027         8.55462         126.097 
        2.34393         61.4815         8.44532         125.212 
        2.35622         60.3964         8.33757         124.141 
        2.36847         59.7906         8.23201         123.284 
        2.38076         58.7133         8.12796         122.198 
        2.39305         58.1495         8.02573         121.355 
        2.40534         57.2698         7.92526         120.343 
        2.41762          56.657         7.82652         119.384 
        2.42989         55.7523         7.72962         118.517 
        2.44216         55.2501         7.63436         117.527 
         2.4544         54.3632         7.54094         116.681 
        2.46667         53.5922         7.44886          115.79 
        2.47897         53.0891         7.35809         114.832 
        2.49124         52.4684         7.26909         113.977 
        2.50349         51.5825          7.1817         113.135 
        2.51578         51.2116         7.09547         112.365 
        2.52805         50.4043         7.01082         111.427 
        2.54029         49.9014         6.92775         110.579 
        2.55257         49.2492         6.84579         109.814 
        2.56487         48.9266         6.76499         108.995 
        2.57716         48.3599         6.68561         108.181 
        2.58942         47.5684         6.60769         107.386 
        2.60167         47.0451         6.53108         106.607 
        2.61395         46.6992         6.45557         105.798 
        2.62624         45.9121         6.38115          104.96 
        2.63849         45.4246         6.30814         104.231 
        2.65073         44.8151         6.23635         103.465 
        2.66302         44.4371         6.16542         102.704 
         2.6753         43.8542         6.09564         101.984 
        2.68756         43.5376         6.02708         101.209 
        2.69983         42.9912         5.95953         100.487 
        2.71213         42.5033         5.89287         99.7718 
        2.72441         42.1148         5.82735         99.0379 
        2.73665         41.6484         5.76299         98.3607 
         2.7489         41.1961         5.69963         97.6711 
        2.76118         40.8105         5.63703         96.9417 
        2.77349         40.3623         5.57522         96.2728 
        2.78576         39.9853         5.51458         95.5664 
        2.79802         39.6376         5.45488         94.9555 
        2.81031         39.1063         5.39592         94.2621 
        2.82259         38.7345         5.33786         93.5621 
        2.83483         38.3155         5.28087         92.9537 
         2.8471         37.9498          5.2246         92.2782 
         2.8594         37.5633         5.16898         91.6245 
         2.8717         37.3034         5.11419         91.0341 
        2.88396         36.9919          5.0604         90.3982 
        2.89619         36.6862         5.00748         89.7263 
        2.90847         36.3312         4.95511         89.0732 
        2.92072         36.0523         4.90359         88.5255 
        2.93299         35.9068         4.85277         87.9379 
        2.94526         35.5413         4.80262         87.3149 
        2.95753          35.309          4.7532         86.7063 
        2.96982          34.939         4.70439         86.1321 
        2.98209         34.8178         4.65637         85.5536 
        2.99436         34.5315         4.60897         84.9418 
        3.00666          34.397         4.56215          84.374 
        3.01894         34.1743         4.51608         83.8173 
        3.03119         33.9395         4.47071         83.2793 
        3.04345         33.7417         4.42596         82.7312 
        3.05573         33.6448         4.38172         82.1678 
          3.068         33.4353         4.33815         81.6267 
        3.08026         33.2472         4.29521         81.0812 
        3.09254          33.178         4.25277         80.5531 
        3.10483         33.1768          4.2109         80.0261 
         3.1171         32.9984         4.16964         79.4901 
        3.12933         32.7697         4.12906         78.9622 
        3.14159         32.7759         4.08892         78.4362 
