# k  (h/Mpc)    P(k)  (Mpc/h)^3    P_linear(k)  (Mpc/h)^3     P_NL(k)  ShotnoiseSubtracted = false
      0.0156606           17700         17781.8         17652.7 
      0.0273761         15179.2         15349.5         15207.9 
      0.0384619         11483.6         11554.3         11433.1 
      0.0498308         8882.81         9083.34         8963.01 
      0.0625568         7499.37          7716.8         7608.26 
      0.0751274         6656.71         6554.66         6400.79 
      0.0867833         5169.08         5276.41         5230.42 
      0.0984825         4341.22         4175.12          4221.4 
       0.111151         3699.97         3485.83         3540.48 
       0.123864         3317.22         3141.22         3185.89 
       0.135742          3015.7          2824.6          2869.8 
        0.14762          2615.7         2415.08         2534.92 
       0.160083         2206.43         2013.04         2158.52 
       0.172465         1968.05         1756.95         1941.42 
       0.184281         1793.18         1619.67          1806.5 
       0.196406         1675.92         1495.73         1660.41 
       0.209011         1559.64          1330.8         1502.58 
       0.221538         1406.52         1162.97         1395.51 
       0.233611         1336.15         1040.55         1302.07 
       0.245665         1216.97         960.378         1200.37 
       0.258103         1189.23         894.022         1131.85 
       0.270422         1064.69         821.496         1060.49 
       0.282519         997.772         745.548         998.532 
       0.294636         985.566         679.273         943.122 
       0.306978         892.299         628.439         901.387 
       0.319417         868.714         587.551         849.095 
        0.33169         818.238         548.414         802.077 
       0.343948         781.997         508.135          775.61 
       0.356249         737.737         470.362         745.182 
       0.368458         713.285         438.723         708.739 
        0.38068         694.803         412.267         680.041 
       0.392856         657.156         388.113         654.589 
       0.405069         626.896         364.495          634.34 
       0.417459         602.275          341.63         607.833 
       0.429752         591.926         321.103         586.236 
       0.441978         571.816         303.087         570.295 
       0.454294         543.704         286.727         546.179 
        0.46658         530.521         271.376         533.898 
       0.478753         517.251         256.894         516.677 
       0.490964         497.703         243.291         500.234 
       0.503334         472.933         230.738          487.88 
       0.515665         471.929         219.289          477.28 
       0.527909          453.79          208.72         465.244 
       0.540159         442.319          198.72         452.518 
        0.55248         433.652         189.232         440.433 
       0.564743         429.167         180.448         432.603 
        0.57686         412.768         172.374         420.493 
       0.589077         400.884         164.752          411.09 
       0.601441         395.547         157.504         402.269 
        0.61382         386.704         150.671         394.992 
       0.626067         381.266         144.295          386.78 
       0.638306         365.891          138.29         379.324 
       0.650632          361.09         132.601          368.99 
       0.662899         357.926          127.27         364.618 
       0.675076         344.337         122.273         358.357 
       0.687267         335.666         117.539         349.868 
       0.699615         331.585         112.996         344.151 
       0.711937         326.578         108.702         337.953 
       0.724148          315.82         104.667         332.961 
       0.736433         308.748         100.817         326.495 
       0.748747         304.421         97.1548         320.449 
       0.761037         298.672         93.6835         315.845 
       0.773197         295.077         90.4177         311.314 
       0.785376         290.528         87.3039         306.185 
       0.797761         283.089         84.2885         301.399 
       0.810096         280.438         81.4276         297.426 
       0.822371         270.368         78.7133         292.506 
       0.834626          269.38         76.1278         288.459 
       0.846916         263.514         73.6522         284.158 
       0.859215         263.414          71.286         280.093 
       0.871383         256.352         69.0477          276.01 
        0.88363         254.788         66.8928         273.165 
       0.895928          249.17         64.8221         268.818 
       0.908253         242.644         62.8356         264.495 
       0.920535         241.053         60.9394         261.026 
       0.932774         234.257         59.1285         257.407 
        0.94508         231.737         57.3824         254.724 
       0.957324         230.909         55.7157         251.061 
        0.96953         227.549         54.1206         247.676 
       0.981769         220.765         52.5842         245.243 
       0.994071         219.867         51.1004         242.101 
         1.0064         215.042         49.6716         238.495 
        1.01868         212.234         48.3019         235.616 
        1.03092         207.441         46.9901         233.295 
         1.0432          203.89         45.7226         230.437 
        1.05553         201.202         44.4971         227.473 
        1.06777         200.702         43.3256         225.142 
           1.08         195.709         42.1977         222.376 
        1.09227          193.37         41.1064         219.892 
         1.1046         190.511         40.0498         217.629 
         1.1169          186.74         39.0323         214.643 
        1.12915         184.126         38.0554         212.703 
        1.14142         181.187           37.11         209.953 
        1.15365         178.655         36.1997         207.744 
        1.16585         176.053         35.3224         205.097 
        1.17807         173.803         34.4733         203.459 
        1.19037          172.14         33.6465          201.48 
        1.20276         169.519         32.8414         198.939 
        1.21504         166.154         32.0691         196.796 
        1.22728          163.07         31.3249         194.279 
        1.23954         162.566         30.6026         192.881 
        1.25184         159.464         29.9018          190.68 
        1.26414         156.798         29.2227          188.71 
        1.27632         156.225         28.5709         187.438 
         1.2886         154.171         27.9344          184.96 
        1.30093         149.695         27.3151         182.914 
        1.31316             148         26.7192         180.846 
        1.32541          146.47         26.1409         179.439 
        1.33772         145.081         25.5766         177.525 
        1.35005         142.797         25.0287         175.532 
        1.36225         140.767         24.5024         173.944 
        1.37447         138.699         23.9903         171.885 
        1.38676         136.999         23.4905         170.363 
        1.39907         134.581         23.0042         168.606 
        1.41133         132.585         22.5337         167.123 
        1.42358         130.788         22.0769         165.555 
        1.43591         129.331         21.6297         163.744 
        1.44818         127.851         21.1973          162.31 
        1.46037         125.692         20.7794         160.618 
        1.47263         124.384         20.3704         159.381 
        1.48494         122.418         19.9709         157.489 
        1.49724         120.767         19.5824         156.116 
        1.50952         118.554         19.2051         154.643 
        1.52178         118.067         18.8383         153.022 
        1.53409         115.614         18.4796         151.762 
        1.54637         114.218          18.131         150.466 
        1.55858         112.165         17.7934         148.882 
        1.57081         110.712          17.464         147.626 
        1.58313         109.373         17.1408         146.152 
        1.59544         107.969          16.826         144.889 
        1.60767         106.722         16.5212         143.498 
        1.61994         104.876         16.2228         142.438 
        1.63225         103.582         15.9312         140.772 
        1.64452         101.687         15.6476         139.526 
        1.65676         100.228         15.3718         138.391 
          1.669         99.6443         15.1025         137.249 
        1.68133         97.5664         14.8379         135.967 
        1.69363         96.6089         14.5804         134.777 
        1.70585         94.8317         14.3307         133.565 
        1.71809         93.6781         14.0864         132.248 
        1.73038         92.9664         13.8469         131.155 
        1.74268         91.6995         13.6129         129.947 
        1.75493          90.111         13.3854         128.799 
        1.76714          88.888         13.1637         127.767 
        1.77942         87.8221         12.9459         126.499 
        1.79173         86.4916         12.7324         125.517 
        1.80402         85.8252         12.5242         124.447 
         1.8163         84.1161         12.3208         123.246 
         1.8286         82.9564         12.1216         122.205 
         1.8409         82.3165         11.9269          121.13 
        1.85315         80.9767         11.7372         120.168 
        1.86537         80.0105          11.552         119.155 
        1.87765         79.3141         11.3701          118.09 
        1.88995         77.9766         11.1916         117.132 
        1.90221         76.9388         11.0177         116.124 
        1.91445         75.7915         10.8477         115.078 
        1.92674         74.6153         10.6807         114.147 
        1.93902         73.7155         10.5172         113.122 
        1.95124         73.0301          10.358         112.242 
         1.9635         71.9081         10.2017         111.168 
        1.97583         70.8542         10.0477         110.373 
        1.98812         69.9382         9.89741         109.427 
        2.00039         68.9822          9.7505         108.495 
        2.01264         68.3735         9.60671         107.585 
        2.02492         67.3881         9.46562         106.686 
        2.03717         66.2714          9.3276         105.754 
        2.04942          65.967         9.19251         105.003 
        2.06171         64.5128         9.05964         104.085 
        2.07397         63.8215         8.92969         103.273 
        2.08629         63.0977         8.80174         102.371 
        2.09857         62.1271         8.67661         101.562 
        2.11081          61.177         8.55443         100.633 
        2.12309         60.6178         8.43431         99.9529 
        2.13538         59.7516         8.31632         99.0928 
        2.14763          58.937         8.20099         98.2989 
        2.15986          57.864         8.08811         97.4761 
        2.17214         57.4625          7.9769         96.6707 
        2.18443         56.7616         7.86768         96.0271 
        2.19671         55.7295         7.76063         95.2015 
        2.20898         55.5072         7.65571         94.4207 
        2.22126          54.621         7.55261         93.6444 
        2.23354         53.9176         7.45145         92.9428 
         2.2458         53.2073         7.35231         92.2365 
        2.25807         52.4914         7.25489          91.452 
        2.27035         51.9628         7.15916         90.7214 
        2.28263          51.146          7.0652         90.0032 
         2.2949         50.7022         6.97297         89.3054 
        2.30718         49.7323         6.88236         88.6423 
        2.31946         49.3365         6.79332         87.9413 
        2.33169         48.5535         6.70624         87.2625 
        2.34393         47.9217         6.62055         86.6051 
        2.35622          47.496         6.53609         85.9249 
        2.36847         46.9325         6.45333         85.3359 
        2.38076          46.179         6.37176         84.5853 
        2.39305         45.6526         6.29163         83.9971 
        2.40534          45.178         6.21286          83.307 
        2.41762          44.677         6.13546         82.6297 
        2.42989         44.1501         6.05949         82.0831 
        2.44216          43.653         5.98482         81.4214 
         2.4544         43.0972         5.91158         80.7989 
        2.46667         42.6172         5.83939         80.1625 
        2.47897         42.1369         5.76824         79.5719 
        2.49124          41.566         5.69847         78.9987 
        2.50349         41.1675         5.62996         78.3746 
        2.51578         40.5819         5.56236         77.8672 
        2.52805         40.1873           5.496          77.241 
        2.54029         39.7291         5.43088         76.6232 
        2.55257         39.1362         5.36663         76.0984 
        2.56487          38.817         5.30329         75.5714 
        2.57716         38.3134         5.24106         75.0266 
        2.58942         37.8006         5.17997           74.45 
        2.60167         37.4858         5.11992         73.9057 
        2.61395          36.971         5.06072         73.3712 
        2.62624          36.763         5.00238         72.8014 
        2.63849         36.3264         4.94515         72.2958 
        2.65073         35.9497         4.88887         71.7531 
        2.66302         35.4351         4.83327          71.229 
         2.6753         35.0273         4.77856         70.7273 
        2.68756         34.6187         4.72482         70.1897 
        2.69983         34.3804         4.67186         69.7309 
        2.71213         34.0166         4.61961          69.247 
        2.72441         33.6484         4.56824         68.7335 
        2.73665         33.2156         4.51779         68.2352 
         2.7489         33.1414         4.46812         67.7567 
        2.76118         32.6274         4.41904         67.2919 
        2.77349         32.4349         4.37059         66.8091 
        2.78576         32.1748         4.32306          66.314 
        2.79802         31.7465         4.27625         65.9022 
        2.81031         31.4127         4.23003         65.4228 
        2.82259         31.3305         4.18452         64.9407 
        2.83483         30.9016         4.13984         64.5156 
         2.8471         30.5649         4.09573         64.0712 
         2.8594         30.4215         4.05213         63.6121 
         2.8717         30.1983         4.00918         63.1808 
        2.88396         29.8829         3.96701          62.731 
        2.89619         29.6869         3.92552          62.274 
        2.90847         29.4537         3.88447         61.8587 
        2.92072         29.2138         3.84408         61.4464 
        2.93299         29.0375         3.80424         61.0243 
        2.94526         28.7776         3.76493         60.6212 
        2.95753         28.6155         3.72618         60.2105 
        2.96982         28.5154         3.68792         59.7979 
        2.98209         28.2152         3.65027            59.4 
        2.99436         28.0694         3.61312         58.9768 
        3.00666         27.9541         3.57642         58.5935 
        3.01894         27.7321          3.5403         58.1856 
        3.03119         27.6017         3.50473         57.8064 
        3.04345          27.434         3.46965         57.4448 
        3.05573         27.3197         3.43497         57.0631 
          3.068         27.2749         3.40081         56.6789 
        3.08026         27.0863         3.36715         56.2973 
        3.09254          26.976         3.33388         55.9256 
        3.10483         26.9854         3.30105         55.5659 
         3.1171         26.8295         3.26872         55.2036 
        3.12933          26.803          3.2369         54.8317 
        3.14159         26.6627         3.20544         54.4643 
