# k  (h/Mpc)    P(k)  (Mpc/h)^3    P_linear(k)  (Mpc/h)^3     P_NL(k)  ShotnoiseSubtracted = false
      0.0156606         2707.26         2775.23         2761.53 
      0.0273761         2349.02         2398.17         2391.44 
      0.0384619          1783.9         1806.32         1804.01 
      0.0498308         1397.87         1420.61          1419.4 
      0.0625568         1179.17         1207.24         1205.08 
      0.0751274          1020.3         1025.63         1021.63 
      0.0867833         809.324         825.724         825.205 
      0.0984825         655.889         653.442         656.032 
       0.111151         549.384         545.604          548.12 
       0.123864         493.486         491.694         493.595 
       0.135742         443.389         442.152         444.034 
        0.14762         376.763         378.059         382.537 
       0.160083         312.857         315.132         320.241 
       0.172465         275.684         275.049         281.181 
       0.184281         255.568         253.562         260.073 
       0.196406           233.1         234.163          239.17 
       0.209011         210.068         208.345          214.03 
       0.221538         186.565         182.073         190.031 
       0.233611          168.15         162.908         171.748 
       0.245665         157.899         150.358         158.218 
       0.258103         142.336          139.97         147.797 
       0.270422         133.608         128.616         136.216 
       0.282519         121.227         116.726         124.843 
       0.294636          115.51          106.35          114.91 
       0.306978          102.22          98.392         107.237 
       0.319417         97.5203         91.9907         100.545 
        0.33169         90.6506         85.8634         94.1297 
       0.343948         86.0254         79.5574         87.9632 
       0.356249         78.9347         73.6435         82.8478 
       0.368458         75.2982           68.69         77.1779 
        0.38068         70.5813         64.5481         72.9652 
       0.392856           65.98         60.7665         69.2564 
       0.405069          62.425         57.0688         65.3126 
       0.417459         58.4161         53.4889         61.7924 
       0.429752         55.9333         50.2752         58.5841 
       0.441978         53.2521         47.4543         56.0739 
       0.454294          49.551         44.8929         53.0678 
        0.46658         49.0918         42.4895          50.626 
       0.478753         45.6539         40.2222         48.3802 
       0.490964         44.0897         38.0924          46.382 
       0.503334         42.2362         36.1268         44.1851 
       0.515665         40.1055         34.3343         42.6866 
       0.527909          38.374         32.6795         40.4444 
       0.540159         36.7645         31.1139          38.887 
        0.55248         34.3726         29.6284         37.2435 
       0.564743          33.902          28.253         36.0055 
        0.57686         32.7524         26.9888          34.625 
       0.589077         30.8377         25.7955         33.4956 
       0.601441         29.7468         24.6607         32.2699 
        0.61382         28.7042         23.5909         30.9887 
       0.626067         27.5447         22.5925          30.023 
       0.638306         26.6254         21.6524         28.9181 
       0.650632         25.8875         20.7616         27.9909 
       0.662899         24.7725         19.9269         27.0141 
       0.675076         23.6383         19.1446         26.1462 
       0.687267         23.2798         18.4034         25.2884 
       0.699615         22.4821         17.6921         24.5768 
       0.711937         21.3423         17.0197         23.7712 
       0.724148         21.2219          16.388         23.1586 
       0.736433         19.9892         15.7852         22.4152 
       0.748747         19.6181         15.2118         21.7958 
       0.761037         19.1272         14.6683         21.2195 
       0.773197          18.448         14.1569         20.6654 
       0.785376         17.7503         13.6694          20.103 
       0.797761         17.3526         13.1973         19.5599 
       0.810096         16.9447         12.7493         19.0854 
       0.822371          16.475         12.3244         18.5239 
       0.834626         15.9507         11.9196         18.1211 
       0.846916         15.4577          11.532         17.6476 
       0.859215         14.8949         11.1615         17.2304 
       0.871383         14.6157          10.811         16.8589 
        0.88363         14.2317         10.4736         16.4505 
       0.895928         13.9515         10.1494         16.0282 
       0.908253         13.5853         9.83837          15.699 
       0.920535          13.174         9.54148         15.3242 
       0.932774         12.9634         9.25794         14.9351 
        0.94508         12.5319         8.98455         14.6527 
       0.957324         12.2969         8.72358         14.3641 
        0.96953         11.8648         8.47383         14.0377 
       0.981769         11.7607         8.23328         13.7471 
       0.994071         11.4396         8.00096         13.4552 
         1.0064          11.077         7.77725         13.1955 
        1.01868         10.8636         7.56279         12.9381 
        1.03092         10.6859         7.35741         12.6646 
         1.0432         10.2952         7.15895         12.4101 
        1.05553         10.1322         6.96707         12.2162 
        1.06777         9.83509         6.78364         11.9517 
           1.08         9.66053         6.60704         11.7391 
        1.09227         9.46263         6.43617         11.5253 
         1.1046         9.28453         6.27074         11.2918 
         1.1169          8.9939         6.11144         11.0891 
        1.12915         8.97103         5.95848         10.9367 
        1.14142         8.62395         5.81046         10.7146 
        1.15365         8.52384         5.66792         10.5266 
        1.16585         8.41303         5.53056         10.3743 
        1.17807         8.16438         5.39761         10.1657 
        1.19037         8.02104         5.26817         10.0099 
        1.20276         7.82731         5.14211          9.8335 
        1.21504         7.71502         5.02118         9.69119 
        1.22728         7.51638         4.90466         9.51713 
        1.23954         7.40187         4.79157         9.38815 
        1.25184         7.24502         4.68185         9.23322 
        1.26414         7.15356         4.57552         9.07215 
        1.27632         6.95061         4.47346         8.94325 
         1.2886         6.86983          4.3738         8.81039 
        1.30093         6.73113         4.27684         8.70604 
        1.31316         6.57907         4.18352         8.55493 
        1.32541         6.48298         4.09299         8.45222 
        1.33772         6.35773         4.00464         8.30734 
        1.35005         6.27448         3.91884         8.20047 
        1.36225         6.14763         3.83644         8.06802 
        1.37447         6.03883         3.75626         7.97153 
        1.38676          5.9253           3.678         7.86435 
        1.39907         5.81588         3.60186         7.75554 
        1.41133         5.73229          3.5282         7.64873 
        1.42358         5.61746         3.45667         7.54068 
        1.43591         5.55542         3.38665         7.45707 
        1.44818          5.4193         3.31895         7.35462 
        1.46037         5.32869         3.25351         7.25461 
        1.47263          5.2528         3.18947         7.17075 
        1.48494         5.19468         3.12692         7.06992 
        1.49724         5.09284          3.0661         6.98592 
        1.50952         5.06451         3.00702         6.90274 
        1.52178         4.94519         2.94958         6.81615 
        1.53409         4.84933         2.89343         6.72353 
        1.54637         4.79332         2.83885         6.64299 
        1.55858         4.73018         2.78599          6.5589 
        1.57081          4.6291          2.7344         6.49939 
        1.58313         4.57459         2.68381         6.41536 
        1.59544         4.49055         2.63452         6.34872 
        1.60767          4.4421         2.58679         6.26692 
        1.61994         4.36768         2.54007         6.20639 
        1.63225         4.29203         2.49442         6.13243 
        1.64452         4.22101         2.45001         6.06091 
        1.65676         4.16099         2.40683         5.99668 
          1.669         4.12407         2.36466         5.93136 
        1.68133         4.01919         2.32323         5.86604 
        1.69363         4.00101         2.28292         5.81043 
        1.70585         3.93875         2.24382         5.74001 
        1.71809         3.89574         2.20556         5.68601 
        1.73038         3.83831         2.16807         5.62323 
        1.74268         3.77507         2.13143         5.56705 
        1.75493         3.72692         2.09581         5.50479 
        1.76714         3.69611         2.06109         5.44973 
        1.77942         3.63418         2.02699         5.39394 
        1.79173         3.58498         1.99357         5.33545 
        1.80402          3.5395         1.96097         5.28556 
         1.8163         3.50965         1.92912          5.2398 
         1.8286         3.44949         1.89793         5.19083 
         1.8409         3.39391         1.86745         5.14213 
        1.85315         3.35904         1.83774         5.08046 
        1.86537         3.32903         1.80874         5.04091 
        1.87765         3.27071         1.78026         4.98829 
        1.88995         3.22629         1.75232         4.94664 
        1.90221          3.1882         1.72508         4.89696 
        1.91445          3.1545         1.69846         4.86321 
        1.92674         3.12969         1.67232         4.80663 
        1.93902         3.07384         1.64672         4.76045 
        1.95124          3.0357          1.6218         4.72038 
         1.9635         3.01775         1.59733          4.6813 
        1.97583          2.9642         1.57321         4.64085 
        1.98812         2.92596         1.54968         4.59637 
        2.00039         2.89609         1.52668         4.55708 
        2.01264         2.85882         1.50416         4.52452 
        2.02492          2.8304         1.48207         4.48338 
        2.03717         2.79438         1.46046         4.44209 
        2.04942         2.75889         1.43931         4.40645 
        2.06171         2.72599         1.41851          4.3666 
        2.07397         2.70125         1.39816         4.33039 
        2.08629          2.6759         1.37813         4.29959 
        2.09857         2.64325         1.35853         4.26111 
        2.11081         2.60724          1.3394         4.22694 
        2.12309         2.58757          1.3206          4.1922 
        2.13538         2.55345         1.30212         4.16201 
        2.14763         2.53793         1.28406         4.12586 
        2.15986          2.5109         1.26639         4.09649 
        2.17214         2.46908         1.24898         4.05685 
        2.18443         2.45791         1.23188         4.02688 
        2.19671         2.42332         1.21512         3.99647 
        2.20898         2.40057         1.19869         3.96862 
        2.22126         2.38111         1.18254         3.93779 
        2.23354         2.35092         1.16671         3.90647 
         2.2458         2.33885         1.15118          3.8727 
        2.25807         2.30602         1.13593         3.84792 
        2.27035         2.28106         1.12094         3.82153 
        2.28263         2.25671         1.10623         3.79199 
         2.2949          2.2428         1.09179         3.76594 
        2.30718         2.21876          1.0776         3.74115 
        2.31946         2.19377         1.06366         3.71331 
        2.33169         2.17604         1.05003         3.68483 
        2.34393           2.165         1.03661         3.65856 
        2.35622         2.13977         1.02338         3.63194 
        2.36847         2.11559         1.01043          3.6051 
        2.38076         2.09864        0.997655         3.57903 
        2.39305         2.07682        0.985108         3.55197 
        2.40534         2.05901        0.972776         3.53057 
        2.41762          2.0354        0.960656         3.50907 
        2.42989         2.02322        0.948762         3.48223 
        2.44216         2.00923         0.93707         3.46045 
         2.4544         1.98989        0.925602         3.43811 
        2.46667         1.97236          0.9143         3.41468 
        2.47897         1.95769        0.903159         3.39072 
        2.49124         1.93711        0.892235         3.36891 
        2.50349         1.92512        0.881508         3.34613 
        2.51578         1.90519        0.870924         3.32128 
        2.52805         1.88758        0.860534         3.30121 
        2.54029         1.87885        0.850338         3.28001 
        2.55257         1.86052        0.840277           3.259 
        2.56487         1.84708         0.83036          3.2372 
        2.57716         1.83987        0.820617         3.21665 
        2.58942          1.8207        0.811052         3.19669 
        2.60167         1.80873        0.801649         3.17501 
        2.61395          1.7865        0.792381          3.1579 
        2.62624         1.78222        0.783246         3.13778 
        2.63849         1.76919        0.774285         3.11628 
        2.65073         1.75384        0.765473         3.09721 
        2.66302         1.74097        0.756767         3.07945 
         2.6753         1.74034        0.748201         3.06054 
        2.68756         1.71785        0.739786         3.04227 
        2.69983         1.70705        0.731495         3.02239 
        2.71213         1.70038        0.723313          3.0045 
        2.72441         1.68858        0.715271         2.98673 
        2.73665          1.6748         0.70737         2.97053 
         2.7489         1.66511        0.699594         2.95484 
        2.76118         1.65567         0.69191         2.93709 
        2.77349         1.65288        0.684324         2.91938 
        2.78576         1.64299        0.676881         2.90178 
        2.79802         1.63497        0.669553          2.8849 
        2.81031         1.61957        0.662316         2.86739 
        2.82259         1.61285        0.655189         2.85057 
        2.83483         1.60868        0.648194         2.83561 
         2.8471         1.60027        0.641287         2.81937 
         2.8594         1.59133        0.634461         2.80411 
         2.8717         1.58441        0.627735         2.78843 
        2.88396         1.58093        0.621133         2.77191 
        2.89619         1.56839        0.614637         2.75614 
        2.90847         1.56443         0.60821         2.73982 
        2.92072         1.55962        0.601885         2.72601 
        2.93299         1.55864        0.595647         2.71117 
        2.94526         1.55149        0.589492         2.69686 
        2.95753          1.5434        0.583426         2.68202 
        2.96982         1.54159        0.577435         2.66702 
        2.98209         1.54058         0.57154         2.65374 
        2.99436         1.53414        0.565723         2.63953 
        3.00666         1.53662        0.559977         2.62571 
        3.01894         1.53006        0.554321         2.61017 
        3.03119         1.52982        0.548752          2.5966 
        3.04345          1.5267        0.543259         2.58434 
        3.05573         1.52493         0.53783         2.57123 
          3.068         1.52527        0.532481          2.5577 
        3.08026         1.52135         0.52721         2.54316 
        3.09254          1.5263        0.522001          2.5296 
        3.10483         1.52652        0.516862         2.51755 
         3.1171         1.52632        0.511798         2.50516 
        3.12933         1.52704        0.506817         2.49156 
        3.14159         1.52711         0.50189         2.47813 
