# k  (h/Mpc)    Pcb(k)  (Mpc/h)^3    Pcb_linear(k) (Mpc/h)^3    Pcb_NL(k) (Mpc/h)^3   ShotnoiseSubtracted = false
      0.0156606         24089.3         24235.3         24034.8 
      0.0273761         20621.3         20951.8         20702.7 
      0.0384619         15580.3         15783.8         15559.4 
      0.0498308         12019.4         12414.5         12187.7 
      0.0625568         10159.1         10550.5         10350.2 
      0.0751274         9064.73         8963.63         8683.41 
      0.0867833         7012.64         7216.62         7128.85 
      0.0984825          5950.6         5710.97         5785.34 
       0.111151         5103.17         4768.52         4864.22 
       0.123864          4570.4         4297.38         4374.44 
       0.135742         4175.64         3864.39          3941.3 
        0.14762         3643.24         3304.24         3506.47 
       0.160083         3112.19         2754.26         3005.75 
       0.172465          2775.8         2403.94         2724.65 
       0.184281         2508.67         2216.14         2536.06 
       0.196406         2381.72          2046.6         2339.76 
       0.209011         2236.74         1820.95         2123.75 
       0.221538         2011.55         1591.33         1989.23 
       0.233611         1938.57         1423.83         1869.23 
       0.245665         1754.75         1314.14         1728.93 
       0.258103         1749.01         1223.35         1634.28 
       0.270422         1560.68         1124.12         1538.28 
       0.282519         1480.92          1020.2         1461.73 
       0.294636         1448.34         929.512         1387.26 
       0.306978         1330.94         859.954         1331.95 
       0.319417         1310.91         804.007          1256.7 
        0.33169          1230.8         750.454         1192.61 
       0.343948         1185.91         695.339         1157.32 
       0.356249         1128.67         643.651         1116.26 
       0.368458         1079.66         600.358         1070.18 
        0.38068         1068.12         564.153         1031.49 
       0.392856         1017.28         531.103         997.633 
       0.405069         962.526         498.787          964.27 
       0.417459         926.318         467.496         934.187 
       0.429752         928.063         439.407         902.091 
       0.441978         895.768         414.754         880.365 
       0.454294         858.769         392.367          845.88 
        0.46658         835.185         371.362          829.39 
       0.478753         821.593         351.546         805.585 
       0.490964          791.68         332.932          781.75 
       0.503334         759.355         315.751         765.703 
       0.515665         755.969         300.085         748.124 
       0.527909         724.103         285.622         734.059 
       0.540159         708.677         271.939         716.829 
        0.55248         694.078         258.956         698.892 
       0.564743         687.745         246.934          687.15 
        0.57686         667.853         235.885         669.751 
       0.589077         659.754         225.455         655.727 
       0.601441         641.495         215.537         643.677 
        0.61382         623.061         206.186         632.225 
       0.626067         617.836         197.461          621.36 
       0.638306         595.934         189.244         608.683 
       0.650632         590.542         181.458         595.542 
       0.662899         586.089         174.163         587.977 
       0.675076         569.779         167.326         580.785 
       0.687267         553.066         160.847         567.552 
       0.699615         553.647         154.631         558.585 
       0.711937         540.014         148.754         547.936 
       0.724148         523.866         143.232         541.247 
       0.736433         512.386         137.964         532.046 
       0.748747         506.234         132.953         522.984 
       0.761037         497.784         128.202         517.038 
       0.773197         489.021         123.733         508.101 
       0.785376         484.665         119.472         501.034 
       0.797761         470.508         115.346         494.398 
       0.810096         463.219         111.431         487.874 
       0.822371          453.28         107.716         480.192 
       0.834626         448.169         104.178         474.992 
       0.846916         443.088          100.79         467.619 
       0.859215         436.123         97.5523         460.708 
       0.871383         427.365         94.4894          454.82 
        0.88363         421.118         91.5405         450.282 
       0.895928          416.55         88.7068         443.469 
       0.908253         406.814         85.9883         436.079 
       0.920535         396.977         83.3936         431.903 
       0.932774         392.354         80.9153         425.178 
        0.94508         386.646         78.5259         421.176 
       0.957324         381.062          76.245         415.583 
        0.96953         376.464         74.0622         410.547 
       0.981769         368.188         71.9597         405.971 
       0.994071         367.084         69.9293          401.16 
         1.0064          360.67          67.974         395.369 
        1.01868         356.185         66.0995         390.494 
        1.03092         346.388         64.3045         387.119 
         1.0432         343.101         62.5699         382.457 
        1.05553         339.977         60.8929         377.162 
        1.06777         334.811         59.2897         372.766 
           1.08         327.554         57.7462         368.697 
        1.09227         327.505         56.2528         364.336 
         1.1046         320.444         54.8069         361.061 
         1.1169         314.726         53.4146         356.352 
        1.12915         309.713         52.0777         352.514 
        1.14142         303.813         50.7839          348.53 
        1.15365         300.318         49.5382           344.9 
        1.16585         296.035         48.3377         341.109 
        1.17807         293.138         47.1756         337.166 
        1.19037         287.034         46.0443         334.293 
        1.20276         284.676         44.9425         329.998 
        1.21504          279.17         43.8856         326.273 
        1.22728         275.073         42.8672         323.125 
        1.23954          273.31         41.8788          319.46 
        1.25184         267.223         40.9198         316.167 
        1.26414         262.542         39.9905         313.188 
        1.27632         259.416         39.0984         310.233 
         1.2886         256.574         38.2274         306.811 
        1.30093         251.656         37.3799         302.812 
        1.31316         246.711         36.5644         300.199 
        1.32541         245.513         35.7731          296.74 
        1.33772         240.822         35.0009         294.193 
        1.35005         238.014          34.251         290.852 
        1.36225         233.846         33.5308          288.15 
        1.37447         230.004           32.83         284.786 
        1.38676          227.87         32.1461          282.74 
        1.39907         224.599         31.4806         279.245 
        1.41133         220.521         30.8368         276.292 
        1.42358         217.652         30.2117          273.72 
        1.43591         214.661         29.5996         271.335 
        1.44818         210.672         29.0079         268.366 
        1.46037         209.031          28.436         265.519 
        1.47263         205.342         27.8763         262.819 
        1.48494         203.903         27.3296         259.773 
        1.49724         199.832          26.798         258.207 
        1.50952         196.832         26.2816         254.982 
        1.52178         193.901         25.7797         252.766 
        1.53409         191.088         25.2888         250.265 
        1.54637         187.946         24.8118         248.213 
        1.55858         185.906         24.3498         245.651 
        1.57081         182.852          23.899         243.104 
        1.58313         180.818         23.4567         240.666 
        1.59544         177.386         23.0259         238.538 
        1.60767         176.058         22.6088         236.444 
        1.61994         172.898         22.2005         233.964 
        1.63225         170.158         21.8015         231.608 
        1.64452         167.464         21.4134         229.566 
        1.65676         165.532         21.0359         227.648 
          1.669         163.599         20.6673         225.258 
        1.68133         160.381         20.3053         223.198 
        1.69363         157.788         19.9529         221.414 
        1.70585         155.491         19.6112         219.257 
        1.71809         153.436         19.2768          216.96 
        1.73038         151.134         18.9492         215.084 
        1.74268         149.895         18.6289             213 
        1.75493         147.081         18.3176         211.303 
        1.76714         145.957         18.0142         209.412 
        1.77942         143.267         17.7161         207.569 
        1.79173         141.453          17.424         205.488 
        1.80402         139.235         17.1391         203.673 
         1.8163         137.061         16.8607         202.073 
         1.8286         134.995          16.588         200.098 
         1.8409         133.239         16.3217         198.244 
        1.85315         130.943          16.062         196.596 
        1.86537         129.469         15.8085         194.909 
        1.87765         127.897         15.5596         193.234 
        1.88995          125.88         15.3154         191.399 
        1.90221         124.288         15.0774         189.904 
        1.91445         122.347         14.8447         188.137 
        1.92674         120.316         14.6162         186.416 
        1.93902         118.985         14.3925         184.738 
        1.95124          117.28         14.1747         183.204 
         1.9635         115.516         13.9608         181.615 
        1.97583          113.85           13.75         179.963 
        1.98812          112.17         13.5443         178.746 
        2.00039         111.009         13.3433             177 
        2.01264         109.588         13.1465         175.533 
        2.02492           107.7         12.9534         173.925 
        2.03717         106.343         12.7646         172.574 
        2.04942         104.965         12.5797         171.052 
        2.06171         103.314         12.3979         169.501 
        2.07397         101.828           12.22         168.252 
        2.08629         100.378         12.0449         166.799 
        2.09857         99.2132         11.8737         165.465 
        2.11081         97.7134         11.7065         163.948 
        2.12309         96.4372         11.5421         162.658 
        2.13538         94.9627         11.3807          161.28 
        2.14763         93.5008         11.2228         159.941 
        2.15986         92.6393         11.0684          158.51 
        2.17214         91.2903         10.9162         157.362 
        2.18443         90.3399         10.7667         156.159 
        2.19671         89.1672         10.6202          154.79 
        2.20898         87.7891         10.4766         153.403 
        2.22126         86.6889         10.3355         152.279 
        2.23354         85.5308         10.1971         151.112 
         2.2458         83.8383         10.0614         149.783 
        2.25807         83.3073         9.92813         148.606 
        2.27035         82.1071         9.79712          147.43 
        2.28263         81.0706         9.66854         146.303 
         2.2949         79.7961         9.54232         145.147 
        2.30718         78.5354         9.41833          143.95 
        2.31946         77.6913         9.29648          142.72 
        2.33169         76.5556         9.17731         141.655 
        2.34393         75.6422         9.06005         140.681 
        2.35622         74.6337         8.94446         139.448 
        2.36847         73.6653         8.83121         138.462 
        2.38076         72.4359         8.71959          137.31 
        2.39305         71.8388         8.60992         136.319 
        2.40534         70.6599         8.50214          135.19 
        2.41762         70.0751         8.39621         134.139 
        2.42989         68.8579         8.29226         133.137 
        2.44216         68.2416         8.19007         132.049 
         2.4544         67.4855         8.08984          131.11 
        2.46667         66.2796         7.99105         130.114 
        2.47897         65.8419         7.89368         129.015 
        2.49124         64.9337         7.79821         128.047 
        2.50349         63.7874         7.70445         127.116 
        2.51578         63.3486         7.61195         126.221 
        2.52805         62.3108         7.52113         125.208 
        2.54029         61.7516         7.43202         124.272 
        2.55257         60.9907         7.34409         123.388 
        2.56487         60.4506         7.25742         122.475 
        2.57716         59.7531         7.17226          121.55 
        2.58942         58.9248         7.08866         120.668 
        2.60167         58.1645         7.00647         119.808 
        2.61395         57.6742         6.92547         118.889 
        2.62624         56.9199         6.84563         117.961 
        2.63849         56.2325         6.76731         117.159 
        2.65073         55.4443         6.69029         116.264 
        2.66302         54.9686          6.6142         115.461 
         2.6753         54.2197         6.53934         114.632 
        2.68756         53.7897         6.46579         113.774 
        2.69983         53.2336         6.39332         112.954 
        2.71213         52.6542         6.32181         112.148 
        2.72441          52.105         6.25152         111.324 
        2.73665         51.4927         6.18247         110.556 
         2.7489         51.0189          6.1145         109.784 
        2.76118         50.5497         6.04735         108.971 
        2.77349         50.0618         5.98104         108.219 
        2.78576         49.5485         5.91599          107.44 
        2.79802         49.1083         5.85194         106.736 
        2.81031         48.5852         5.78869         105.976 
        2.82259         48.0989          5.7264          105.18 
        2.83483         47.5902         5.66526          104.49 
         2.8471          47.097          5.6049         103.743 
         2.8594         46.6834         5.54523         103.021 
         2.8717         46.3245         5.48645         102.348 
        2.88396         45.8161         5.42874         101.641 
        2.89619         45.5964         5.37197          100.91 
        2.90847         45.1337         5.31579         100.171 
        2.92072         44.7124         5.26052         99.5585 
        2.93299          44.457           5.206         98.8895 
        2.94526         44.1162          5.1522         98.1817 
        2.95753           43.84         5.09918         97.5202 
        2.96982         43.3324         5.04682         96.8864 
        2.98209         43.0677          4.9953         96.2178 
        2.99436         42.9135         4.94446         95.5465 
        3.00666         42.6415         4.89423         94.9061 
        3.01894         42.3613          4.8448         94.2773 
        3.03119         42.0892         4.79613         93.6783 
        3.04345         41.8393         4.74812         93.0701 
        3.05573         41.8054         4.70067          92.442 
          3.068         41.4439         4.65392         91.8372 
        3.08026         41.2002         4.60785         91.2293 
        3.09254          41.257         4.56233         90.6357 
        3.10483         40.9992          4.5174         90.0444 
         3.1171         40.8796         4.47315         89.4445 
        3.12933         40.7397         4.42961         88.8534 
        3.14159         40.6227         4.38655         88.2726 
