# k  (h/Mpc)    Pcb(k)  (Mpc/h)^3    Pcb_linear(k) (Mpc/h)^3    Pcb_NL(k) (Mpc/h)^3   ShotnoiseSubtracted = false
      0.0156606           12681         12722.8         12640.9 
      0.0273761         10926.1         11002.4         10925.2 
      0.0384619         8287.08          8289.8         8228.77 
      0.0498308         6434.87         6520.79         6462.01 
      0.0625568         5432.52         5542.03         5487.42 
      0.0751274         4797.36         4708.64         4629.55 
      0.0867833         3742.76         3791.01         3769.39 
      0.0984825         3114.75         3000.12         3028.39 
       0.111151         2640.97         2505.06          2536.2 
       0.123864         2370.39         2257.57          2283.5 
       0.135742         2146.78         2030.13         2056.67 
        0.14762         1850.46         1735.86         1804.34 
       0.160083         1547.91         1446.94          1527.9 
       0.172465         1379.47         1262.91         1364.53 
       0.184281         1266.45         1164.25         1268.99 
       0.196406          1169.6         1075.18         1163.84 
       0.209011         1079.33         956.639         1050.76 
       0.221538         973.355         836.013         966.013 
       0.233611         910.396         748.015          894.17 
       0.245665         838.514          690.39         822.895 
       0.258103         798.974         642.694         774.238 
       0.270422         724.335         590.561          722.15 
       0.282519         669.984         535.967         674.351 
       0.294636         663.874         488.326         633.427 
       0.306978          593.57         451.783         602.378 
       0.319417         572.865         422.391         566.689 
        0.33169         539.419         394.257         533.653 
       0.343948         514.029         365.302         512.809 
       0.356249         482.103         338.148         490.604 
       0.368458         467.722         315.403          463.66 
        0.38068         449.181         296.383         443.102 
       0.392856         422.013          279.02         425.082 
       0.405069         405.021         262.042         410.979 
       0.417459         387.579         245.603         390.399 
       0.429752         375.501         230.847         375.962 
       0.441978          363.28         217.895         364.605 
       0.454294          341.71         206.134         348.118 
        0.46658         338.136         195.099         338.775 
       0.478753         325.006         184.688         326.973 
       0.490964         313.819         174.909          315.67 
       0.503334         296.126         165.883         306.749 
       0.515665         293.753         157.652         299.809 
       0.527909         284.271         150.054         290.055 
       0.540159         276.588         142.866         281.755 
        0.55248         271.139         136.045         273.516 
       0.564743         265.017         129.729         267.792 
        0.57686         255.261         123.925         259.563 
       0.589077         245.406         118.445         253.938 
       0.601441         242.166         113.235         247.857 
        0.61382          239.26         108.322         242.162 
       0.626067           233.7         103.738         236.525 
       0.638306         222.946         99.4212         231.853 
       0.650632         217.697         95.3311         224.653 
       0.662899         217.041         91.4984         221.106 
       0.675076         208.994         87.9065         216.306 
       0.687267         203.674         84.5029         211.532 
       0.699615         199.976         81.2369         207.435 
       0.711937          195.65         78.1495         203.426 
       0.724148         191.435         75.2487         200.402 
       0.736433          187.11         72.4809         195.928 
       0.748747          183.19         69.8481         192.001 
       0.761037         180.417         67.3525         188.304 
       0.773197         176.974         65.0046         186.081 
       0.785376         174.982          62.766         182.069 
       0.797761         171.027         60.5982         179.722 
       0.810096         167.652         58.5413         176.472 
       0.822371         161.845           56.59         173.522 
       0.834626         160.427         54.7311         170.618 
       0.846916         158.289         52.9514           168.1 
       0.859215         156.805         51.2502         165.447 
       0.871383         153.246         49.6411          162.69 
        0.88363         150.876         48.0918         160.864 
       0.895928         147.755         46.6031         158.543 
       0.908253         143.757         45.1749         155.669 
       0.920535         143.183         43.8117         153.672 
       0.932774         138.682         42.5098         151.214 
        0.94508         137.655         41.2545         149.435 
       0.957324         136.589         40.0562          147.23 
        0.96953         135.436         38.9094         144.891 
       0.981769         131.196         37.8048         143.595 
       0.994071         130.485         36.7381         141.589 
         1.0064         127.287         35.7109          139.47 
        1.01868          125.96         34.7261         137.926 
        1.03092         123.868         33.7831         136.282 
         1.0432         121.659         32.8718         134.509 
        1.05553         119.109         31.9908         133.108 
        1.06777         118.883         31.1485         131.644 
           1.08         116.411         30.3376         129.879 
        1.09227         114.995         29.5531         128.482 
         1.1046         112.994         28.7934          126.89 
         1.1169         111.664          28.062         125.178 
        1.12915         109.922         27.3596         123.871 
        1.14142         108.229         26.6799         122.302 
        1.15365         106.339         26.0255         120.969 
        1.16585         105.011         25.3947         119.491 
        1.17807         103.352         24.7842         118.538 
        1.19037         103.099         24.1899         117.278 
        1.20276          100.82          23.611         115.864 
        1.21504         100.002         23.0558         114.536 
        1.22728         97.8783         22.5208         113.321 
        1.23954         97.1743         22.0015         112.132 
        1.25184         95.1273         21.4977         111.002 
        1.26414         94.0217         21.0094         109.882 
        1.27632         93.1723         20.5408         109.221 
         1.2886          91.529         20.0832         107.607 
        1.30093         90.0101          19.638         106.435 
        1.31316         89.3314         19.2095         105.537 
        1.32541         88.2805         18.7938         104.591 
        1.33772         87.0412         18.3881         103.502 
        1.35005         86.1705         17.9942         102.431 
        1.36225         84.9369         17.6158         101.463 
        1.37447         83.1287         17.2476         100.373 
        1.38676         83.0553         16.8883         99.2748 
        1.39907         81.3012         16.5387         98.5399 
        1.41133         80.0104         16.2005         97.7637 
        1.42358         79.1495          15.872         96.6197 
        1.43591         78.5777         15.5505         95.6854 
        1.44818         77.5131         15.2397         94.8036 
        1.46037          76.387         14.9392         93.9996 
        1.47263         75.1506         14.6451         93.2503 
        1.48494         74.5947         14.3579         92.3071 
        1.49724         73.2992         14.0786         91.3361 
        1.50952         72.5641         13.8074          90.502 
        1.52178         71.6673         13.5436         89.7798 
        1.53409         71.0925         13.2858         88.9975 
        1.54637          69.338         13.0352         88.1383 
        1.55858         68.7359         12.7925          87.311 
        1.57081         68.0397         12.5556         86.6281 
        1.58313         66.9745         12.3233         85.8918 
        1.59544         66.2107         12.0969         85.0638 
        1.60767         65.4972         11.8778         84.3393 
        1.61994         64.5806         11.6633         83.7618 
        1.63225         63.6336         11.4537         82.7994 
        1.64452         62.9421         11.2498         82.2077 
        1.65676         61.9903         11.0515         81.4421 
          1.669         61.5741         10.8578         80.7976 
        1.68133         60.9076         10.6676         80.0616 
        1.69363         59.8673         10.4825         79.4898 
        1.70585         59.4558          10.303         78.7656 
        1.71809         58.1928         10.1273         78.2002 
        1.73038         57.6547         9.95516         77.4537 
        1.74268         56.8941         9.78692          76.841 
        1.75493         56.3146         9.62335         76.1677 
        1.76714         55.5853         9.46395         75.5161 
        1.77942         55.2672         9.30734         74.9183 
        1.79173         54.2816         9.15388         74.2313 
        1.80402         53.7429         9.00421         73.7218 
         1.8163         53.0691         8.85796         73.0205 
         1.8286         52.2699         8.71472         72.5735 
         1.8409         51.5571         8.57477         71.8729 
        1.85315         50.9606         8.43837         71.4364 
        1.86537         50.4155          8.3052         70.8027 
        1.87765         49.8574         8.17442          70.129 
        1.88995         49.2295         8.04614         69.6012 
        1.90221         48.8262         7.92106         69.0402 
        1.91445         48.0518         7.79885         68.5592 
        1.92674         47.5639          7.6788         67.9768 
        1.93902          46.993         7.56127         67.4021 
        1.95124         46.6053         7.44683         66.9785 
         1.9635         45.7504         7.33447         66.3611 
        1.97583         45.3228         7.22372         65.9286 
        1.98812         44.6231         7.11567         65.3491 
        2.00039         44.3384         7.01005         64.8304 
        2.01264         43.5862         6.90668          64.367 
        2.02492         43.1983         6.80524          63.884 
        2.03717         42.5762         6.70601         63.3306 
        2.04942         42.0642         6.60889         62.8919 
        2.06171          41.633         6.51336         62.3351 
        2.07397         41.0262         6.41994         61.9296 
        2.08629         40.5962         6.32795         61.4037 
        2.09857         40.2732         6.23799          60.997 
        2.11081         39.5982         6.15015         60.4773 
        2.12309          39.227         6.06379         60.0252 
        2.13538         38.7546         5.97896         59.6056 
        2.14763         38.4053         5.89605         59.1515 
        2.15986         38.1738         5.81489         58.6815 
        2.17214          37.422         5.73494         58.3273 
        2.18443         37.2287         5.65642         57.8092 
        2.19671         36.5718         5.57946         57.3657 
        2.20898         36.1391         5.50402         56.9313 
        2.22126         35.8573          5.4299         56.5037 
        2.23354         35.3878         5.35717         56.1473 
         2.2458         35.1034          5.2859         55.7107 
        2.25807         34.5109         5.21586         55.2698 
        2.27035          34.164         5.14703         54.8802 
        2.28263         33.7422         5.07948         54.4862 
         2.2949         33.3683         5.01317         54.0967 
        2.30718         33.0726         4.94803          53.698 
        2.31946         32.6521         4.88401         53.3173 
        2.33169         32.3649         4.82141         52.9053 
        2.34393         31.8834          4.7598         52.5001 
        2.35622         31.5439         4.69908         52.1636 
        2.36847         31.1759         4.63958         51.7475 
        2.38076         30.9696         4.58094         51.4223 
        2.39305         30.5838         4.52332         51.0557 
        2.40534         30.2721          4.4667         50.6172 
        2.41762         29.8845         4.41105         50.2747 
        2.42989         29.5584         4.35643         49.9436 
        2.44216          29.279         4.30275         49.5804 
         2.4544         28.9804         4.25009         49.2458 
        2.46667         28.5067         4.19819         48.8663 
        2.47897         28.3243         4.14704         48.5454 
        2.49124         28.0397         4.09688         48.1853 
        2.50349         27.6863         4.04762         47.8835 
        2.51578         27.3272         3.99903         47.5502 
        2.52805         27.1163         3.95132         47.1908 
        2.54029         26.9408          3.9045         46.8722 
        2.55257         26.5969          3.8583         46.5499 
        2.56487         26.3796         3.81277         46.2247 
        2.57716         26.0857         3.76803         45.9073 
        2.58942         25.7753         3.72411          45.604 
        2.60167         25.4892         3.68093         45.2547 
        2.61395         25.2676         3.63838          44.954 
        2.62624         25.0125         3.59643         44.6604 
        2.63849         24.8275         3.55528         44.3484 
        2.65073         24.5518         3.51482         44.0238 
        2.66302          24.224         3.47485         43.7518 
         2.6753         24.0424         3.43552         43.4519 
        2.68756         23.8125         3.39688         43.1678 
        2.69983         23.6437          3.3588          42.861 
        2.71213         23.3928         3.32124         42.5816 
        2.72441         23.2302         3.28431         42.2722 
        2.73665         22.9622         3.24803         41.9925 
         2.7489         22.7773         3.21232         41.7171 
        2.76118         22.6054         3.17704          41.409 
        2.77349         22.4505         3.14221         41.1603 
        2.78576         22.2706         3.10803         40.8855 
        2.79802         21.9563         3.07438         40.6091 
        2.81031         21.8579         3.04116         40.3592 
        2.82259         21.7188         3.00843         40.0782 
        2.83483           21.48         2.97631         39.8013 
         2.8471         21.4148          2.9446         39.5372 
         2.8594         21.1802         2.91325         39.2914 
         2.8717         20.9794         2.88237         39.0233 
        2.88396         20.8349         2.85205         38.7558 
        2.89619         20.7724         2.82223         38.5099 
        2.90847         20.6004         2.79271         38.2527 
        2.92072         20.4237         2.76367         38.0242 
        2.93299         20.3678         2.73503          37.773 
        2.94526         20.2386         2.70677         37.5254 
        2.95753          20.091         2.67892         37.2878 
        2.96982         20.0529         2.65141         37.0479 
        2.98209          19.868         2.62434         36.8135 
        2.99436         19.8487         2.59763         36.5784 
        3.00666         19.6877         2.57124         36.3373 
        3.01894         19.6383         2.54527         36.0921 
        3.03119          19.482          2.5197         35.8565 
        3.04345         19.4499         2.49448         35.6381 
        3.05573         19.3715         2.46955         35.4168 
          3.068           19.34         2.44499         35.1765 
        3.08026         19.3246         2.42079         34.9554 
        3.09254         19.2125         2.39687         34.7454 
        3.10483         19.1786         2.37327          34.531 
         3.1171         19.1434         2.35002         34.3125 
        3.12933          19.102         2.32715         34.0944 
        3.14159         19.0706         2.30453         33.8752 
