# k  (h/Mpc)    P(k)  (Mpc/h)^3    P_linear(k)  (Mpc/h)^3     P_NL(k)  ShotnoiseSubtracted = false
      0.0156606         20633.5         20657.8         20498.3 
      0.0273761           17665         17830.8         17644.5 
      0.0384619         13349.3         13421.3         13257.6 
      0.0498308         10307.7         10550.7         10386.6 
      0.0625568         8703.62         8963.17         8816.66 
      0.0751274         7743.71         7613.18            7407 
      0.0867833         6000.44         6128.41         6065.07 
      0.0984825         5062.67         4849.24         4907.19 
       0.111151         4326.47         4048.62         4119.82 
       0.123864         3875.89         3648.35         3706.08 
       0.135742         3531.29         3280.59         3338.61 
        0.14762          3071.5         2804.95            2959 
       0.160083         2604.62            2338         2527.31 
       0.172465            2323         2040.56         2281.42 
       0.184281         2107.66         1881.11          2123.2 
       0.196406         1983.81         1737.17         1954.63 
       0.209011         1853.58         1545.61         1771.13 
       0.221538          1669.5         1350.69            1652 
       0.233611         1597.35          1208.5         1546.87 
       0.245665         1448.97         1115.39            1428 
       0.258103         1430.64         1038.32         1347.99 
       0.270422         1276.46         954.091         1265.75 
       0.282519         1203.64         865.884         1196.99 
       0.294636         1183.63         788.911         1133.26 
       0.306978          1079.1         729.872         1085.49 
       0.319417            1056         682.384         1023.28 
        0.33169         993.038          636.93         968.597 
       0.343948         952.086         590.149         938.459 
       0.356249         901.331         546.279         903.326 
       0.368458         867.187         509.533         862.367 
        0.38068         851.312         478.807         829.151 
       0.392856         807.553         450.755         799.809 
       0.405069         767.022         423.325         774.403 
       0.417459          737.55         396.769         745.955 
       0.429752         731.675         372.929         719.867 
       0.441978         706.035         352.005         701.396 
       0.454294         674.091         333.004         672.636 
        0.46658         655.311         315.176         658.636 
       0.478753         641.976         298.357         638.434 
       0.490964         616.913         282.558         618.827 
       0.503334         589.589         267.978         604.766 
       0.515665         587.777         254.681         591.357 
       0.527909         563.712         242.407         578.376 
       0.540159         549.492         230.793         563.444 
        0.55248         538.566         219.774         548.764 
       0.564743         534.133         209.572         539.431 
        0.57686         515.364         200.194          525.04 
       0.589077         504.367         191.342         513.391 
       0.601441         494.252         182.925         503.191 
        0.61382         481.039         174.989         494.445 
       0.626067         475.381         167.583         484.961 
       0.638306         457.634         160.609         475.289 
       0.650632         453.077         154.002         463.547 
       0.662899         449.094          147.81         458.076 
       0.675076         433.533         142.008         451.419 
       0.687267         421.567         136.509         440.672 
       0.699615         418.847         131.233         433.724 
       0.711937         411.176         126.246         425.704 
       0.724148         397.431          121.56         419.817 
       0.736433         388.062         117.088         412.209 
       0.748747          383.07         112.835         404.854 
       0.761037         375.944         108.804          399.76 
       0.773197         370.777         105.011         393.445 
       0.785376           365.4         101.394         387.634 
       0.797761          354.78         97.8924         381.628 
       0.810096         351.645         94.5696         376.861 
       0.822371          341.03         91.4173         370.694 
       0.834626         338.308         88.4145         366.163 
       0.846916         332.051         85.5394         360.485 
       0.859215         329.665         82.7912         355.294 
       0.871383         321.635         80.1917         350.516 
        0.88363         318.864          77.689         346.944 
       0.895928         313.312         75.2841         341.484 
       0.908253         305.429          72.977         335.971 
       0.920535         300.875         70.7748         332.057 
       0.932774         295.118         68.6716         327.182 
        0.94508         290.846         66.6437         323.822 
       0.957324         288.772         64.7079         319.447 
        0.96953         284.723         62.8554         315.518 
       0.981769         277.288          61.071         312.108 
       0.994071         276.218         59.3478         308.253 
         1.0064         270.528         57.6884         303.759 
        1.01868         267.486         56.0976         299.881 
        1.03092         259.522         54.5741         297.203 
         1.0432         256.601          53.102         293.604 
        1.05553         253.563         51.6787          289.62 
        1.06777         251.196         50.3182          286.47 
           1.08         245.207         49.0082         283.233 
        1.09227         243.691         47.7408         279.838 
         1.1046         239.335         46.5136         277.126 
         1.1169         233.807          45.332         273.398 
        1.12915         230.774         44.1974         270.797 
        1.14142         226.423         43.0994          267.48 
        1.15365         223.629         42.0421         264.659 
        1.16585          219.64         41.0233         261.574 
        1.17807         217.341         40.0371         259.023 
        1.19037         214.248         39.0769         256.753 
        1.20276         211.227         38.1418         253.405 
        1.21504         206.661         37.2449         250.605 
        1.22728         203.444         36.3806           247.6 
        1.23954         202.386         35.5417         245.488 
        1.25184         197.977         34.7278         242.827 
        1.26414         194.045         33.9391          240.47 
        1.27632         192.942         33.1821         238.412 
         1.2886         191.416         32.4429         235.578 
        1.30093         186.329         31.7236         232.727 
        1.31316         182.595         31.0315         230.282 
        1.32541         181.467         30.3599         228.111 
        1.33772          178.91         29.7046         225.893 
        1.35005         176.395         29.0682         223.355 
        1.36225         173.079          28.457         221.275 
        1.37447         170.554         27.8622         218.559 
        1.38676         168.705         27.2818         216.941 
        1.39907         166.152         26.7169         214.406 
        1.41133         163.111         26.1706          212.27 
        1.42358         161.187           25.64         210.269 
        1.43591         159.194         25.1206         208.249 
        1.44818         156.253         24.6185         206.178 
        1.46037         154.669          24.133         203.984 
        1.47263         151.935         23.6581         202.226 
        1.48494         150.124         23.1941         199.745 
        1.49724         147.861         22.7429         198.369 
        1.50952         145.104         22.3047         196.255 
        1.52178          144.11         21.8787         194.134 
        1.53409         141.114         21.4621         192.483 
        1.54637         139.251         21.0573         190.894 
        1.55858         137.341         20.6652         188.813 
        1.57081         135.053         20.2826         187.121 
        1.58313         133.232         19.9073         185.212 
        1.59544          130.81         19.5417         183.562 
        1.60767         129.753         19.1876         181.907 
        1.61994         127.369         18.8411          180.24 
        1.63225         125.597         18.5025          178.33 
        1.64452         123.417         18.1731         176.737 
        1.65676          121.71         17.8528         175.216 
          1.669         120.555           17.54         173.615 
        1.68133         118.086         17.2327         172.031 
        1.69363          116.15         16.9336         170.518 
        1.70585         114.234         16.6436             169 
        1.71809         112.787         16.3598         167.175 
        1.73038         111.755         16.0818         165.833 
        1.74268         110.607           15.81         164.226 
        1.75493         107.697         15.5458         162.856 
        1.76714          107.21         15.2882         161.487 
        1.77942         105.118         15.0353         159.885 
        1.79173         103.442         14.7874         158.513 
        1.80402         102.443         14.5456         157.106 
         1.8163         100.302         14.3093         155.775 
         1.8286         99.0437         14.0779         154.307 
         1.8409         98.2488         13.8519         152.871 
        1.85315         96.1116         13.6315         151.632 
        1.86537         95.3454         13.4164         150.375 
        1.87765         94.1433         13.2051         149.091 
        1.88995         92.4426         12.9979         147.707 
        1.90221         91.2421         12.7958         146.519 
        1.91445         90.0558         12.5984         145.112 
        1.92674         88.5906         12.4045         143.874 
        1.93902         87.3879         12.2146         142.582 
        1.95124         86.2955         12.0298         141.382 
         1.9635          84.866         11.8482         140.135 
        1.97583         83.5536         11.6693         138.968 
        1.98812         82.4654         11.4948         137.906 
        2.00039          81.482         11.3242          136.62 
        2.01264         80.4279         11.1572         135.498 
        2.02492         79.5493         10.9933         134.279 
        2.03717         78.1595          10.833         133.199 
        2.04942         77.4622         10.6761          132.12 
        2.06171         75.7899         10.5218          130.97 
        2.07397         75.0076         10.3709         129.936 
        2.08629         74.0332         10.2223         128.806 
        2.09857         72.9952          10.077         127.768 
        2.11081         71.7286         9.93507         126.589 
        2.12309          70.734         9.79556         125.671 
        2.13538         69.7799         9.65853         124.563 
        2.14763         68.9017         9.52458         123.569 
        2.15986         67.9142         9.39349         122.478 
        2.17214         67.1284         9.26433         121.499 
        2.18443         66.2171         9.13748         120.671 
        2.19671          65.203         9.01316         119.632 
        2.20898          64.544          8.8913         118.572 
        2.22126         63.5621         8.77156          117.67 
        2.23354         62.8368         8.65407         116.734 
         2.2458         61.6456         8.53893         115.795 
        2.25807         60.9601         8.42579         114.844 
        2.27035         60.1029         8.31461         113.906 
        2.28263         59.2994         8.20548         113.026 
         2.2949         58.3715         8.09837         112.138 
        2.30718         57.5138         7.99314         111.256 
        2.31946         57.0961         7.88972         110.302 
        2.33169         56.0664         7.78859         109.467 
        2.34393         55.6286         7.68907         108.676 
        2.35622         54.5584         7.59097         107.789 
        2.36847         54.1562         7.49486         107.053 
        2.38076         53.2305         7.40013         106.079 
        2.39305         52.6356         7.30706         105.364 
        2.40534          51.928         7.21558         104.493 
        2.41762         51.3306         7.12569         103.643 
        2.42989         50.5096         7.03746         102.908 
        2.44216         50.0159         6.95074          102.05 
         2.4544         49.2121         6.86567           101.3 
        2.46667         48.6454         6.78184         100.519 
        2.47897         48.1061          6.6992         99.7124 
        2.49124         47.6064         6.61817         98.9925 
        2.50349         47.0795          6.5386          98.234 
        2.51578         46.3698          6.4601         97.5837 
        2.52805         45.8124         6.38302         96.7608 
        2.54029         45.3519          6.3074         96.0026 
        2.55257          44.756         6.23277         95.3459 
        2.56487         44.4864         6.15921         94.6619 
        2.57716         43.7837         6.08694         93.9463 
        2.58942         43.1749         6.01599         93.2449 
        2.60167         42.6773         5.94624         92.5648 
        2.61395         42.2381          5.8775         91.8812 
        2.62624         41.6366         5.80974         91.1479 
        2.63849         41.1809         5.74327         90.4995 
        2.65073         40.7636         5.67791         89.8412 
        2.66302         40.2933         5.61333         89.1588 
         2.6753         39.8786          5.5498         88.5443 
        2.68756           39.47         5.48738         87.8735 
        2.69983         38.9496         5.42587         87.2685 
        2.71213         38.5744         5.36518         86.6419 
        2.72441         38.1703         5.30553         86.0054 
        2.73665         37.7049         5.24693         85.4102 
         2.7489         37.3119         5.18925         84.8063 
        2.76118         36.9747         5.13225         84.1875 
        2.77349         36.5406         5.07598         83.5928 
        2.78576         36.1976         5.02077         82.9675 
        2.79802         35.8859         4.96641         82.4576 
        2.81031         35.3899         4.91274         81.8522 
        2.82259         35.2027         4.85987         81.2443 
        2.83483         34.7419         4.80799         80.7236 
         2.8471         34.4528         4.75676         80.1374 
         2.8594          34.129         4.70612         79.5581 
         2.8717         33.9571         4.65623          79.041 
        2.88396         33.5717         4.60726         78.4831 
        2.89619         33.3598         4.55908         77.8932 
        2.90847         32.9918          4.5114         77.3344 
        2.92072         32.8067         4.46449          76.853 
        2.93299         32.6516         4.41822          76.344 
        2.94526         32.2761         4.37256         75.8111 
        2.95753         32.0656         4.32757         75.2762 
        2.96982          31.765         4.28313         74.7727 
        2.98209         31.5914         4.23941         74.2797 
        2.99436         31.3356         4.19625         73.7401 
        3.00666         31.2828         4.15363         73.2473 
        3.01894         30.9537         4.11168         72.7528 
        3.03119         30.9082         4.07037         72.2843 
        3.04345         30.7573         4.02963         71.8161 
        3.05573         30.4538         3.98936         71.3277 
          3.068         30.3876         3.94968         70.8526 
        3.08026         30.2218         3.91059         70.3751 
        3.09254         30.1556         3.87195         69.9177 
        3.10483           30.13         3.83382         69.4626 
         3.1171         29.9674         3.79627         68.9984 
        3.12933         29.8248         3.75931          68.537 
        3.14159         29.7159         3.72277         68.0715 
