# k  (h/Mpc)    Pcb(k)  (Mpc/h)^3    Pcb_linear(k) (Mpc/h)^3    Pcb_NL(k) (Mpc/h)^3   ShotnoiseSubtracted = false
      0.0156606         2228.05          2229.4         2218.62 
      0.0273761         1937.05         1929.27         1924.32 
      0.0384619         1471.89         1454.06         1452.73 
      0.0498308          1154.6         1143.96         1143.52 
      0.0625568          974.19         972.355         971.031 
      0.0751274         841.421         826.187         823.549 
      0.0867833         668.531         665.204         664.905 
      0.0984825         540.665         526.442         528.227 
       0.111151         452.588         439.581         441.293 
       0.123864         406.511         396.158         397.377 
       0.135742          365.09          356.25         357.425 
        0.14762         310.156         304.614         307.487 
       0.160083         257.629         253.916         257.225 
       0.172465         226.711         221.621         225.571 
       0.184281         210.143          204.31         208.489 
       0.196406         191.736          188.68         191.862 
       0.209011         172.509         167.878         171.519 
       0.221538         152.934          146.71          151.82 
       0.233611         137.601         131.268         136.938 
       0.245665         129.105         121.155         126.188 
       0.258103         116.368         112.785         117.792 
       0.270422         109.209         103.637          108.48 
       0.282519          99.065         94.0563         99.2546 
       0.294636         93.9152         85.6959         91.1763 
       0.306978         83.2854         79.2832         84.9381 
       0.319417         79.3636         74.1252         79.6008 
        0.33169         73.7548          69.188         74.4767 
       0.343948         69.8473         64.1068         69.4522 
       0.356249         64.0029         59.3415          65.257 
       0.368458         60.9296         55.3501         60.7527 
        0.38068         57.0153         52.0122         57.3755 
       0.392856         53.3687         48.9652         54.3781 
       0.405069         50.4534         45.9858         51.2036 
       0.417459         47.0448          43.101         48.4091 
       0.429752         44.9911         40.5114         45.8045 
       0.441978         42.7982         38.2385         43.7528 
       0.454294          39.847         36.1745          41.399 
        0.46658         39.3239         34.2379         39.4164 
       0.478753          36.596          32.411         37.5978 
       0.490964         35.2908         30.6949         36.0101 
       0.503334         33.7772         29.1109         34.2353 
       0.515665         31.9818         27.6665         32.9997 
       0.527909         30.6011         26.3331         31.2738 
       0.540159         29.2418         25.0716         29.9997 
        0.55248         27.3306         23.8746         28.6869 
       0.564743         26.9457         22.7663         27.7077 
        0.57686         25.9838         21.7476         26.5973 
       0.589077         24.4342          20.786         25.6952 
       0.601441         23.5224         19.8717         24.7142 
        0.61382         22.6672         19.0096         23.7043 
       0.626067          21.749         18.2051          22.913 
       0.638306         20.9928         17.4475         22.0466 
       0.650632         20.4256         16.7297         21.3329 
       0.662899         19.4769         16.0571         20.5547 
       0.675076         18.5672         15.4268         19.8662 
       0.687267          18.228         14.8295         19.1754 
       0.699615         17.6241         14.2563         18.5915 
       0.711937         16.7057         13.7145         17.9964 
       0.724148         16.5876         13.2055           17.48 
       0.736433         15.6314         12.7197         16.8948 
       0.748747         15.2902         12.2577         16.4239 
       0.761037         14.9188         11.8198         15.9532 
       0.773197         14.3283         11.4077         15.5213 
       0.785376          13.808         11.0149         15.0737 
       0.797761         13.4574         10.6344         14.6311 
       0.810096         13.1178         10.2735         14.2803 
       0.822371         12.7623         9.93103          13.837 
       0.834626         12.3458         9.60482         13.5022 
       0.846916         11.9397         9.29249         13.1448 
       0.859215         11.4975         8.99395         12.8209 
       0.871383         11.2525         8.71156          12.522 
        0.88363         10.9594         8.43968         12.1968 
       0.895928         10.7395         8.17843         11.8752 
       0.908253         10.4366          7.9278         11.6053 
       0.920535         10.1005         7.68857         11.3133 
       0.932774         9.92614         7.46009         11.0053 
        0.94508         9.58722         7.23979         10.7935 
       0.957324         9.38838         7.02951         10.5727 
        0.96953         9.05563         6.82825         10.3211 
       0.981769          8.9449         6.63441         10.0772 
       0.994071         8.72635         6.44721         9.86485 
         1.0064         8.42723         6.26695         9.65796 
        1.01868          8.2503         6.09413         9.45175 
        1.03092         8.09599         5.92863         9.23948 
         1.0432         7.79691         5.76871         9.04915 
        1.05553          7.6689          5.6141         8.88813 
        1.06777         7.43911         5.46629         8.70123 
           1.08         7.31094         5.32398         8.52616 
        1.09227         7.14404          5.1863         8.35412 
         1.1046         6.98792         5.05299         8.18088 
         1.1169         6.76273         4.92462         8.02793 
        1.12915         6.74102         4.80137         7.90536 
        1.14142         6.48487         4.68209         7.73102 
        1.15365         6.38293         4.56724         7.59125 
        1.16585         6.29453         4.45655         7.47079 
        1.17807         6.12366         4.34942         7.31308 
        1.19037         5.98271         4.24511         7.18637 
        1.20276         5.84443         4.14353         7.05036 
        1.21504         5.73977         4.04609         6.94425 
        1.22728         5.59769          3.9522         6.80817 
        1.23954         5.50668         3.86107         6.71538 
        1.25184         5.38519         3.77265         6.58925 
        1.26414         5.31533         3.68697         6.46737 
        1.27632         5.15281         3.60473         6.37626 
         1.2886          5.0906         3.52443         6.26874 
        1.30093         4.98002         3.44629         6.18398 
        1.31316         4.85105          3.3711         6.07348 
        1.32541         4.78368         3.29815         5.99115 
        1.33772          4.6949         3.22695         5.88425 
        1.35005         4.61917         3.15782         5.80053 
        1.36225         4.52682         3.09142         5.70121 
        1.37447         4.44012         3.02681         5.62949 
        1.38676         4.34919         2.96375         5.54064 
        1.39907         4.26317         2.90239         5.46533 
        1.41133         4.19892         2.84304         5.38227 
        1.42358         4.12397          2.7854           5.299 
        1.43591         4.06688         2.72898         5.23805 
        1.44818         3.96231         2.67443         5.16009 
        1.46037          3.8879         2.62169         5.08421 
        1.47263         3.83185         2.57009         5.01827 
        1.48494         3.77938         2.51969         4.94758 
        1.49724         3.70484         2.47067          4.8784 
        1.50952         3.68502         2.42307          4.8152 
        1.52178         3.59039         2.37679         4.75482 
        1.53409         3.51724         2.33154          4.6809 
        1.54637         3.47091         2.28756         4.62332 
        1.55858         3.41732         2.24496         4.55421 
        1.57081         3.35297          2.2034         4.51136 
        1.58313         3.29668         2.16262         4.44875 
        1.59544         3.24551         2.12291          4.3983 
        1.60767          3.2053         2.08445         4.33841 
        1.61994         3.14086          2.0468         4.29057 
        1.63225         3.08916         2.01002         4.23626 
        1.64452         3.03953         1.97423         4.18129 
        1.65676         2.98714         1.93944         4.13377 
          1.669         2.95537         1.90545         4.08465 
        1.68133         2.87941         1.87207         4.03932 
        1.69363         2.87298         1.83959         3.99301 
        1.70585         2.82458         1.80808         3.94303 
        1.71809         2.79023         1.77725         3.90082 
        1.73038         2.74086         1.74704         3.85311 
        1.74268         2.69131         1.71752         3.81177 
        1.75493         2.66038         1.68881         3.76969 
        1.76714         2.62989         1.66084         3.72226 
        1.77942         2.58674         1.63336         3.68544 
        1.79173         2.55216         1.60643         3.64078 
        1.80402         2.51382         1.58016         3.60365 
         1.8163          2.4925          1.5545         3.56727 
         1.8286         2.44427         1.52936         3.53404 
         1.8409         2.40721          1.5048         3.49588 
        1.85315         2.38119         1.48086         3.44995 
        1.86537         2.35159         1.45749         3.42215 
        1.87765         2.31682         1.43454         3.38571 
        1.88995         2.28079         1.41203         3.35191 
        1.90221         2.25136         1.39008         3.31603 
        1.91445         2.22737         1.36863          3.2895 
        1.92674         2.20532         1.34756         3.24905 
        1.93902          2.1637         1.32694          3.2132 
        1.95124         2.13391         1.30685         3.18773 
         1.9635         2.11858         1.28714         3.15444 
        1.97583         2.07786          1.2677         3.12461 
        1.98812         2.05394         1.24874         3.09553 
        2.00039         2.02901          1.2302         3.06342 
        2.01264         1.99759         1.21206         3.04142 
        2.02492         1.97921         1.19426         3.01179 
        2.03717         1.95788         1.17685         2.98068 
        2.04942         1.92974          1.1598         2.95173 
        2.06171         1.90271         1.14304         2.92345 
        2.07397         1.88294         1.12664         2.89882 
        2.08629         1.86471          1.1105         2.87604 
        2.09857         1.84059         1.09471         2.84798 
        2.11081         1.81663          1.0793         2.82147 
        2.12309          1.8007         1.06414         2.79959 
        2.13538         1.77276         1.04926         2.77364 
        2.14763         1.76398          1.0347         2.74866 
        2.15986         1.74083         1.02046         2.72789 
        2.17214         1.70979         1.00643         2.69842 
        2.18443         1.70076        0.992651         2.67831 
        2.19671         1.68044        0.979146         2.65632 
        2.20898         1.66007        0.965907         2.63479 
        2.22126         1.64337          0.9529         2.61306 
        2.23354         1.62428        0.940136         2.59058 
         2.2458         1.61345        0.927629         2.56654 
        2.25807         1.58812        0.915338         2.54651 
        2.27035         1.57163        0.903259         2.52786 
        2.28263         1.54982        0.891404         2.50754 
         2.2949         1.54241        0.879768         2.48744 
        2.30718         1.52449        0.868336         2.46853 
        2.31946         1.50305        0.857102         2.44838 
        2.33169         1.49201        0.846115         2.42931 
        2.34393         1.48388        0.835304         2.41108 
        2.35622         1.46203        0.824647         2.39224 
        2.36847         1.44939        0.814206         2.37247 
        2.38076         1.42967        0.803914           2.354 
        2.39305         1.41763        0.793804         2.33424 
        2.40534         1.40565        0.783867         2.31938 
        2.41762         1.38829        0.774101         2.30175 
        2.42989         1.37704        0.764516         2.28572 
        2.44216         1.36659        0.755095          2.2678 
         2.4544         1.35532        0.745854         2.25272 
        2.46667         1.33784        0.736746         2.23578 
        2.47897         1.32794        0.727769          2.2175 
        2.49124         1.31234        0.718966         2.20279 
        2.50349         1.30231        0.710322         2.18565 
        2.51578         1.29039        0.701794         2.16815 
        2.52805         1.27509        0.693421         2.15434 
        2.54029         1.26887        0.685206         2.13882 
        2.55257         1.25348        0.677099         2.12357 
        2.56487         1.24281        0.669107         2.10987 
        2.57716         1.23729        0.661256         2.09401 
        2.58942         1.22746        0.653549         2.08006 
        2.60167         1.21664        0.645971         2.06521 
        2.61395         1.20196        0.638503         2.05254 
        2.62624         1.19526        0.631142         2.03792 
        2.63849         1.18594        0.623921         2.02355 
        2.65073         1.17606        0.616821         2.00985 
        2.66302          1.1665        0.609805         1.99641 
         2.6753         1.16421        0.602903         1.98362 
        2.68756         1.15073        0.596122         1.97127 
        2.69983         1.14231        0.589441         1.95769 
        2.71213         1.13215        0.582848         1.94528 
        2.72441         1.12492        0.576368         1.93236 
        2.73665         1.11765        0.570002         1.92146 
         2.7489         1.11017        0.563735         1.91009 
        2.76118          1.1013        0.557543         1.89569 
        2.77349         1.09788         0.55143         1.88401 
        2.78576         1.09215        0.545433         1.87231 
        2.79802         1.08527        0.539528          1.8596 
        2.81031         1.07562        0.533696         1.84864 
        2.82259         1.06862        0.527953         1.83631 
        2.83483         1.06551        0.522317         1.82558 
         2.8471         1.05954        0.516751         1.81399 
         2.8594         1.05361         0.51125         1.80312 
         2.8717         1.04966        0.505831         1.79315 
        2.88396           1.042        0.500511           1.782 
        2.89619         1.03753        0.495276         1.77076 
        2.90847         1.03203        0.490097         1.76016 
        2.92072          1.0299        0.485001         1.75008 
        2.93299         1.02586        0.479974         1.73903 
        2.94526         1.02372        0.475015         1.72909 
        2.95753         1.01874        0.470126          1.7193 
        2.96982         1.01502        0.465299         1.70877 
        2.98209         1.01291        0.460549         1.69904 
        2.99436         1.01029        0.455861         1.68922 
        3.00666         1.00971        0.451231         1.67928 
        3.01894         1.00595        0.446674         1.67008 
        3.03119         1.00402        0.442186          1.6603 
        3.04345         1.00075         0.43776         1.65098 
        3.05573        0.999574        0.433385         1.64246 
          3.068        0.998285        0.429075         1.63316 
        3.08026        0.996763        0.424828         1.62357 
        3.09254        0.998802         0.42063         1.61439 
        3.10483        0.999327        0.416488         1.60588 
         3.1171         0.99992        0.412408         1.59719 
        3.12933        0.999491        0.408394           1.588 
        3.14159        0.998827        0.404424         1.57937 
