# k  (h/Mpc)    Pcb(k)  (Mpc/h)^3    Pcb_linear(k) (Mpc/h)^3    Pcb_NL(k) (Mpc/h)^3   ShotnoiseSubtracted = false
      0.0156606         24089.3         24235.3         24034.8 
      0.0273761         20621.1         20951.8         20702.7 
      0.0384619         15579.9         15783.8         15559.4 
      0.0498308         12018.7         12414.5         12187.7 
      0.0625568         10158.2         10550.5         10350.2 
      0.0751274          9063.7         8963.63         8683.41 
      0.0867833          7011.7         7216.62         7128.85 
      0.0984825         5949.47         5710.97         5785.34 
       0.111151         5102.01         4768.52         4864.22 
       0.123864         4569.17         4297.38         4374.44 
       0.135742         4174.44         3864.39          3941.3 
        0.14762         3642.06         3304.24         3506.47 
       0.160083         3110.94         2754.26         3005.75 
       0.172465         2774.63         2403.94         2724.65 
       0.184281         2507.52         2216.14         2536.06 
       0.196406         2380.49          2046.6         2339.76 
       0.209011         2235.42         1820.95         2123.75 
       0.221538         2010.28         1591.33         1989.23 
       0.233611         1937.25         1423.83         1869.23 
       0.245665         1753.51         1314.14         1728.93 
       0.258103         1747.66         1223.35         1634.28 
       0.270422         1559.35         1124.12         1538.28 
       0.282519          1479.6          1020.2         1461.73 
       0.294636         1446.99         929.512         1387.26 
       0.306978         1329.63         859.954         1331.95 
       0.319417         1309.52         804.007          1256.7 
        0.33169         1229.43         750.454         1192.61 
       0.343948         1184.52         695.339         1157.32 
       0.356249         1127.27         643.651         1116.26 
       0.368458         1078.27         600.358         1070.18 
        0.38068         1066.68         564.153         1031.49 
       0.392856         1015.85         531.103         997.633 
       0.405069         961.122         498.787          964.27 
       0.417459         924.893         467.496         934.187 
       0.429752         926.568         439.407         902.091 
       0.441978         894.278         414.754         880.365 
       0.454294         857.265         392.367          845.88 
        0.46658         833.682         371.362          829.39 
       0.478753         820.065         351.546         805.585 
       0.490964         790.119         332.932          781.75 
       0.503334         757.826         315.751         765.703 
       0.515665         754.409         300.085         748.124 
       0.527909         722.565         285.622         734.059 
       0.540159         707.106         271.939         716.829 
        0.55248         692.495         258.956         698.892 
       0.564743         686.129         246.934          687.15 
        0.57686         666.241         235.885         669.751 
       0.589077         658.115         225.455         655.727 
       0.601441         639.861         215.537         643.677 
        0.61382         621.435         206.186         632.225 
       0.626067         616.158         197.461          621.36 
       0.638306         594.286         189.244         608.683 
       0.650632         588.876         181.458         595.542 
       0.662899         584.391         174.163         587.977 
       0.675076         568.079         167.326         580.785 
       0.687267         551.372         160.847         567.552 
       0.699615         551.902         154.631         558.585 
       0.711937         538.274         148.754         547.936 
       0.724148         522.143         143.232         541.247 
       0.736433         510.663         137.964         532.046 
       0.748747         504.488         132.953         522.984 
       0.761037         496.039         128.202         517.038 
       0.773197          487.27         123.733         508.101 
       0.785376         482.882         119.472         501.034 
       0.797761         468.742         115.346         494.398 
       0.810096         461.455         111.431         487.874 
       0.822371         451.512         107.716         480.192 
       0.834626         446.391         104.178         474.992 
       0.846916         441.303          100.79         467.619 
       0.859215         434.335         97.5523         460.708 
       0.871383         425.579         94.4894          454.82 
        0.88363         419.323         91.5405         450.282 
       0.895928         414.754         88.7068         443.469 
       0.908253         405.033         85.9883         436.079 
       0.920535         395.197         83.3936         431.903 
       0.932774         390.567         80.9153         425.178 
        0.94508         384.859         78.5259         421.176 
       0.957324         379.274          76.245         415.583 
        0.96953         374.673         74.0622         410.547 
       0.981769         366.405         71.9597         405.971 
       0.994071         365.281         69.9293          401.16 
         1.0064          358.87          67.974         395.369 
        1.01868         354.386         66.0995         390.494 
        1.03092         344.602         64.3045         387.119 
         1.0432         341.307         62.5699         382.457 
        1.05553         338.176         60.8929         377.162 
        1.06777             333         59.2897         372.766 
           1.08         325.768         57.7462         368.697 
        1.09227         325.688         56.2528         364.336 
         1.1046          318.64         54.8069         361.061 
         1.1169         312.926         53.4146         356.352 
        1.12915         307.927         52.0777         352.514 
        1.14142         302.033         50.7839          348.53 
        1.15365         298.529         49.5382           344.9 
        1.16585         294.246         48.3377         341.109 
        1.17807         291.345         47.1756         337.166 
        1.19037         285.258         46.0443         334.293 
        1.20276         282.883         44.9425         329.998 
        1.21504         277.394         43.8856         326.273 
        1.22728         273.297         42.8672         323.125 
        1.23954         271.529         41.8788          319.46 
        1.25184         265.467         40.9198         316.167 
        1.26414         260.787         39.9905         313.188 
        1.27632         257.669         39.0984         310.233 
         1.2886         254.829         38.2274         306.811 
        1.30093         249.924         37.3799         302.812 
        1.31316          244.99         36.5644         300.199 
        1.32541         243.778         35.7731          296.74 
        1.33772          239.11         35.0009         294.193 
        1.35005         236.297          34.251         290.852 
        1.36225         232.138         33.5308          288.15 
        1.37447         228.314           32.83         284.786 
        1.38676         226.177         32.1461          282.74 
        1.39907         222.914         31.4806         279.245 
        1.41133         218.847         30.8368         276.292 
        1.42358         215.988         30.2117          273.72 
        1.43591         213.001         29.5996         271.335 
        1.44818         209.028         29.0079         268.366 
        1.46037         207.385          28.436         265.519 
        1.47263         203.706         27.8763         262.819 
        1.48494         202.261         27.3296         259.773 
        1.49724         198.213          26.798         258.207 
        1.50952         195.224         26.2816         254.982 
        1.52178         192.303         25.7797         252.766 
        1.53409         189.495         25.2888         250.265 
        1.54637         186.367         24.8118         248.213 
        1.55858         184.337         24.3498         245.651 
        1.57081         181.287          23.899         243.104 
        1.58313         179.256         23.4567         240.666 
        1.59544         175.846         23.0259         238.538 
        1.60767         174.507         22.6088         236.444 
        1.61994         171.372         22.2005         233.964 
        1.63225         168.644         21.8015         231.608 
        1.64452         165.964         21.4134         229.566 
        1.65676         164.039         21.0359         227.648 
          1.669         162.111         20.6673         225.258 
        1.68133         158.907         20.3053         223.198 
        1.69363          156.33         19.9529         221.414 
        1.70585         154.042         19.6112         219.257 
        1.71809         151.994         19.2768          216.96 
        1.73038         149.707         18.9492         215.084 
        1.74268         148.468         18.6289             213 
        1.75493         145.674         18.3176         211.303 
        1.76714         144.549         18.0142         209.412 
        1.77942         141.868         17.7161         207.569 
        1.79173         140.066          17.424         205.488 
        1.80402         137.862         17.1391         203.673 
         1.8163         135.698         16.8607         202.073 
         1.8286         133.647          16.588         200.098 
         1.8409           131.9         16.3217         198.244 
        1.85315         129.616          16.062         196.596 
        1.86537         128.151         15.8085         194.909 
        1.87765         126.585         15.5596         193.234 
        1.88995         124.579         15.3154         191.399 
        1.90221         122.995         15.0774         189.904 
        1.91445          121.07         14.8447         188.137 
        1.92674         119.049         14.6162         186.416 
        1.93902          117.73         14.3925         184.738 
        1.95124         116.033         14.1747         183.204 
         1.9635         114.281         13.9608         181.615 
        1.97583         112.625           13.75         179.963 
        1.98812         110.957         13.5443         178.746 
        2.00039         109.802         13.3433             177 
        2.01264         108.394         13.1465         175.533 
        2.02492          106.52         12.9534         173.925 
        2.03717         105.169         12.7646         172.574 
        2.04942           103.8         12.5797         171.052 
        2.06171          102.16         12.3979         169.501 
        2.07397         100.689           12.22         168.252 
        2.08629         99.2483         12.0449         166.799 
        2.09857         98.0907         11.8737         165.465 
        2.11081         96.6031         11.7065         163.948 
        2.12309         95.3362         11.5421         162.658 
        2.13538         93.8696         11.3807          161.28 
        2.14763         92.4247         11.2228         159.941 
        2.15986         91.5653         11.0684          158.51 
        2.17214         90.2278         10.9162         157.362 
        2.18443         89.2834         10.7667         156.159 
        2.19671         88.1236         10.6202          154.79 
        2.20898         86.7554         10.4766         153.403 
        2.22126         85.6624         10.3355         152.279 
        2.23354         84.5139         10.1971         151.112 
         2.2458         82.8404         10.0614         149.783 
        2.25807          82.308         9.92813         148.606 
        2.27035         81.1217         9.79712          147.43 
        2.28263          80.092         9.66854         146.303 
         2.2949         78.8244         9.54232         145.147 
        2.30718         77.5796         9.41833          143.95 
        2.31946         76.7407         9.29648          142.72 
        2.33169         75.6152         9.17731         141.655 
        2.34393         74.7133         9.06005         140.681 
        2.35622         73.7124         8.94446         139.448 
        2.36847         72.7506         8.83121         138.462 
        2.38076         71.5339         8.71959          137.31 
        2.39305         70.9408         8.60992         136.319 
        2.40534         69.7754         8.50214          135.19 
        2.41762         69.1926         8.39621         134.139 
        2.42989         67.9882         8.29226         133.137 
        2.44216         67.3821         8.19007         132.049 
         2.4544         66.6268         8.08984          131.11 
        2.46667          65.434         7.99105         130.114 
        2.47897         65.0012         7.89368         129.015 
        2.49124         64.1009         7.79821         128.047 
        2.50349         62.9682         7.70445         127.116 
        2.51578         62.5302         7.61195         126.221 
        2.52805         61.5018         7.52113         125.208 
        2.54029         60.9484         7.43202         124.272 
        2.55257         60.1959         7.34409         123.388 
        2.56487         59.6596         7.25742         122.475 
        2.57716         58.9691         7.17226          121.55 
        2.58942          58.151         7.08866         120.668 
        2.60167         57.3985         7.00647         119.808 
        2.61395          56.915         6.92547         118.889 
        2.62624         56.1657         6.84563         117.961 
        2.63849         55.4852         6.76731         117.159 
        2.65073          54.708         6.69029         116.264 
        2.66302         54.2375          6.6142         115.461 
         2.6753         53.4951         6.53934         114.632 
        2.68756          53.073         6.46579         113.774 
        2.69983         52.5197         6.39332         112.954 
        2.71213         51.9476         6.32181         112.148 
        2.72441         51.4052         6.25152         111.324 
        2.73665         50.7992         6.18247         110.556 
         2.7489         50.3297          6.1145         109.784 
        2.76118         49.8647         6.04735         108.971 
        2.77349         49.3809         5.98104         108.219 
        2.78576         48.8726         5.91599          107.44 
        2.79802         48.4403         5.85194         106.736 
        2.81031         47.9229         5.78869         105.976 
        2.82259         47.4405          5.7264          105.18 
        2.83483         46.9382         5.66526          104.49 
         2.8471         46.4478          5.6049         103.743 
         2.8594         46.0402         5.54523         103.021 
         2.8717         45.6863         5.48645         102.348 
        2.88396         45.1842         5.42874         101.641 
        2.89619         44.9637         5.37197          100.91 
        2.90847         44.5084         5.31579         100.171 
        2.92072         44.0932         5.26052         99.5585 
        2.93299         43.8392           5.206         98.8895 
        2.94526         43.5012          5.1522         98.1817 
        2.95753         43.2284         5.09918         97.5202 
        2.96982         42.7276         5.04682         96.8864 
        2.98209         42.4663          4.9953         96.2178 
        2.99436          42.314         4.94446         95.5465 
        3.00666         42.0464         4.89423         94.9061 
        3.01894          41.767          4.8448         94.2773 
        3.03119         41.4983         4.79613         93.6783 
        3.04345         41.2494         4.74812         93.0701 
        3.05573         41.2167         4.70067          92.442 
          3.068         40.8603         4.65392         91.8372 
        3.08026         40.6201         4.60785         91.2293 
        3.09254         40.6739         4.56233         90.6357 
        3.10483         40.4204          4.5174         90.0444 
         3.1171         40.3024         4.47315         89.4445 
        3.12933         40.1608         4.42961         88.8534 
        3.14159         40.0469         4.38655         88.2726 
