# k  (h/Mpc)    Pcb(k)  (Mpc/h)^3    Pcb_linear(k) (Mpc/h)^3    Pcb_NL(k) (Mpc/h)^3   ShotnoiseSubtracted = false
      0.0156606         13545.4         13593.1         13503.3 
      0.0273761         11664.5         11754.7         11666.9 
      0.0384619         8845.08         8856.48         8785.62 
      0.0498308         6864.28         6966.49         6897.65 
      0.0625568          5795.7         5920.81         5857.33 
      0.0751274         5123.67         5030.44         4939.03 
      0.0867833         3993.94         4050.09          4024.5 
      0.0984825         3329.63         3205.15         3236.51 
       0.111151         2825.98         2676.25         2711.29 
       0.123864         2536.17         2411.85         2440.91 
       0.135742         2298.44         2168.86         2198.54 
        0.14762         1983.64         1854.49         1931.69 
       0.160083         1661.63         1545.82         1637.63 
       0.172465         1481.27         1349.21         1464.74 
       0.184281         1358.22         1243.81         1362.41 
       0.196406         1256.86         1148.66         1249.95 
       0.209011         1161.76         1022.01         1129.08 
       0.221538         1048.01         893.143         1040.49 
       0.233611         983.117         799.131         964.853 
       0.245665         903.498         737.568         888.184 
       0.258103         865.215         686.612         836.071 
       0.270422          782.29         630.917         780.608 
       0.282519         725.329         572.593         730.193 
       0.294636         718.788         521.696         686.764 
       0.306978         644.047         482.656          653.87 
       0.319417         622.479         451.256         615.289 
        0.33169         586.447         421.199          579.75 
       0.343948         558.931         390.265         558.034 
       0.356249         524.805         361.255         534.394 
       0.368458         509.197         336.956         505.671 
        0.38068         490.152         316.636         483.675 
       0.392856          461.11         298.087         464.305 
       0.405069         442.295         279.949          449.37 
       0.417459         423.614         262.387          427.52 
       0.429752         411.243         246.622         411.874 
       0.441978         397.871         232.785           399.7 
       0.454294          375.06          220.22         381.922 
        0.46658         370.099         208.431          372.07 
       0.478753         356.847         197.309         359.296 
       0.490964         344.365         186.862         347.112 
       0.503334         325.085         177.219          337.56 
       0.515665         323.102         168.426         330.064 
       0.527909         312.353         160.308         319.886 
       0.540159         304.198         152.629         310.777 
        0.55248         298.291         145.342         301.925 
       0.564743         292.292         138.594         295.852 
        0.57686         281.321         132.393         286.938 
       0.589077         270.804         126.539         280.697 
       0.601441         267.615         120.973         274.094 
        0.61382         264.006         115.724         268.176 
       0.626067         258.499         110.827         262.071 
       0.638306         246.677         106.215         256.995 
       0.650632         241.411         101.846         249.211 
       0.662899         240.335         97.7509         245.587 
       0.675076         231.313         93.9135         240.448 
       0.687267         225.511         90.2773         235.068 
       0.699615         221.665         86.7882         230.681 
       0.711937         217.319         83.4898         226.384 
       0.724148         212.087         80.3908         222.988 
       0.736433         207.489         77.4338         218.162 
       0.748747          203.41         74.6212         213.869 
       0.761037         200.242          71.955         209.991 
       0.773197         196.784         69.4466         207.415 
       0.785376         194.521         67.0551         203.174 
       0.797761         189.988         64.7391         200.468 
       0.810096         186.741         62.5417         197.094 
       0.822371         179.974          60.457         193.811 
       0.834626         178.894         58.4712         190.659 
       0.846916         176.116         56.5698          187.88 
       0.859215         175.003         54.7524         185.023 
       0.871383         170.742         53.0333         181.988 
        0.88363         168.553         51.3781          180.02 
       0.895928         164.914         49.7877         177.357 
       0.908253         160.432          48.262         174.229 
       0.920535         159.893         46.8056         171.945 
       0.932774         154.671         45.4147          169.35 
        0.94508         153.515         44.0736          167.47 
       0.957324         152.763         42.7934         164.942 
        0.96953         151.143         41.5683         162.388 
       0.981769         146.473         40.3882         160.944 
       0.994071          145.79         39.2486         158.751 
         1.0064         142.236         38.1512         156.342 
        1.01868         140.607         37.0991         154.635 
        1.03092         138.388         36.0916         152.855 
         1.0432         135.826         35.1181         150.898 
        1.05553         133.262         34.1769         149.242 
        1.06777         133.056         33.2771         147.668 
           1.08         130.117         32.4107         145.687 
        1.09227         128.682         31.5725         144.213 
         1.1046         126.507          30.761         142.461 
         1.1169         124.983         29.9795         140.541 
        1.12915         122.992         29.2292         139.101 
        1.14142          121.14         28.5031         137.313 
        1.15365         119.289         27.8039          135.85 
        1.16585         117.707         27.1301          134.14 
        1.17807         115.911         26.4779         133.147 
        1.19037         115.545         25.8429         131.726 
        1.20276          113.05         25.2245         130.128 
        1.21504         111.978         24.6313         128.684 
        1.22728         109.698         24.0597         127.235 
        1.23954         108.965          23.505         126.022 
        1.25184         106.652         22.9667          124.68 
        1.26414         105.413         22.4451         123.409 
        1.27632         104.621         21.9445         122.747 
         1.2886         102.721         21.4556         120.923 
        1.30093         100.709         20.9799         119.626 
        1.31316         100.213         20.5222         118.505 
        1.32541         98.8825         20.0781         117.531 
        1.33772         97.6631         19.6447         116.289 
        1.35005         96.5841         19.2238         115.043 
        1.36225         95.3115         18.8196         113.993 
        1.37447         93.3527         18.4262         112.761 
        1.38676         93.1293         18.0424         111.537 
        1.39907         91.0669         17.6688         110.658 
        1.41133         89.7694         17.3075         109.773 
        1.42358         88.7535         16.9567         108.583 
        1.43591         88.1626         16.6131         107.447 
        1.44818         87.0735          16.281         106.529 
        1.46037         85.6504           15.96          105.54 
        1.47263         84.2781         15.6459          104.72 
        1.48494         83.7456          15.339         103.641 
        1.49724          82.299         15.0407         102.541 
        1.50952          81.263         14.7509         101.638 
        1.52178         80.3755         14.4691         100.781 
        1.53409         79.6943         14.1937         99.8954 
        1.54637         77.8034         13.9259          98.957 
        1.55858         77.1139         13.6666         98.0293 
        1.57081         76.1742         13.4136         97.2135 
        1.58313         75.1166         13.1654         96.3605 
        1.59544         74.3182         12.9236          95.465 
        1.60767         73.3693         12.6894         94.6122 
        1.61994         72.4277         12.4603         93.9947 
        1.63225         71.3358         12.2363         92.8774 
        1.64452         70.5172         12.0185         92.1882 
        1.65676          69.465         11.8067         91.3635 
          1.669         69.0007         11.5998         90.6266 
        1.68133         68.2394         11.3966         89.7884 
        1.69363          67.192         11.1988         89.1227 
        1.70585         66.5871          11.007         88.2882 
        1.71809         65.2687         10.8193         87.6617 
        1.73038         64.5895         10.6354         86.7963 
        1.74268         63.6982         10.4557         86.1168 
        1.75493         63.1317          10.281         85.3442 
        1.76714          62.206         10.1107         84.6231 
        1.77942         61.8732         9.94335         83.9182 
        1.79173          60.787         9.77941         83.1738 
        1.80402         60.1402         9.61951         82.5747 
         1.8163         59.4314         9.46327         81.7671 
         1.8286         58.5429         9.31024         81.2379 
         1.8409          57.671         9.16072         80.4865 
        1.85315         56.9613           9.015          79.957 
        1.86537         56.4116         8.87273         79.2325 
        1.87765         55.7172         8.73301         78.4729 
        1.88995         55.0424         8.59597          77.907 
        1.90221         54.5669         8.46235         77.2624 
        1.91445         53.6542         8.33178         76.6889 
        1.92674         53.1546         8.20353          76.055 
        1.93902         52.5021         8.07797         75.3911 
        1.95124         52.0952         7.95571         74.9064 
         1.9635         51.1159         7.83567          74.188 
        1.97583         50.6264         7.71735         73.7025 
        1.98812         49.9294         7.60192         73.0449 
        2.00039         49.4512         7.48908         72.4679 
        2.01264         48.6806         7.37864           71.91 
        2.02492         48.1758         7.27028         71.3708 
        2.03717         47.5304         7.16426         70.7399 
        2.04942         46.9366         7.06051         70.2603 
        2.06171         46.3838         6.95845         69.6348 
        2.07397         45.7505         6.85864         69.1647 
        2.08629         45.2601         6.76037         68.5592 
        2.09857         44.9088         6.66426          68.088 
        2.11081         44.0246         6.57042         67.4955 
        2.12309         43.6747         6.47815          67.003 
        2.13538         43.1607         6.38753         66.4979 
        2.14763         42.7585         6.29895         65.9931 
        2.15986         42.3919         6.21225         65.4681 
        2.17214         41.6289         6.12684         65.0423 
        2.18443         41.4445         6.04294          64.488 
        2.19671         40.6815         5.96072          63.967 
        2.20898         40.2784         5.88013         63.4813 
        2.22126          39.865         5.80095         62.9906 
        2.23354         39.3341         5.72325         62.5751 
         2.2458         39.0108         5.64711         62.0964 
        2.25807          38.478         5.57228         61.5896 
        2.27035         38.0265         5.49875         61.1402 
        2.28263          37.548         5.42658         60.6833 
         2.2949         37.0502         5.35574         60.2466 
        2.30718          36.748         5.28615         59.8078 
        2.31946         36.2488         5.21776          59.381 
        2.33169         35.9124         5.15088         58.9151 
        2.34393         35.3614         5.08506         58.4664 
        2.35622         35.0446         5.02019         58.0536 
        2.36847         34.6056         4.95662         57.6111 
        2.38076         34.3959         4.89397         57.2173 
        2.39305         33.9668         4.83242         56.8019 
        2.40534         33.5964         4.77193          56.319 
        2.41762         33.1992         4.71248         55.9168 
        2.42989         32.7463         4.65413         55.5558 
        2.44216         32.5033         4.59677          55.135 
         2.4544         32.1982         4.54052         54.7531 
        2.46667         31.6333         4.48507         54.3185 
        2.47897         31.4224         4.43042         53.9515 
        2.49124         31.0545         4.37684         53.5547 
        2.50349         30.6953         4.32421         53.1989 
        2.51578          30.334          4.2723         52.8267 
        2.52805         30.1268         4.22133         52.4227 
        2.54029         29.8864         4.17131         52.0609 
        2.55257         29.4927         4.12196         51.7014 
        2.56487         29.2149         4.07331         51.3357 
        2.57716         28.9353         4.02552          50.995 
        2.58942         28.5498         3.97859         50.6269 
        2.60167         28.2271         3.93247         50.2342 
        2.61395         27.9897           3.887         49.9027 
        2.62624         27.7226         3.84219           49.56 
        2.63849         27.5018         3.79823         49.2115 
        2.65073         27.1853         3.75501         48.8469 
        2.66302         26.8597          3.7123         48.5356 
         2.6753         26.6203         3.67028         48.1962 
        2.68756         26.3334           3.629          47.861 
        2.69983         26.1471         3.58833         47.5319 
        2.71213         25.7932         3.54819         47.2181 
        2.72441         25.6853         3.50874         46.8698 
        2.73665         25.4072         3.46999          46.553 
         2.7489         25.2261         3.43184         46.2425 
        2.76118         24.9875         3.39414         45.9045 
        2.77349         24.7798         3.35693         45.6187 
        2.78576         24.6033         3.32042         45.2998 
        2.79802          24.273         3.28447         44.9913 
        2.81031         24.1202         3.24897          44.704 
        2.82259         23.9426         3.21401         44.3863 
        2.83483         23.6877          3.1797         44.0825 
         2.8471         23.6022         3.14582         43.7921 
         2.8594          23.335         3.11233         43.5147 
         2.8717         23.1106         3.07934         43.2133 
        2.88396         23.0177         3.04695         42.9108 
        2.89619         22.8842         3.01508         42.6309 
        2.90847         22.7015         2.98355         42.3442 
        2.92072         22.5342         2.95253         42.0807 
        2.93299         22.4554         2.92193         41.7914 
        2.94526         22.3007         2.89174         41.5223 
        2.95753         22.1101         2.86198         41.2631 
        2.96982         22.0948         2.83259         40.9878 
        2.98209          21.882         2.80367          40.721 
        2.99436         21.7971         2.77513         40.4573 
        3.00666         21.6489         2.74695          40.191 
        3.01894         21.6026          2.7192         39.9157 
        3.03119         21.4223         2.69189         39.6509 
        3.04345         21.3328         2.66494         39.4037 
        3.05573         21.2585         2.63831         39.1562 
          3.068         21.2311         2.61207         38.8952 
        3.08026         21.2251         2.58621         38.6422 
        3.09254         21.0875         2.56066         38.4045 
        3.10483         21.0764         2.53545         38.1646 
         3.1171         20.9987         2.51061         37.9185 
        3.12933         20.9763         2.48617         37.6761 
        3.14159         20.9686         2.46201         37.4316 
