# k  (h/Mpc)    Pcb(k)  (Mpc/h)^3    Pcb_linear(k) (Mpc/h)^3    Pcb_NL(k) (Mpc/h)^3   ShotnoiseSubtracted = false
      0.0156606         16843.6         16916.7         16796.6 
      0.0273761         14475.3         14627.2         14498.6 
      0.0384619         10964.2         11020.2         10911.3 
      0.0498308         8489.99         8668.24         8560.49 
      0.0625568         7169.78         7366.96         7269.31 
      0.0751274          6360.2         6259.04         6120.14 
      0.0867833         4943.04         5039.23         4998.23 
      0.0984825         4145.08          3987.9         4030.88 
       0.111151         3529.75         3329.83         3379.89 
       0.123864         3165.32         3000.85         3041.91 
       0.135742         2875.64         2698.51         2740.15 
        0.14762         2491.66         2307.36         2417.49 
       0.160083         2098.22         1923.31         2056.38 
       0.172465         1871.46         1678.69         1847.15 
       0.184281         1707.42         1547.55          1718.7 
       0.196406         1592.09         1429.16         1578.93 
       0.209011         1479.41         1271.58         1428.23 
       0.221538         1334.41         1111.24         1324.22 
       0.233611          1264.3         994.275         1233.86 
       0.245665         1153.43         917.678         1137.02 
       0.258103         1122.64         854.279          1071.7 
       0.270422          1006.6         784.983         1003.32 
       0.282519         941.206         712.416          943.23 
       0.294636         930.638          649.09         890.064 
       0.306978         840.571         600.517         849.963 
       0.319417         816.886         561.449         800.448 
        0.33169         769.612         524.052         755.622 
       0.343948         734.841         485.565          730.04 
       0.356249         692.405          449.47         700.895 
       0.368458         670.242         419.238         665.761 
        0.38068         651.047         393.956         638.332 
       0.392856         615.093         370.877         614.013 
       0.405069         587.494          348.31         595.041 
       0.417459         564.046         326.459         569.122 
       0.429752         552.614         306.844         548.775 
       0.441978         534.043         289.629         533.546 
       0.454294         506.873         273.996         510.735 
        0.46658         495.507         259.327         498.892 
       0.478753         482.062         245.489         482.537 
       0.490964         464.063         232.491         466.969 
       0.503334         440.079         220.494         455.109 
       0.515665         439.009         209.554         445.237 
       0.527909         422.497         199.454         433.448 
       0.540159         411.827         189.899         421.425 
        0.55248         403.716         180.833         410.046 
       0.564743          398.83         172.438         402.578 
        0.57686         383.386         164.722          391.11 
       0.589077         371.438         157.439         382.405 
       0.601441         366.955         150.513         373.983 
        0.61382         359.385         143.983          367.01 
       0.626067         353.893          137.89         359.191 
       0.638306         339.105         132.152          352.32 
       0.650632         334.108         126.715         342.438 
       0.662899         331.254         121.621         338.272 
       0.675076         318.514         116.846         332.134 
       0.687267         310.541         112.322         324.346 
       0.699615         306.298         107.981         318.911 
       0.711937           301.6         103.877         313.186 
       0.724148         291.973         100.021         308.502 
       0.736433          285.53         96.3424         302.355 
       0.748747          281.23         92.8429         296.681 
       0.761037         275.987         89.5256         292.181 
       0.773197         272.517         86.4048         288.142 
       0.785376         268.421         83.4292         283.152 
       0.797761         261.753         80.5477         278.845 
       0.810096         258.922         77.8138         274.995 
       0.822371         249.294           75.22         270.439 
       0.834626         248.565         72.7492         266.532 
       0.846916         243.158         70.3836         262.609 
       0.859215         243.129         68.1223         258.831 
       0.871383         236.523         65.9834         254.932 
        0.88363         234.911         63.9241         252.298 
       0.895928         229.532         61.9454          248.31 
       0.908253         223.351          60.047         244.266 
       0.920535         222.273          58.235             241 
       0.932774         215.441         56.5045         237.675 
        0.94508         213.276         54.8359         235.196 
       0.957324         212.659         53.2431          231.73 
        0.96953         209.594         51.7188         228.483 
       0.981769         203.157         50.2506         226.318 
       0.994071         202.238         48.8327         223.384 
         1.0064         197.717         47.4673         220.019 
        1.01868         195.022         46.1584         217.452 
        1.03092         191.096         44.9049         215.218 
         1.0432         187.522         43.6936         212.563 
        1.05553         184.867         42.5225         209.908 
        1.06777         184.566          41.403         207.781 
           1.08         179.934         40.3251         205.145 
        1.09227         177.722         39.2822          202.95 
         1.1046         175.037         38.2725         200.782 
         1.1169         171.913         37.3002         198.031 
        1.12915         169.395         36.3667         196.209 
        1.14142         166.681         35.4632         193.652 
        1.15365         164.391         34.5933         191.618 
        1.16585         162.071          33.755         189.132 
        1.17807         159.882         32.9435          187.71 
        1.19037         158.554         32.1535         185.818 
        1.20276         155.921         31.3841         183.508 
        1.21504         153.111          30.646         181.539 
        1.22728         150.141         29.9348         179.239 
        1.23954         149.601         29.2446         177.925 
        1.25184         146.733         28.5749         175.885 
        1.26414           144.4          27.926         174.043 
        1.27632         143.862         27.3031          172.99 
         1.2886         141.586         26.6948         170.614 
        1.30093         137.556          26.103         168.768 
        1.31316         136.511         25.5335         166.881 
        1.32541         134.774         24.9809         165.626 
        1.33772         133.502         24.4417         163.836 
        1.35005         131.509         23.9181         161.998 
        1.36225         129.797         23.4151         160.549 
        1.37447          127.67         22.9257         158.699 
        1.38676         126.243         22.4481         157.199 
        1.39907         123.811         21.9834         155.662 
        1.41133         122.051         21.5338         154.343 
        1.42358         120.304         21.0973         152.886 
        1.43591         119.119         20.6699         151.171 
        1.44818         117.936         20.2567           149.9 
        1.46037         115.716         19.8573         148.348 
        1.47263         114.562         19.4665         147.226 
        1.48494         112.845         19.0847         145.531 
        1.49724         111.284         18.7135         144.162 
        1.50952         109.239         18.3529         142.855 
        1.52178         108.703         18.0024         141.421 
        1.53409         106.681         17.6596         140.239 
        1.54637         105.224         17.3265         139.017 
        1.55858         103.453         17.0039           137.6 
        1.57081         102.081          16.689         136.429 
        1.58313         100.891         16.3802         135.104 
        1.59544         99.7111         16.0794         133.932 
        1.60767         98.3641         15.7881         132.634 
        1.61994         96.7261          15.503         131.722 
        1.63225         95.4784         15.2243         130.144 
        1.64452         93.8158         14.9533         129.023 
        1.65676         92.5359         14.6897         127.977 
          1.669         91.9298         14.4323         126.937 
        1.68133         90.2169         14.1795         125.737 
        1.69363         89.3303         13.9334         124.673 
        1.70585         87.7538         13.6948         123.534 
        1.71809         86.5804         13.4613           122.4 
        1.73038         85.8658         13.2325         121.339 
        1.74268         84.5643         13.0089         120.258 
        1.75493         83.4605         12.7915         119.183 
        1.76714         82.1488         12.5796         118.226 
        1.77942          81.323         12.3714         117.091 
        1.79173         79.9797         12.1674         116.173 
        1.80402         79.3509         11.9685         115.216 
         1.8163         77.9168         11.7741         114.066 
         1.8286         76.8267         11.5837         113.156 
         1.8409         76.1443         11.3977         112.177 
        1.85315         74.9211         11.2164         111.294 
        1.86537         74.0664         11.0394         110.341 
        1.87765         73.3905         10.8655         109.326 
        1.88995           72.16          10.695         108.489 
        1.90221         71.2163         10.5288         107.549 
        1.91445         69.9994         10.3663         106.622 
        1.92674         69.0979         10.2067         105.765 
        1.93902         68.2296         10.0505         104.812 
        1.95124         67.6595         9.89841         104.039 
         1.9635         66.5701         9.74905         103.009 
        1.97583         65.6901         9.60184         102.309 
        1.98812         64.8579         9.45822         101.416 
        2.00039         63.8367         9.31784         100.574 
        2.01264         63.3353         9.18043         99.7258 
        2.02492         62.3743          9.0456         98.9192 
        2.03717         61.3806          8.9137         98.0462 
        2.04942         60.9764         8.78461         97.3605 
        2.06171         59.7582         8.65763         96.5122 
        2.07397         59.1481         8.53345         95.7783 
        2.08629         58.5426         8.41118         94.9427 
        2.09857         57.6469          8.2916         94.1986 
        2.11081         56.6439         8.17484         93.3494 
        2.12309         56.2822         8.06005         92.7146 
        2.13538         55.3879          7.9473          91.931 
        2.14763         54.7031         7.83709         91.2003 
        2.15986         53.6713         7.72922         90.4532 
        2.17214         53.2864         7.62294         89.7223 
        2.18443          52.652         7.51857         89.1048 
        2.19671         51.7355         7.41627         88.3374 
        2.20898         51.5417           7.316         87.6368 
        2.22126         50.6837         7.21748         86.9115 
        2.23354         49.9983          7.1208         86.2721 
         2.2458         49.4058         7.02607         85.6292 
        2.25807          48.805         6.93297         84.8967 
        2.27035         48.2729         6.84149         84.2315 
        2.28263         47.4575         6.75169          83.562 
         2.2949         47.0848         6.66356         82.9231 
        2.30718         46.2472         6.57697         82.3148 
        2.31946         45.7561         6.49188         81.6901 
        2.33169         45.1382         6.40867         81.0537 
        2.34393         44.4347         6.32678         80.4393 
        2.35622         44.1582         6.24606         79.8108 
        2.36847         43.5723         6.16698         79.2565 
        2.38076         42.9721         6.08903         78.5853 
        2.39305         42.4511         6.01245         78.0313 
        2.40534         42.0003         5.93718         77.3894 
        2.41762         41.5877         5.86321           76.77 
        2.42989         40.9912         5.79062          76.266 
        2.44216         40.6056         5.71926         75.6634 
         2.4544         40.0955         5.64927         75.0862 
        2.46667         39.6783         5.58028         74.4951 
        2.47897          39.199         5.51229         73.9583 
        2.49124          38.663         5.44561         73.4203 
        2.50349         38.1772         5.38014         72.8499 
        2.51578         37.6932         5.31555         72.3732 
        2.52805         37.4596         5.25213         71.8058 
        2.54029         36.9497          5.1899         71.2424 
        2.55257         36.3916          5.1285         70.7484 
        2.56487         36.1301         5.06797         70.2597 
        2.57716          35.654          5.0085         69.7632 
        2.58942         35.2067         4.95012          69.228 
        2.60167         34.8046         4.89273         68.7166 
        2.61395         34.4281         4.83617         68.2247 
        2.62624         34.1849         4.78041         67.7129 
        2.63849         33.8487         4.72572         67.2453 
        2.65073         33.4759         4.67194         66.7326 
        2.66302         33.0034          4.6188         66.2544 
         2.6753         32.6386         4.56653         65.7902 
        2.68756         32.1861         4.51516         65.2875 
        2.69983         32.0136         4.46456         64.8646 
        2.71213         31.6884         4.41462         64.4219 
        2.72441         31.3797         4.36554         63.9438 
        2.73665          31.029         4.31732         63.4811 
         2.7489          30.896         4.26985         63.0385 
        2.76118         30.4112         4.22296         62.6065 
        2.77349         30.2795         4.17666         62.1659 
        2.78576         30.0424         4.13123         61.7076 
        2.79802         29.5931          4.0865         61.3142 
        2.81031         29.3284         4.04234         60.8811 
        2.82259         29.1847         3.99884         60.4337 
        2.83483         28.8323         3.95614         60.0279 
         2.8471         28.5168         3.91399         59.6219 
         2.8594         28.4126         3.87232         59.2114 
         2.8717         28.1342         3.83128         58.8031 
        2.88396         27.8812         3.79098         58.3781 
        2.89619         27.6398         3.75133         57.9676 
        2.90847         27.4701         3.71211         57.5905 
        2.92072         27.2324          3.6735         57.1934 
        2.93299         27.0943         3.63543            56.8 
        2.94526          26.845         3.59787         56.4334 
        2.95753         26.7002         3.56084         56.0563 
        2.96982         26.6123         3.52428         55.6725 
        2.98209         26.3391          3.4883         55.3042 
        2.99436         26.1695         3.45279         54.9157 
        3.00666         26.0874         3.41772         54.5579 
        3.01894         25.8669         3.38321         54.1741 
        3.03119         25.7796         3.34921         53.8221 
        3.04345         25.6065         3.31569         53.4885 
        3.05573         25.5617         3.28255         53.1348 
          3.068         25.4418         3.24991         52.7785 
        3.08026         25.2627         3.21774         52.4235 
        3.09254         25.1852         3.18595         52.0797 
        3.10483         25.1977         3.15458         51.7463 
         3.1171         25.1243         3.12367         51.4095 
        3.12933           25.04         3.09327         51.0673 
        3.14159         24.9152          3.0632         50.7301 
