# k  (h/Mpc)    Pcb(k)  (Mpc/h)^3    Pcb_linear(k) (Mpc/h)^3    Pcb_NL(k) (Mpc/h)^3   ShotnoiseSubtracted = false
      0.0156606         6825.55         6837.71         6799.91 
      0.0273761         5906.17         5914.67         5888.44 
      0.0384619          4486.3         4456.98         4440.62 
      0.0498308         3500.28         3506.12         3492.01 
      0.0625568         2953.67         2979.99         2965.46 
      0.0751274         2584.23         2531.94         2509.48 
      0.0867833         2031.73         2038.54         2033.79 
      0.0984825          1668.5         1613.28         1624.19 
       0.111151         1405.11         1347.08         1358.25 
       0.123864         1262.25            1214         1223.37 
       0.135742         1138.14          1091.7         1101.33 
        0.14762         972.337         933.461         956.651 
       0.160083         808.031         778.097         804.603 
       0.172465          717.28         679.132         711.725 
       0.184281         663.473         626.081         660.469 
       0.196406         606.391         578.185         605.742 
       0.209011         552.798         514.439           544.7 
       0.221538         495.888         449.572         491.873 
       0.233611         453.887          402.25         449.584 
       0.245665          424.65         371.262         413.617 
       0.258103         389.962         345.614         387.779 
       0.270422         361.891         317.579         359.243 
       0.282519         330.045         288.221         332.044 
       0.294636         323.235         262.602         308.802 
       0.306978         285.673         242.951         290.964 
       0.319417         273.754         227.145         273.289 
        0.33169         255.921         212.016         256.565 
       0.343948          244.26         196.445         243.006 
       0.356249         226.864         181.842         230.872 
       0.368458         218.665         169.611         216.455 
        0.38068         207.352         159.383         205.663 
       0.392856         193.459         150.046         196.437 
       0.405069         184.726         140.916         187.511 
       0.417459         175.725         132.076         177.425 
       0.429752         169.021          124.14         169.892 
       0.441978         162.461         117.175         163.865 
       0.454294         151.238         110.851         155.547 
        0.46658         151.456         104.916         149.991 
       0.478753          142.09         99.3179          144.29 
       0.490964         137.759         94.0593         138.698 
       0.503334         131.212         89.2054          133.75 
       0.515665         127.385         84.7793         130.121 
       0.527909         123.198         80.6934         124.126 
       0.540159         118.986         76.8278         120.383 
        0.55248         114.468         73.1597         116.087 
       0.564743         111.398         69.7634         112.842 
        0.57686         107.916         66.6418         109.075 
       0.589077         102.925         63.6952         106.257 
       0.601441         100.541         60.8933         103.237 
        0.61382         98.4715         58.2515          99.891 
       0.626067          94.478         55.7863         97.2864 
       0.638306         91.4202         53.4648         94.6547 
       0.650632         88.1535         51.2654         91.3121 
       0.662899         87.5229         49.2043         89.0655 
       0.675076         84.2827         47.2727         86.8235 
       0.687267         82.5962         45.4424         84.6117 
       0.699615         79.8873         43.6861         82.8693 
       0.711937         77.2937         42.0258          80.314 
       0.724148         76.7081         40.4659         79.1396 
       0.736433         73.2391         38.9774         76.9145 
       0.748747         72.0463         37.5616         75.1403 
       0.761037         70.2738         36.2196         73.3527 
       0.773197         68.7428          34.957         72.3151 
       0.785376         66.8592         33.7531         70.4364 
       0.797761         66.2537         32.5874         69.2341 
       0.810096         64.0549         31.4813         67.6125 
       0.822371         62.8405         30.4319         66.1836 
       0.834626         61.3074         29.4323         65.0855 
       0.846916         60.2069         28.4752          63.808 
       0.859215         58.7444         27.5604         62.4541 
       0.871383         57.9713         26.6951         61.3874 
        0.88363         56.3977         25.8619         60.4622 
       0.895928         55.1573         25.0614         59.2644 
       0.908253         53.9041         24.2933         58.2906 
       0.920535         53.4983         23.5603         57.2566 
       0.932774         52.4617         22.8601         56.2782 
        0.94508         51.6501         22.1851         55.1856 
       0.957324         50.3363         21.5407         54.4175 
        0.96953         50.0837          20.924         53.4057 
       0.981769         48.5187           20.33         52.7224 
       0.994071         47.8782         19.7564         51.9044 
         1.0064         46.8423          19.204         51.0657 
        1.01868         46.0166         18.6744         50.3478 
        1.03092         45.4214         18.1673         49.5506 
         1.0432         44.6024         17.6772         48.6885 
        1.05553         43.5604         17.2034         48.3084 
        1.06777         42.9438         16.7505         47.4657 
           1.08         41.9247         16.3144         46.7507 
        1.09227         41.4843         15.8925          46.153 
         1.1046         40.8736          15.484         45.4517 
         1.1169         40.3696         15.0906         44.8142 
        1.12915         39.6667         14.7129         44.2751 
        1.14142         38.8564         14.3474         43.6876 
        1.15365         38.3432         13.9955         43.1621 
        1.16585         37.7618         13.6563         42.5449 
        1.17807         37.1258          13.328         41.9276 
        1.19037         36.9678         13.0084         41.5793 
        1.20276         36.3671         12.6971         41.0184 
        1.21504          35.734         12.3985         40.5815 
        1.22728         35.1072         12.1108          40.051 
        1.23954         34.7148         11.8316          39.474 
        1.25184         34.0887         11.5606           39.09 
        1.26414         33.6537         11.2981         38.5728 
        1.27632         33.3564         11.0461         38.1481 
         1.2886         32.9931            10.8         37.7416 
        1.30093         32.3387         10.5606         37.2776 
        1.31316         31.8902         10.3301         36.9076 
        1.32541         31.6328         10.1066         36.5046 
        1.33772         31.0367         9.88843         36.1118 
        1.35005         30.6535         9.67658         35.7478 
        1.36225         30.1999         9.47311         35.3927 
        1.37447         29.5166         9.27512         34.9649 
        1.38676         29.5359          9.0819         34.6657 
        1.39907         29.0498         8.89387         34.3226 
        1.41133         28.4959         8.71199         33.9251 
        1.42358         28.2191         8.53538         33.5821 
        1.43591           27.82         8.36246         33.2847 
        1.44818         27.5611          8.1953         32.9215 
        1.46037         27.2479         8.03371         32.5752 
        1.47263         26.9857         7.87559         32.3209 
        1.48494         26.5476         7.72113         31.9718 
        1.49724         26.4706         7.57095         31.6762 
        1.50952         25.9668         7.42507         31.4266 
        1.52178         25.6319         7.28325         31.0882 
        1.53409           25.37         7.14458         30.8155 
        1.54637         25.1004         7.00981         30.4909 
        1.55858         24.5358         6.87929         30.2408 
        1.57081         24.5645         6.75192         29.9871 
        1.58313         24.2661         6.62698         29.6886 
        1.59544         23.8106         6.50528         29.4558 
        1.60767         23.5673         6.38742         29.1494 
        1.61994         23.2522         6.27207         28.9291 
        1.63225          23.167         6.15934         28.7256 
        1.64452         22.7731         6.04969         28.4745 
        1.65676         22.5619         5.94306         28.2028 
          1.669         22.3539         5.83893         27.9888 
        1.68133         22.0015         5.73663         27.7408 
        1.69363         21.7496         5.63709         27.4382 
        1.70585         21.5443         5.54054          27.307 
        1.71809         21.2284         5.44607         27.0394 
        1.73038         21.0842          5.3535         26.8541 
        1.74268         20.8732         5.26303         26.5841 
        1.75493         20.5552         5.17507          26.398 
        1.76714         20.4902         5.08935         26.1916 
        1.77942         20.2629         5.00513         25.9642 
        1.79173         19.8403         4.92261         25.7726 
        1.80402         19.6533         4.84212         25.6252 
         1.8163         19.5786         4.76347         25.3446 
         1.8286         19.2641         4.68645           25.19 
         1.8409         19.0701         4.61118         25.0021 
        1.85315         18.9105         4.53783         24.8116 
        1.86537         18.6495         4.46622         24.6248 
        1.87765         18.5293         4.39589         24.4322 
        1.88995         18.2745         4.32691         24.2327 
        1.90221         18.1199         4.25965         24.0525 
        1.91445         17.9162         4.19393         23.8698 
        1.92674         17.7398         4.12937         23.6975 
        1.93902         17.5277         4.06616          23.554 
        1.95124         17.2862         4.00462         23.4249 
         1.9635         17.1607          3.9442         23.2021 
        1.97583         16.9916         3.88464         23.0199 
        1.98812         16.8329         3.82654          22.888 
        2.00039         16.6859         3.76974         22.7156 
        2.01264         16.5044         3.71415          22.572 
        2.02492         16.3442          3.6596         22.3773 
        2.03717         16.1352         3.60624         22.2327 
        2.04942         15.9902         3.55401         22.0674 
        2.06171          15.868         3.50264          21.916 
        2.07397         15.7218          3.4524         21.7627 
        2.08629         15.5777         3.40293         21.6156 
        2.09857         15.4347         3.35455         21.4722 
        2.11081         15.2374         3.30732         21.3324 
        2.12309         15.0935         3.26087         21.1766 
        2.13538         14.9235         3.21526         21.0267 
        2.14763         14.7813         3.17067         20.8971 
        2.15986         14.7418         3.12703         20.7751 
        2.17214         14.5504         3.08403         20.6238 
        2.18443         14.3772          3.0418         20.4842 
        2.19671         14.2715         3.00042         20.3357 
        2.20898         14.1266         2.95985         20.2143 
        2.22126         13.9956         2.91999         20.0853 
        2.23354         13.9397         2.88088         19.9402 
         2.2458         13.7546         2.84255          19.845 
        2.25807         13.6049         2.80489         19.6734 
        2.27035         13.5129         2.76788         19.5591 
        2.28263         13.3711         2.73155         19.4301 
         2.2949          13.293         2.69589         19.3211 
        2.30718         13.1862         2.66086         19.2105 
        2.31946         13.0487         2.62644         19.0735 
        2.33169         12.9242         2.59277         18.9533 
        2.34393         12.8155         2.55964          18.844 
        2.35622         12.6492         2.52698         18.7231 
        2.36847         12.5799         2.49499         18.6011 
        2.38076         12.4401         2.46345         18.4892 
        2.39305         12.3256         2.43247         18.3673 
        2.40534         12.2402         2.40202         18.2372 
        2.41762         12.1355         2.37209         18.1527 
        2.42989         12.0465         2.34272         18.0314 
        2.44216         11.9323         2.31385         17.9111 
         2.4544         11.8763         2.28554          17.799 
        2.46667          11.757         2.25763         17.7035 
        2.47897          11.628         2.23012         17.5826 
        2.49124         11.5548         2.20314         17.4798 
        2.50349         11.4472         2.17666         17.3696 
        2.51578         11.3596         2.15052         17.2846 
        2.52805         11.2757         2.12487          17.177 
        2.54029         11.2082         2.09969         17.0755 
        2.55257         11.1428         2.07485         16.9689 
        2.56487         10.9685         2.05036         16.8646 
        2.57716         10.9216          2.0263          16.756 
        2.58942         10.8573         2.00268         16.6767 
        2.60167         10.7647         1.97946         16.5802 
        2.61395         10.7298         1.95658         16.4768 
        2.62624         10.6205         1.93402          16.384 
        2.63849         10.5325          1.9119         16.2987 
        2.65073          10.465         1.89014         16.1921 
        2.66302         10.3938         1.86864         16.1019 
         2.6753         10.3421         1.84749          16.004 
        2.68756         10.2783         1.82671         15.9249 
        2.69983         10.1892         1.80624          15.822 
        2.71213         10.1267         1.78603         15.7229 
        2.72441         10.0663         1.76618         15.6418 
        2.73665         10.0402         1.74667         15.5472 
         2.7489         9.96325         1.72747         15.4528 
        2.76118         9.86299         1.70849         15.3758 
        2.77349         9.82274         1.68976         15.2882 
        2.78576         9.76409         1.67138         15.2056 
        2.79802          9.7154         1.65329         15.1152 
        2.81031         9.66673         1.63542         15.0313 
        2.82259         9.63581         1.61782         14.9471 
        2.83483         9.55943         1.60055         14.8645 
         2.8471         9.51019         1.58349         14.7836 
         2.8594          9.4909         1.56664         14.6995 
         2.8717         9.44263         1.55003         14.6158 
        2.88396          9.3897         1.53373         14.5364 
        2.89619          9.3405         1.51769         14.4585 
        2.90847         9.29813         1.50182         14.3779 
        2.92072         9.29602          1.4862         14.2915 
        2.93299         9.22654          1.4708         14.2204 
        2.94526         9.21914          1.4556         14.1459 
        2.95753         9.18239         1.44062          14.065 
        2.96982         9.13846         1.42583         13.9867 
        2.98209         9.12948         1.41127         13.9085 
        2.99436         9.11244          1.3969         13.8313 
        3.00666         9.08126         1.38272         13.7596 
        3.01894         9.06131         1.36875         13.6942 
        3.03119         9.04479           1.355         13.6152 
        3.04345         8.99164         1.34144         13.5335 
        3.05573         9.02348         1.32803         13.4646 
          3.068         8.99729         1.31482         13.3976 
        3.08026         9.00031         1.30181         13.3167 
        3.09254          8.9956         1.28895         13.2508 
        3.10483         8.99201         1.27625          13.189 
         3.1171         8.99985         1.26375         13.1159 
        3.12933         9.00588         1.25145         13.0436 
        3.14159         8.96838         1.23929         12.9753 
