# k  (h/Mpc)    Pcb(k)  (Mpc/h)^3    Pcb_linear(k) (Mpc/h)^3    Pcb_NL(k) (Mpc/h)^3   ShotnoiseSubtracted = false
      0.0156606         5889.03         5898.05         5866.23 
      0.0273761         5099.91         5102.18         5081.48 
      0.0384619         3874.52         3844.83         3832.83 
      0.0498308         3025.74         3024.62         3014.67 
      0.0625568         2553.09         2570.77          2560.1 
      0.0751274          2229.3         2184.26         2167.42 
      0.0867833         1755.57         1758.62          1755.3 
      0.0984825         1438.01         1391.75         1400.44 
       0.111151         1209.59         1162.11         1170.91 
       0.123864         1086.68         1047.31         1054.63 
       0.135742         979.095         941.798          949.31 
        0.14762         835.257         805.289         823.187 
       0.160083         693.733         671.258         691.633 
       0.172465         615.085         585.883         610.828 
       0.184281          569.44         540.116         566.513 
       0.196406         519.924         498.797         519.772 
       0.209011         472.877         443.803         466.989 
       0.221538         423.476         387.843         420.258 
       0.233611         386.215         347.019         383.244 
       0.245665         362.034         320.286         352.653 
       0.258103         330.584         298.159         330.393 
       0.270422         307.932         273.974         305.727 
       0.282519         280.384         248.647         282.105 
       0.294636         273.383         226.545         261.836 
       0.306978         241.363         209.592         246.245 
       0.319417         231.119         195.957         231.218 
        0.33169         215.729         182.905         216.958 
       0.343948         205.871         169.472         204.901 
       0.356249         190.751         156.874         194.398 
       0.368458         183.522         146.323          181.99 
        0.38068         173.663         137.499         172.749 
       0.392856         161.946         129.444         164.831 
       0.405069         154.306         121.568         156.909 
       0.417459         146.508         113.941         148.487 
       0.429752          140.82         107.095         141.935 
       0.441978         135.058         101.087         136.735 
       0.454294         125.668         95.6304         129.676 
        0.46658         125.797         90.5109         124.792 
       0.478753         117.621         85.6812         119.946 
       0.490964         114.041         81.1446         115.236 
       0.503334         108.903         76.9571         110.875 
       0.515665         105.234         73.1388         107.759 
       0.527909          101.52         69.6139         102.555 
       0.540159         97.9824          66.279         99.3675 
        0.55248         93.5709         63.1146         95.7031 
       0.564743         91.3469         60.1846         92.8996 
        0.57686         88.5145         57.4916         89.7578 
       0.589077         84.2224         54.9496         87.3138 
       0.601441         82.1294         52.5324         84.7042 
        0.61382         80.1166         50.2533         81.8332 
       0.626067          76.798         48.1266         79.6689 
       0.638306          74.457         46.1239         77.3371 
       0.650632         71.8507         44.2264         74.6336 
       0.662899         70.8884         42.4484         72.6549 
       0.675076         68.1468          40.782         70.7571 
       0.687267         66.9793          39.203         68.8649 
       0.699615         64.6638         37.6878         67.4108 
       0.711937         62.3508         36.2555         65.2135 
       0.724148         61.9635         34.9097         64.1862 
       0.736433         58.8665         33.6257         62.3338 
       0.748747         58.0427         32.4043         60.8281 
       0.761037         56.4906         31.2465         59.3935 
       0.773197         55.2456         30.1572         58.4114 
       0.785376          53.514         29.1187         56.8909 
       0.797761         52.9909          28.113          55.838 
       0.810096         51.4179         27.1588         54.4976 
       0.822371         50.3586         26.2535         53.2592 
       0.834626         49.0553         25.3911         52.3752 
       0.846916         48.0133         24.5655         51.2635 
       0.859215         46.7115         23.7762         50.1548 
       0.871383         46.0861         23.0297         49.2773 
        0.88363         44.8837          22.311         48.4743 
       0.895928         43.8498         21.6203         47.4215 
       0.908253         42.9317         20.9578         46.6647 
       0.920535         42.4242         20.3254         45.7658 
       0.932774         41.6439         19.7213         44.9598 
        0.94508           40.91          19.139         44.0497 
       0.957324          39.929         18.5831         43.3848 
        0.96953         39.4486          18.051         42.5591 
       0.981769         38.4001         17.5386         41.9785 
       0.994071         37.7612         17.0437         41.2784 
         1.0064         36.9448         16.5672         40.5945 
        1.01868         36.2241         16.1103         39.9981 
        1.03092         35.8711         15.6728         39.3248 
         1.0432         35.1108         15.2501         38.6034 
        1.05553         34.3649         14.8413          38.287 
        1.06777         33.6702         14.4506         37.5495 
           1.08         32.9019         14.0744         36.9718 
        1.09227         32.5485         13.7104         36.5264 
         1.1046         32.0754          13.358         35.9138 
         1.1169          31.624         13.0186         35.4111 
        1.12915         31.1373         12.6928         34.9409 
        1.14142         30.3832         12.3775         34.4441 
        1.15365         30.0462         12.0739         34.0045 
        1.16585         29.6154         11.7813          33.537 
        1.17807         29.0561          11.498         32.9897 
        1.19037         28.8677         11.2223         32.7273 
        1.20276         28.4355         10.9538         32.2455 
        1.21504         27.8579         10.6962         31.9048 
        1.22728         27.3852         10.4479         31.4555 
        1.23954         27.0661          10.207         30.9956 
        1.25184         26.5531         9.97331         30.6682 
        1.26414         26.2398         9.74681         30.2515 
        1.27632         25.9462         9.52939          29.891 
         1.2886         25.6697          9.3171         29.5661 
        1.30093         25.0827         9.11055         29.2317 
        1.31316         24.7853         8.91178         28.8802 
        1.32541          24.538         8.71892          28.581 
        1.33772         24.0977         8.53071         28.2555 
        1.35005         23.7781         8.34795         27.9645 
        1.36225         23.4616         8.17242         27.6586 
        1.37447         22.9617         8.00161         27.3102 
        1.38676         22.8395         7.83492         27.0658 
        1.39907         22.4823         7.67271         26.7782 
        1.41133         22.1048          7.5158         26.4592 
        1.42358         21.8812         7.36344         26.1788 
        1.43591         21.5381         7.21427         25.9486 
        1.44818         21.3149         7.07006         25.6764 
        1.46037         21.1432         6.93065         25.3709 
        1.47263         20.8325         6.79424         25.1767 
        1.48494         20.6063         6.66099         24.8826 
        1.49724         20.4516         6.53143         24.6629 
        1.50952         20.0488         6.40558         24.4569 
        1.52178         19.8271         6.28323         24.1733 
        1.53409         19.5376          6.1636          23.954 
        1.54637         19.4262         6.04734         23.6882 
        1.55858         19.0279         5.93474         23.4937 
        1.57081         18.9141         5.82485         23.2895 
        1.58313         18.7205         5.71707         23.0568 
        1.59544          18.387         5.61208         22.8719 
        1.60767         18.2169          5.5104          22.628 
        1.61994         17.9212         5.41089         22.4531 
        1.63225         17.8618         5.31364         22.2909 
        1.64452         17.5784         5.21905         22.0965 
        1.65676         17.3987         5.12706         21.8698 
          1.669         17.2468         5.03722         21.6904 
        1.68133         16.9274         4.94897         21.4959 
        1.69363         16.7652         4.86309         21.2526 
        1.70585         16.5717         4.77981         21.1525 
        1.71809         16.3783         4.69831         20.9541 
        1.73038         16.2122         4.61845         20.8012 
        1.74268         16.0857          4.5404         20.5896 
        1.75493         15.8041         4.46452         20.4356 
        1.76714         15.7956         4.39056         20.2699 
        1.77942         15.6078         4.31791         20.0838 
        1.79173         15.2808         4.24672          19.946 
        1.80402         15.1595         4.17728         19.8112 
         1.8163         15.0475         4.10943         19.6246 
         1.8286         14.8375         4.04298         19.4891 
         1.8409         14.6803         3.97805         19.3364 
        1.85315         14.5644         3.91477         19.1787 
        1.86537         14.3835         3.85299         19.0393 
        1.87765         14.2765         3.79232         18.8887 
        1.88995         14.0551         3.73281         18.7445 
        1.90221         13.9628         3.67478         18.5896 
        1.91445         13.8093         3.61808         18.4584 
        1.92674         13.6635         3.56239         18.3179 
        1.93902         13.5107         3.50786         18.2101 
        1.95124           13.33         3.45477         18.0971 
         1.9635         13.2125         3.40264         17.9274 
        1.97583         13.0879         3.35126         17.7751 
        1.98812         12.9736         3.30114         17.6689 
        2.00039         12.8942         3.25214         17.5435 
        2.01264         12.7537         3.20418         17.4323 
        2.02492         12.6198         3.15712         17.2818 
        2.03717         12.4667         3.11109         17.1668 
        2.04942         12.3377         3.06603           17.04 
        2.06171         12.2733         3.02171         16.9229 
        2.07397         12.1401         2.97837         16.8143 
        2.08629         12.0364          2.9357         16.7068 
        2.09857         11.9357         2.89396         16.5837 
        2.11081         11.8043         2.85321         16.4851 
        2.12309         11.6547         2.81314         16.3518 
        2.13538         11.5336         2.77379         16.2386 
        2.14763         11.4501         2.73532         16.1389 
        2.15986         11.4164         2.69768         16.0487 
        2.17214         11.2781         2.66058         15.9176 
        2.18443         11.1283         2.62415          15.823 
        2.19671         11.0872         2.58845         15.7108 
        2.20898         10.9518         2.55345         15.6191 
        2.22126         10.8279         2.51907         15.5131 
        2.23354         10.7885         2.48532         15.3994 
         2.2458         10.6508         2.45226         15.3273 
        2.25807         10.5622         2.41977         15.1995 
        2.27035         10.4847         2.38784         15.1103 
        2.28263         10.3964          2.3565         15.0085 
         2.2949          10.289         2.32574         14.9238 
        2.30718         10.2166         2.29552          14.844 
        2.31946         10.1106         2.26582         14.7413 
        2.33169         10.0262         2.23677         14.6516 
        2.34393         9.94417         2.20819         14.5567 
        2.35622         9.86087         2.18002         14.4702 
        2.36847         9.78394         2.15242         14.3775 
        2.38076          9.7033         2.12521         14.2893 
        2.39305         9.57865         2.09848         14.1922 
        2.40534         9.53437         2.07221         14.0975 
        2.41762         9.46259          2.0464         14.0347 
        2.42989         9.39688         2.02106         13.9443 
        2.44216         9.31158         1.99615         13.8486 
         2.4544         9.23384         1.97172         13.7698 
        2.46667         9.18905         1.94765          13.693 
        2.47897         9.11185         1.92392         13.5973 
        2.49124         9.00573         1.90064         13.5202 
        2.50349         8.95507         1.87779         13.4443 
        2.51578         8.88418         1.85525         13.3736 
        2.52805         8.82796         1.83311         13.2951 
        2.54029         8.74943          1.8114         13.2195 
        2.55257         8.71893         1.78996         13.1366 
        2.56487         8.58936         1.76884         13.0521 
        2.57716         8.55451         1.74808         12.9808 
        2.58942         8.51986         1.72771          12.915 
        2.60167          8.4639         1.70768         12.8401 
        2.61395         8.39292         1.68793         12.7644 
        2.62624         8.32623         1.66848         12.6917 
        2.63849         8.28442         1.64939         12.6262 
        2.65073         8.23183         1.63061         12.5453 
        2.66302         8.16641         1.61207         12.4726 
         2.6753         8.13332         1.59382          12.401 
        2.68756         8.08987          1.5759         12.3442 
        2.69983         8.01811         1.55823         12.2614 
        2.71213         7.98072          1.5408         12.1905 
        2.72441         7.91667         1.52367          12.127 
        2.73665          7.9206         1.50684         12.0526 
         2.7489         7.85752         1.49028         11.9849 
        2.76118         7.78137         1.47391         11.9298 
        2.77349         7.75795         1.45775         11.8614 
        2.78576         7.73356          1.4419         11.7972 
        2.79802         7.68144         1.42628         11.7295 
        2.81031         7.65557         1.41087         11.6692 
        2.82259         7.60081         1.39569         11.6046 
        2.83483         7.56075         1.38079         11.5398 
         2.8471           7.545         1.36607         11.4829 
         2.8594         7.53108         1.35153         11.4218 
         2.8717         7.48221          1.3372         11.3523 
        2.88396         7.44405         1.32314         11.2941 
        2.89619         7.39224          1.3093         11.2403 
        2.90847         7.38421         1.29561         11.1736 
        2.92072         7.39002         1.28214          11.111 
        2.93299         7.34111         1.26885         11.0601 
        2.94526         7.32768         1.25574         11.0001 
        2.95753         7.29975         1.24282         10.9392 
        2.96982         7.27006         1.23005         10.8822 
        2.98209         7.26055          1.2175         10.8195 
        2.99436         7.25994          1.2051          10.764 
        3.00666         7.24564         1.19286         10.7122 
        3.01894         7.21232         1.18082         10.6571 
        3.03119         7.21319         1.16895         10.5988 
        3.04345         7.19834         1.15725         10.5416 
        3.05573         7.20381         1.14569         10.4879 
          3.068         7.19059         1.13429         10.4362 
        3.08026         7.21399         1.12307         10.3808 
        3.09254         7.20214         1.11197         10.3269 
        3.10483         7.17903         1.10102         10.2785 
         3.1171         7.19352         1.09023         10.2271 
        3.12933          7.2131         1.07962         10.1709 
        3.14159         7.18078         1.06913         10.1215 
