# k  (h/Mpc)    Pcb(k)  (Mpc/h)^3    Pcb_linear(k) (Mpc/h)^3    Pcb_NL(k) (Mpc/h)^3   ShotnoiseSubtracted = false
      0.0156606         19765.8         19865.6         19715.2 
      0.0273761         16958.3         17175.7         17003.1 
      0.0384619         12831.7         12939.8         12789.1 
      0.0498308         9919.04         10177.9         10027.1 
      0.0625568          8378.6         8649.86         8514.82 
      0.0751274         7451.41         7348.94         7158.44 
      0.0867833          5778.6         5916.68         5858.59 
      0.0984825         4869.24         4682.27         4736.91 
       0.111151         4158.09          3909.6         3975.88 
       0.123864         3726.32         3523.33         3577.21 
       0.135742         3392.85         3168.34          3222.6 
        0.14762         2948.74         2709.09         2853.25 
       0.160083         2496.35         2258.18         2434.68 
       0.172465         2226.64         1970.95         2195.31 
       0.184281         2023.01         1816.98         2043.02 
       0.196406         1899.86         1677.98         1879.83 
       0.209011         1773.01         1492.97         1702.65 
       0.221538         1597.75         1304.72         1586.08 
       0.233611         1525.44         1167.38         1483.54 
       0.245665         1385.31         1077.45         1368.91 
       0.258103          1363.7         1003.01         1291.75 
       0.270422         1217.76          921.65         1212.12 
       0.282519         1146.17         836.449          1144.7 
       0.294636          1128.9         762.097         1082.98 
       0.306978         1026.98         705.068         1036.62 
       0.319417         1003.38         659.197         976.985 
        0.33169         944.133          615.29         924.147 
       0.343948         904.208         570.102         894.907 
       0.356249         855.067         527.723         860.907 
       0.368458         824.093         492.228          820.88 
        0.38068         807.109         462.543         788.737 
       0.392856          764.94         435.446         760.294 
       0.405069         727.592         408.951         736.423 
       0.417459         699.543         383.296         708.178 
       0.429752         691.965         360.266         683.291 
       0.441978         667.919         340.053         665.434 
       0.454294         636.986         321.698         637.867 
        0.46658         619.753         304.476         624.283 
       0.478753         606.368         288.229         604.809 
       0.490964         582.869         272.968         586.035 
       0.503334         556.124         258.882         572.345 
       0.515665         554.725         246.037         559.761 
       0.527909         532.423         234.179         546.912 
       0.540159         518.903          222.96          532.49 
        0.55248         508.693         212.316         518.508 
       0.564743         504.428         202.459         509.597 
        0.57686         486.084           193.4         495.792 
       0.589077          474.53         184.849         484.723 
       0.601441         466.198         176.717         474.853 
        0.61382         454.307          169.05         466.551 
       0.626067         448.711         161.896         457.349 
       0.638306         431.637         155.159         448.333 
       0.650632         427.037         148.776         436.876 
       0.662899         423.243         142.795         431.762 
       0.675076         408.039         137.189         425.137 
       0.687267         397.174         131.877         414.991 
       0.699615         393.833          126.78         408.406 
       0.711937         387.231         121.962         400.931 
       0.724148         374.203         117.435         395.241 
       0.736433         365.489         113.115         387.922 
       0.748747         360.756         109.007         380.917 
       0.761037         353.958         105.112         375.935 
       0.773197         349.425         101.448          370.17 
       0.785376         344.159         97.9542          364.54 
       0.797761         334.526          94.571         358.795 
       0.810096          331.77          91.361         354.293 
       0.822371         321.086         88.3157         348.465 
       0.834626         318.998         85.4148         344.035 
       0.846916         312.616         82.6373         338.758 
       0.859215         311.276         79.9824         333.907 
       0.871383         303.396         77.4711         329.312 
        0.88363         301.247         75.0533         325.936 
       0.895928         295.477           72.73         320.773 
       0.908253          288.01         70.5011         315.627 
       0.920535         284.581         68.3737         311.772 
       0.932774         278.315         66.3418         307.292 
        0.94508         274.618         64.3827         304.106 
       0.957324         273.066         62.5127         299.929 
        0.96953         269.116          60.723         296.154 
       0.981769         261.786         58.9992         293.035 
       0.994071         260.797         57.3344         289.372 
         1.0064         255.268         55.7313         285.134 
        1.01868         252.324         54.1945         281.525 
        1.03092         245.221         52.7227         278.945 
         1.0432         242.059         51.3006          275.56 
        1.05553         239.117         49.9256         271.868 
        1.06777         237.556         48.6112         268.974 
           1.08         231.782         47.3456         265.864 
        1.09227         229.833         46.1212         262.715 
         1.1046         226.049         44.9357         260.134 
         1.1169         220.904         43.7942         256.602 
        1.12915         218.027         42.6981         254.232 
        1.14142         214.217         41.6373          251.05 
        1.15365         211.395          40.616         248.403 
        1.16585          207.82         39.6317         245.416 
        1.17807         205.497         38.6789         243.175 
        1.19037         202.927         37.7513         240.975 
        1.20276         200.048          36.848         237.855 
        1.21504         195.727         35.9815         235.253 
        1.22728         192.517         35.1465         232.329 
        1.23954         191.681         34.3361         230.498 
        1.25184          187.71         33.5498         227.954 
        1.26414         184.176         32.7879         225.697 
        1.27632         183.313         32.0565         223.876 
         1.2886         181.745         31.3423         221.129 
        1.30093         176.659         30.6475         218.532 
        1.31316          173.47         29.9789         216.146 
        1.32541         172.265         29.3301         214.244 
        1.33772         170.211          28.697         212.083 
        1.35005         167.607         28.0822         209.705 
        1.36225         164.681         27.4917         207.767 
        1.37447         162.385         26.9171         205.227 
        1.38676         160.512         26.3563         203.626 
        1.39907         157.984         25.8107         201.328 
        1.41133         155.283         25.2828         199.398 
        1.42358          153.43         24.7703         197.519 
        1.43591         151.585         24.2685         195.534 
        1.44818         149.057         23.7834         193.662 
        1.46037         147.287         23.3144         191.618 
        1.47263         145.055         22.8555         190.039 
        1.48494         143.057         22.4073         187.708 
        1.49724         141.025         21.9714          186.32 
        1.50952         138.432         21.5481         184.415 
        1.52178         137.688         21.1365         182.402 
        1.53409         134.719         20.7341         180.885 
        1.54637         133.101          20.343         179.383 
        1.55858         130.977         19.9642         177.429 
        1.57081             129         19.5946         175.889 
        1.58313         127.276          19.232         174.096 
        1.59544         125.129         18.8788         172.562 
        1.60767         124.131         18.5367         170.975 
        1.61994         121.819          18.202         169.507 
        1.63225         120.274         17.8748         167.649 
        1.64452         118.094         17.5566         166.148 
        1.65676         116.414         17.2472         164.738 
          1.669         115.513          16.945         163.294 
        1.68133         113.056         16.6481         161.801 
        1.69363         111.428         16.3592         160.355 
        1.70585         109.495         16.0791         158.938 
        1.71809         108.178         15.8049         157.245 
        1.73038         107.365         15.5363          155.99 
        1.74268         106.187         15.2737         154.497 
        1.75493         103.488         15.0184         153.182 
        1.76714         102.799         14.7697         151.922 
        1.77942         101.015         14.5253         150.387 
        1.79173         99.5007         14.2858         149.155 
        1.80402         98.6464         14.0522         147.839 
         1.8163         96.5394          13.824          146.53 
         1.8286          95.298         13.6004         145.192 
         1.8409         94.6285          13.382         143.853 
        1.85315         92.7493         13.1691           142.7 
        1.86537         91.8405         12.9613         141.516 
        1.87765         90.8238         12.7572         140.301 
        1.88995         89.2347          12.557         139.042 
        1.90221         88.0167         12.3618         137.893 
        1.91445         86.9339         12.1711         136.587 
        1.92674         85.4786         11.9837         135.441 
        1.93902         84.3405         11.8003         134.228 
        1.95124         83.3808         11.6217          133.11 
         1.9635         82.0055         11.4463         131.916 
        1.97583         80.7609         11.2735         130.864 
        1.98812         79.7459         11.1049         129.819 
        2.00039         78.7926         10.9401         128.642 
        2.01264         77.8133         10.7787         127.581 
        2.02492         76.9573         10.6204         126.457 
        2.03717         75.6185         10.4656          125.41 
        2.04942         75.1186          10.314          124.44 
        2.06171         73.4019         10.1649         123.359 
        2.07397           72.63         10.0191         122.375 
        2.08629         71.7673         9.87555         121.312 
        2.09857         70.7008         9.73516         120.338 
        2.11081         69.5141         9.59807         119.226 
        2.12309         68.5694          9.4633          118.39 
        2.13538         67.7304         9.33092         117.349 
        2.14763         66.8645         9.20151         116.415 
        2.15986         65.8084         9.07486         115.399 
        2.17214         65.1482         8.95009         114.459 
        2.18443          64.314         8.82754         113.692 
        2.19671         63.1659         8.70743         112.718 
        2.20898         62.6667         8.58971         111.738 
        2.22126         61.7323         8.47403         110.861 
        2.23354         61.0333         8.36053         109.996 
         2.2458         59.9594          8.2493         109.128 
        2.25807         59.2231         8.13999         108.221 
        2.27035         58.4652         8.03258         107.337 
        2.28263         57.6783         7.92716         106.499 
         2.2949         56.9082         7.82368         105.666 
        2.30718         55.9776         7.72202         104.854 
        2.31946         55.6288         7.62211         103.966 
        2.33169          54.607          7.5244         103.174 
        2.34393         54.1219         7.42826         102.417 
        2.35622         53.1852         7.33349         101.599 
        2.36847         52.7917         7.24064         100.906 
        2.38076         51.8764         7.14912          99.986 
        2.39305         51.2931         7.05921         99.3096 
        2.40534         50.6715         6.97084         98.4915 
        2.41762         50.0855         6.88399         97.6878 
        2.42989         49.3337         6.79875         97.0066 
        2.44216         48.8145         6.71497         96.2059 
         2.4544         48.0957         6.63279         95.4902 
        2.46667         47.5528          6.5518         94.7452 
        2.47897         47.0297         6.47197         94.0018 
        2.49124         46.4704         6.39369         93.3313 
        2.50349         46.1208         6.31682         92.6029 
        2.51578         45.3231         6.24098         91.9966 
        2.52805         44.8165         6.16652         91.2266 
        2.54029         44.3749         6.09346         90.4993 
        2.55257         43.7658         6.02136         89.8818 
        2.56487         43.4462          5.9503         89.2518 
        2.57716         42.7654         5.88048          88.583 
        2.58942         42.1829         5.81193         87.9077 
        2.60167          41.801         5.74455         87.2706 
        2.61395         41.2384         5.67814         86.6343 
        2.62624         40.8416         5.61268         85.9376 
        2.63849         40.3263         5.54846           85.33 
        2.65073         39.9752         5.48532         84.7036 
        2.66302         39.4621         5.42293         84.0661 
         2.6753         39.0484         5.36155         83.4835 
        2.68756         38.6307         5.30125         82.8547 
        2.69983         38.1707         5.24183         82.2927 
        2.71213         37.8064          5.1832         81.7052 
        2.72441         37.4241         5.12557         81.1032 
        2.73665         36.9043         5.06896         80.5321 
         2.7489         36.6285         5.01323          79.962 
        2.76118         36.2249         4.95817          79.392 
        2.77349         35.8425         4.90381         78.8262 
        2.78576         35.5412         4.85047         78.2315 
        2.79802         35.1908         4.79796         77.7583 
        2.81031         34.7457          4.7461         77.1857 
        2.82259         34.6356         4.69503         76.6134 
        2.83483          34.157          4.6449         76.1227 
         2.8471         33.8535         4.59541         75.5753 
         2.8594         33.5621         4.54649         75.0255 
         2.8717         33.4088          4.4983         74.5313 
        2.88396         32.9956         4.45098         74.0048 
        2.89619         32.8461         4.40444         73.4526 
        2.90847          32.449         4.35838         72.9339 
        2.92072         32.2742         4.31306         72.4738 
        2.93299         32.1037         4.26836         71.9874 
        2.94526         31.7498         4.22425         71.4921 
        2.95753         31.5474         4.18078         70.9914 
        2.96982         31.3171         4.13785         70.5123 
        2.98209         31.0774         4.09561         70.0483 
        2.99436         30.8451         4.05392          69.538 
        3.00666         30.8146         4.01274         69.0783 
        3.01894          30.485         3.97222         68.6051 
        3.03119         30.4413         3.93231         68.1625 
        3.04345         30.3152         3.89295         67.7278 
        3.05573         29.9649         3.85404         67.2696 
          3.068         29.9689         3.81571         66.8193 
        3.08026         29.7895         3.77794         66.3694 
        3.09254         29.7227         3.74062         65.9377 
        3.10483         29.6854         3.70378         65.5095 
         3.1171         29.4863          3.6675         65.0737 
        3.12933         29.4069          3.6318         64.6366 
        3.14159         29.2875          3.5965         64.1952 
