# k  (h/Mpc)    P(k)  (Mpc/h)^3    P_linear(k)  (Mpc/h)^3     P_NL(k)  ShotnoiseSubtracted = false
      0.0156606         4110.74         4178.14         4156.61 
      0.0273761         3560.82         3609.59         3597.39 
      0.0384619         2703.94         2718.42         2712.63 
      0.0498308         2114.87         2137.77         2133.58 
      0.0625568         1783.95          1816.6         1811.41 
      0.0751274         1550.57         1543.27         1534.59 
      0.0867833          1225.4         1242.44         1241.01 
      0.0984825         998.263         983.199         988.232 
       0.111151         837.735         820.931         825.928 
       0.123864         752.601         739.809         743.849 
       0.135742         677.062         665.263         669.367 
        0.14762         576.148         568.827         578.472 
       0.160083         478.289         474.145         485.086 
       0.172465         422.819         413.835         427.104 
       0.184281         391.881         381.505         395.602 
       0.196406         357.396         352.317          363.34 
       0.209011         323.495         313.471         325.817 
       0.221538         288.535         273.943           291.2 
       0.233611         261.394         245.107         264.336 
       0.245665         245.566         226.224         243.365 
       0.258103         222.233         210.595         227.671 
       0.270422         208.185         193.512         210.217 
       0.282519         189.114         175.622         193.322 
       0.294636         182.375         160.011         178.686 
       0.306978         160.963         148.037          167.39 
       0.319417         153.889         138.406         157.071 
        0.33169         143.259         129.187         147.224 
       0.343948         136.471         119.699         138.264 
       0.356249         125.784         110.801         130.753 
       0.368458         120.527         103.348         122.064 
        0.38068         113.506         97.1165         115.639 
       0.392856         105.887         91.4268         110.072 
       0.405069         100.461         85.8634         104.237 
       0.417459         94.8048         80.4772         98.6662 
       0.429752         90.9737         75.6419         93.9369 
       0.441978         86.8772         71.3978         90.2356 
       0.454294         80.8045         67.5439         85.4611 
        0.46658         80.6103         63.9279         81.8851 
       0.478753         75.0291         60.5166         78.5146 
       0.490964         72.6567         57.3122         75.3622 
       0.503334         69.6187         54.3549         72.1449 
       0.515665         66.6393          51.658         69.9456 
       0.527909         63.9395         49.1682         66.3445 
       0.540159         61.5613         46.8126         64.0767 
        0.55248         57.9628         44.5776         61.5519 
       0.564743         56.9819         42.5082         59.6099 
        0.57686         55.1915         40.6062         57.4966 
       0.589077         52.2146         38.8107         55.7711 
       0.601441         50.6625         37.1035         53.9179 
        0.61382         49.0829         35.4938         51.9292 
       0.626067         47.0648         33.9917         50.4796 
       0.638306         45.6403         32.5772         48.7815 
       0.650632         44.2224          31.237         47.1611 
       0.662899         42.9163         29.9811         45.7049 
       0.675076         41.0725         28.8041         44.3847 
       0.687267         40.5552         27.6889         43.0788 
       0.699615         39.0986         26.6187         42.0536 
       0.711937          37.371         25.6071         40.6273 
       0.724148         37.1984         24.6566         39.8152 
       0.736433         35.1023         23.7496         38.6178 
       0.748747         34.6354          22.887         37.5986 
       0.761037         33.6817         22.0692          36.706 
       0.773197         32.7994         21.2999          35.891 
       0.785376         31.5643         20.5664         34.9636 
       0.797761         31.0881         19.8561         34.1859 
       0.810096         30.3672         19.1821         33.3411 
       0.822371         29.5932         18.5427         32.4736 
       0.834626         28.7229         17.9336         31.8876 
       0.846916         27.9676         17.3505         31.1119 
       0.859215         27.0378          16.793         30.4199 
       0.871383         26.6409         16.2658         29.8425 
        0.88363         25.9655         15.7581         29.2476 
       0.895928         25.4016         15.2703         28.5311 
       0.908253         24.8623         14.8024         28.0531 
       0.920535          24.291         14.3557         27.4432 
       0.932774         23.8942         13.9291         26.8691 
        0.94508         23.2857         13.5177         26.3314 
       0.957324         22.8345         13.1251         25.8612 
        0.96953         22.2073         12.7493         25.3334 
       0.981769         21.9246         12.3874          24.928 
       0.994071         21.3481         12.0379         24.4334 
         1.0064         20.8365         11.7013         24.0141 
        1.01868         20.4161         11.3786         23.6136 
        1.03092         20.2384         11.0696         23.1666 
         1.0432         19.6001          10.771         22.7194 
        1.05553         19.2694         10.4823         22.4677 
        1.06777         18.7294         10.2064         21.9753 
           1.08         18.3757         9.94064         21.6355 
        1.09227         18.0782         9.68357         21.3361 
         1.1046         17.8126         9.43466         20.9334 
         1.1169         17.4248         9.19498         20.6026 
        1.12915         17.2937         8.96485          20.317 
        1.14142         16.6927         8.74214         19.9749 
        1.15365         16.5736         8.52769          19.677 
        1.16585         16.3688         8.32103         19.4177 
        1.17807         15.9126         8.12099          19.052 
        1.19037         15.7435         7.92624          18.857 
        1.20276         15.4649         7.73657         18.5478 
        1.21504         15.2071         7.55464         18.3199 
        1.22728         14.8572         7.37932         18.0342 
        1.23954         14.6607         7.20917         17.7811 
        1.25184         14.3921         7.04409         17.5506 
        1.26414         14.1976         6.88411         17.2821 
        1.27632         13.9309         6.73055         17.0496 
         1.2886         13.7824         6.58061         16.8433 
        1.30093         13.4673         6.43473         16.6724 
        1.31316         13.2951         6.29433         16.4069 
        1.32541         13.1084         6.15812         16.2465 
        1.33772         12.8635         6.02519         16.0156 
        1.35005         12.7116         5.89611         15.8352 
        1.36225         12.5072         5.77213         15.6177 
        1.37447         12.2789         5.65149         15.4289 
        1.38676         12.1079         5.53375         15.2598 
        1.39907         11.9068         5.41918         15.0696 
        1.41133         11.7423         5.30836         14.8958 
        1.42358         11.5572         5.20075         14.7045 
        1.43591         11.4102         5.09539         14.5731 
        1.44818         11.2074         4.99353         14.4067 
        1.46037         11.1237         4.89507         14.2139 
        1.47263         10.9172         4.79873         14.0923 
        1.48494         10.8312         4.70461          13.894 
        1.49724         10.6264          4.6131         13.7773 
        1.50952         10.5449         4.52422          13.633 
        1.52178         10.3619         4.43781         13.4673 
        1.53409         10.1694         4.35331         13.3258 
        1.54637         10.1238          4.2712         13.1586 
        1.55858         9.99445         4.19167         13.0434 
        1.57081         9.77337         4.11405         12.9242 
        1.58313         9.71387         4.03793         12.7901 
        1.59544         9.52977         3.96377         12.6703 
        1.60767         9.43438         3.89196         12.5285 
        1.61994          9.2827         3.82167         12.4197 
        1.63225         9.20072         3.75298         12.3045 
        1.64452         9.07507         3.68618         12.1899 
        1.65676         8.94935         3.62121         12.0618 
          1.669         8.88244         3.55775         11.9396 
        1.68133         8.69896         3.49542         11.8247 
        1.69363         8.60375         3.43477         11.7125 
        1.70585         8.49823         3.37594         11.6205 
        1.71809         8.40491         3.31838         11.5111 
        1.73038         8.32862         3.26198         11.4163 
        1.74268         8.22101         3.20685         11.3071 
        1.75493         8.08785         3.15326         11.1883 
        1.76714         8.07916         3.10102         11.1078 
        1.77942         7.96023         3.04971         10.9916 
        1.79173         7.82491         2.99943         10.9058 
        1.80402         7.78031         2.95038         10.8139 
         1.8163         7.67934         2.90246         10.7276 
         1.8286         7.55828         2.85553         10.6365 
         1.8409         7.48699         2.80967         10.5519 
        1.85315         7.39861         2.76498         10.4514 
        1.86537         7.34181         2.72134         10.3704 
        1.87765         7.26184         2.67849         10.2844 
        1.88995         7.12878         2.63646          10.206 
        1.90221         7.10056         2.59547         10.1061 
        1.91445         7.00316         2.55543         10.0476 
        1.92674         6.93119         2.51609          9.9514 
        1.93902         6.87878         2.47758          9.8857 
        1.95124         6.78534         2.44008         9.79298 
         1.9635         6.72443         2.40327         9.72729 
        1.97583         6.66845         2.36698         9.64031 
        1.98812         6.59616         2.33157         9.55446 
        2.00039         6.51879         2.29696          9.5041 
        2.01264         6.46214         2.26309         9.43153 
        2.02492         6.40286         2.22986         9.35099 
        2.03717         6.32136         2.19734         9.28308 
        2.04942         6.23668         2.16552          9.2201 
        2.06171         6.21338         2.13422         9.15228 
        2.07397         6.13891          2.1036         9.08546 
        2.08629         6.07548         2.07346         9.02283 
        2.09857         6.01339         2.04399         8.95252 
        2.11081         5.97146          2.0152         8.90053 
        2.12309          5.8962         1.98691         8.81717 
        2.13538         5.84644         1.95911         8.76673 
        2.14763         5.78043         1.93194         8.70445 
        2.15986         5.74553         1.90535         8.64428 
        2.17214         5.69123         1.87915         8.57305 
        2.18443         5.63155         1.85342         8.52186 
        2.19671         5.58348         1.82821         8.46518 
        2.20898         5.51659         1.80349         8.40796 
        2.22126         5.47447          1.7792         8.34614 
        2.23354         5.43259         1.75537         8.28391 
         2.2458         5.37366         1.73202          8.2316 
        2.25807         5.33623         1.70907         8.17726 
        2.27035         5.28708         1.68651         8.12633 
        2.28263         5.24805         1.66438         8.06965 
         2.2949         5.19614         1.64265         8.02225 
        2.30718          5.1517         1.62131         7.98028 
        2.31946         5.12005         1.60033         7.92539 
        2.33169         5.06433         1.57982         7.87026 
        2.34393         5.04083         1.55963         7.81855 
        2.35622         5.00119         1.53973         7.76853 
        2.36847         4.95576         1.52024         7.71919 
        2.38076         4.91876         1.50102         7.67076 
        2.39305         4.86135         1.48215         7.61525 
        2.40534         4.83512         1.46359         7.56757 
        2.41762         4.78373         1.44536         7.53076 
        2.42989         4.76668         1.42746         7.48684 
        2.44216         4.73677         1.40987         7.43743 
         2.4544         4.68212         1.39262         7.38917 
        2.46667         4.66996         1.37561         7.34543 
        2.47897          4.6238         1.35885         7.29657 
        2.49124         4.57912         1.34241         7.25296 
        2.50349         4.56183         1.32627          7.2187 
        2.51578         4.50748         1.31035         7.17493 
        2.52805         4.48882         1.29472         7.13135 
        2.54029         4.45568         1.27938         7.08981 
        2.55257          4.4445         1.26424           7.051 
        2.56487         4.39852         1.24932         7.00166 
        2.57716         4.37536         1.23466          6.9641 
        2.58942         4.34037         1.22027         6.92463 
        2.60167         4.31605         1.20612         6.88254 
        2.61395         4.26879         1.19218         6.84607 
        2.62624         4.27496         1.17843         6.80864 
        2.63849         4.24285         1.16495         6.76711 
        2.65073          4.2091         1.15169         6.72574 
        2.66302         4.19318         1.13859         6.68762 
         2.6753         4.16056         1.12571         6.65134 
        2.68756         4.13516         1.11305         6.61876 
        2.69983         4.11686         1.10057          6.5762 
        2.71213         4.09272         1.08826         6.53979 
        2.72441         4.06965         1.07616         6.50563 
        2.73665          4.0546         1.06428           6.467 
         2.7489         4.02573         1.05257         6.43508 
        2.76118         4.00063         1.04101         6.40732 
        2.77349         3.99501          1.0296          6.3651 
        2.78576         3.97519          1.0184         6.33107 
        2.79802         3.96116         1.00738         6.29931 
        2.81031         3.93367        0.996488         6.26688 
        2.82259         3.91974        0.985766         6.23336 
        2.83483         3.91526        0.975241         6.19952 
         2.8471         3.89591         0.96485         6.16792 
         2.8594         3.88454        0.954578         6.13703 
         2.8717         3.85903         0.94446         6.10053 
        2.88396         3.85591        0.934526         6.06911 
        2.89619         3.82364        0.924753         6.04155 
        2.90847         3.82164        0.915083         6.00526 
        2.92072         3.82367        0.905567         5.97504 
        2.93299         3.81689        0.896182         5.94647 
        2.94526         3.80928        0.886921          5.9143 
        2.95753         3.79139        0.877795         5.88355 
        2.96982         3.76977        0.868781         5.85504 
        2.98209         3.77347        0.859912         5.82368 
        2.99436         3.76647        0.851159         5.79431 
        3.00666         3.77442        0.842513          5.7672 
        3.01894         3.76415        0.834005         5.73302 
        3.03119         3.76476        0.825626         5.70621 
        3.04345           3.754        0.817361         5.67984 
        3.05573         3.75717        0.809193         5.64898 
          3.068         3.74458        0.801145          5.6241 
        3.08026         3.76072        0.793215         5.59735 
        3.09254         3.76197        0.785378         5.56821 
        3.10483         3.76476        0.777645         5.54262 
         3.1171         3.77058        0.770027         5.51711 
        3.12933         3.78142        0.762531         5.48713 
        3.14159         3.77339         0.75512         5.45886 
