# k  (h/Mpc)    P(k)  (Mpc/h)^3    P_linear(k)  (Mpc/h)^3     P_NL(k)  ShotnoiseSubtracted = false
      0.0156606         16782.3           16782         16662.9 
      0.0273761         14399.6           14487         14359.5 
      0.0384619         10897.1         10905.2         10797.5 
      0.0498308         8433.53         8573.21         8466.64 
      0.0625568         7119.29          7283.5         7186.95 
      0.0751274         6313.78         6186.67         6049.37 
      0.0867833         4906.21          4980.2         4939.68 
      0.0984825          4113.7         3940.76         3983.23 
       0.111151         3502.72         3290.17         3339.64 
       0.123864         3140.85         2964.91         3005.48 
       0.135742         2853.27         2666.07         2707.21 
        0.14762          2472.2         2279.53         2388.34 
       0.160083         2081.77         1900.06         2031.52 
       0.172465         1856.73         1658.35         1824.77 
       0.184281         1693.92         1528.77         1697.84 
       0.196406          1579.5         1411.79         1559.75 
       0.209011         1467.69         1256.11         1410.86 
       0.221538         1323.81         1097.71         1308.09 
       0.233611         1254.28         982.154         1218.82 
       0.245665         1144.25         906.483         1123.15 
       0.258103         1113.73         843.851         1058.62 
       0.270422         998.572         775.395          991.07 
       0.282519         933.716          703.71         931.703 
       0.294636         923.211         641.154         879.181 
       0.306978         833.874         593.172         839.568 
       0.319417          810.38          554.58         790.655 
        0.33169         763.471         517.639         746.375 
       0.343948         728.977          479.62         721.103 
       0.356249         686.877         443.967         692.313 
       0.368458         664.877         414.103         657.606 
        0.38068         645.846         389.132         630.516 
       0.392856         610.181         366.334         606.492 
       0.405069         582.786         344.041         587.748 
       0.417459         559.521         322.459         562.149 
       0.429752         548.192         303.084         542.051 
       0.441978         529.763         286.079         527.006 
       0.454294         502.812         270.637         504.474 
        0.46658         491.522         256.148         492.775 
       0.478753         478.189         242.479          476.62 
       0.490964         460.325         229.639         461.239 
       0.503334         436.538          217.79         449.527 
       0.515665         435.475         206.984         439.777 
       0.527909         419.084         197.008         428.132 
       0.540159         408.495         187.569         416.254 
        0.55248         400.444         178.614         405.014 
       0.564743         395.599         170.322         397.638 
        0.57686         380.278         162.701         386.311 
       0.589077         368.432         155.507         377.713 
       0.601441         363.972         148.666         369.394 
        0.61382         356.453         142.216         362.506 
       0.626067         351.004         136.197         354.783 
       0.638306         336.338          130.53         347.996 
       0.650632         331.383          125.16         338.235 
       0.662899         328.546         120.128          334.12 
       0.675076         315.908         115.412         328.057 
       0.687267         307.994         110.943         320.365 
       0.699615         303.785         106.655         314.996 
       0.711937         299.122         102.602         309.342 
       0.724148         289.565         98.7935         304.715 
       0.736433          283.17         95.1596         298.643 
       0.748747         278.905          91.703         293.038 
       0.761037         273.699         88.4265         288.594 
       0.773197         270.255         85.3439         284.605 
       0.785376         266.188         82.4049         279.676 
       0.797761          259.57         79.5587         275.421 
       0.810096         256.761         76.8583         271.619 
       0.822371         247.213         74.2963         267.118 
       0.834626         246.484         71.8559         263.259 
       0.846916         241.118         69.5193         259.384 
       0.859215         241.085         67.2858         255.652 
       0.871383          234.53         65.1731         251.801 
        0.88363         232.929         63.1391           249.2 
       0.895928         227.595         61.1846         245.261 
       0.908253         221.462         59.3096         241.266 
       0.920535         220.387         57.5199          238.04 
       0.932774         213.615         55.8105         234.756 
        0.94508         211.462         54.1624         232.307 
       0.957324         210.845         52.5892         228.884 
        0.96953         207.802         51.0836         225.677 
       0.981769         201.418         49.6334         223.538 
       0.994071         200.503         48.2329          220.64 
         1.0064         196.019         46.8843         217.317 
        1.01868         193.345         45.5914         214.781 
        1.03092         189.444         44.3533         212.575 
         1.0432           185.9         43.1569         209.952 
        1.05553         183.267         42.0002          207.33 
        1.06777         182.964         40.8944         205.229 
           1.08         178.368         39.8298         202.625 
        1.09227         176.175         38.7997         200.458 
         1.1046         173.509         37.8024         198.316 
         1.1169         170.405         36.8421         195.599 
        1.12915         167.908           35.92         193.799 
        1.14142         165.215         35.0276         191.273 
        1.15365         162.942         34.1684         189.264 
        1.16585         160.638         33.3403         186.809 
        1.17807         158.466         32.5388         185.404 
        1.19037         157.145         31.7585         183.536 
        1.20276         154.536         30.9985         181.254 
        1.21504         151.744         30.2696         179.309 
        1.22728         148.799         29.5671         177.037 
        1.23954         148.262         28.8854          175.74 
        1.25184         145.417         28.2239         173.724 
        1.26414         143.101         27.5829         171.905 
        1.27632         142.567         26.9677         170.865 
         1.2886         140.311         26.3669         168.518 
        1.30093         136.315         25.7824         166.695 
        1.31316          135.27         25.2198         164.831 
        1.32541          133.55         24.6741         163.592 
        1.33772         132.288         24.1414         161.823 
        1.35005         130.308         23.6242         160.008 
        1.36225         128.609         23.1275         158.576 
        1.37447         126.501         22.6441         156.749 
        1.38676         125.083         22.1724         155.268 
        1.39907         122.674         21.7133          153.75 
        1.41133         120.926         21.2693         152.447 
        1.42358         119.193         20.8381         151.008 
        1.43591         118.015          20.416         149.314 
        1.44818          116.84         20.0079         148.059 
        1.46037         114.642         19.6134         146.526 
        1.47263         113.496         19.2273         145.417 
        1.48494         111.791         18.8502         143.743 
        1.49724         110.244         18.4836         142.391 
        1.50952         108.217         18.1274           141.1 
        1.52178         107.684         17.7812         139.684 
        1.53409         105.675         17.4426         138.516 
        1.54637         104.233         17.1136         137.309 
        1.55858         102.475          16.795         135.909 
        1.57081         101.115          16.484         134.753 
        1.58313         99.9336          16.179         133.444 
        1.59544         98.7623         15.8818         132.287 
        1.60767         97.4291         15.5941         131.004 
        1.61994         95.8031         15.3125         130.103 
        1.63225          94.567         15.0373         128.545 
        1.64452         92.9168         14.7696         127.438 
        1.65676         91.6482         14.5093         126.405 
          1.669          91.047          14.255         125.378 
        1.68133         89.3458         14.0053         124.193 
        1.69363         88.4672         13.7623         123.141 
        1.70585         86.9032         13.5266         122.016 
        1.71809         85.7407         13.2959         120.896 
        1.73038         85.0322         13.0699         119.849 
        1.74268         83.7428         12.8491         118.781 
        1.75493         82.6454         12.6343         117.719 
        1.76714         81.3469          12.425         116.774 
        1.77942         80.5259         12.2194         115.652 
        1.79173         79.1953          12.018         114.746 
        1.80402          78.572         11.8214           113.8 
         1.8163         77.1485         11.6294         112.665 
         1.8286         76.0682         11.4414         111.766 
         1.8409         75.3929         11.2576         110.799 
        1.85315         74.1804         11.0786         109.927 
        1.86537         73.3328         10.9037         108.985 
        1.87765         72.6634          10.732         107.982 
        1.88995         71.4437         10.5636         107.157 
        1.90221         70.5072         10.3994         106.228 
        1.91445         69.3034          10.239         105.312 
        1.92674         68.4069         10.0813         104.465 
        1.93902         67.5469         9.92704         103.524 
        1.95124         66.9807          9.7768         102.761 
         1.9635          65.902         9.62928         101.744 
        1.97583         65.0288         9.48387         101.052 
        1.98812         64.2037         9.34202          100.17 
        2.00039         63.1929         9.20336         99.3381 
        2.01264         62.6953         9.06764         98.5006 
        2.02492         61.7437         8.93447         97.7039 
        2.03717         60.7586         8.80419         96.8416 
        2.04942         60.3592         8.67668         96.1643 
        2.06171         59.1509         8.55126         95.3264 
        2.07397         58.5462          8.4286         94.6016 
        2.08629         57.9452         8.30784         93.7762 
        2.09857         57.0573         8.18973         93.0413 
        2.11081         56.0653          8.0744         92.2025 
        2.12309         55.7052         7.96102         91.5755 
        2.13538         54.8203         7.84966         90.8015 
        2.14763         54.1409          7.7408         90.0798 
        2.15986         53.1186         7.63426         89.3419 
        2.17214         52.7381         7.52929           88.62 
        2.18443         52.1084         7.42619           88.01 
        2.19671          51.201         7.32515         87.2521 
        2.20898         51.0087         7.22611           86.56 
        2.22126          50.159          7.1288         85.8436 
        2.23354         49.4801         7.03331         85.2121 
         2.2458         48.8925         6.93974         84.5772 
        2.25807         48.2966         6.84779         83.8537 
        2.27035         47.7698         6.75743         83.1966 
        2.28263         46.9632         6.66874         82.5353 
         2.2949         46.5936         6.58169         81.9043 
        2.30718         45.7632         6.49617         81.3034 
        2.31946         45.2779         6.41212         80.6864 
        2.33169         44.6646         6.32993         80.0578 
        2.34393         43.9693         6.24904          79.451 
        2.35622         43.6942         6.16932         78.8302 
        2.36847         43.1143         6.09121         78.2827 
        2.38076         42.5191         6.01422         77.6197 
        2.39305         42.0035         5.93858         77.0725 
        2.40534         41.5567         5.86423         76.4385 
        2.41762         41.1478         5.79117         75.8268 
        2.42989         40.5584         5.71947          75.329 
        2.44216         40.1753         5.64899         74.7337 
         2.4544         39.6701         5.57985         74.1637 
        2.46667         39.2573         5.51172         73.5798 
        2.47897         38.7828         5.44456         73.0496 
        2.49124          38.252          5.3787         72.5183 
        2.50349         37.7721         5.31404         71.9548 
        2.51578         37.2922         5.25024          71.484 
        2.52805         37.0592          5.1876         70.9236 
        2.54029         36.5555         5.12614          70.367 
        2.55257         36.0029         5.06549         69.8791 
        2.56487         35.7435          5.0057         69.3965 
        2.57716         35.2725         4.94697         68.9061 
        2.58942         34.8291          4.8893         68.3774 
        2.60167         34.4323         4.83262         67.8723 
        2.61395         34.0586         4.77675         67.3865 
        2.62624         33.8182         4.72168         66.8809 
        2.63849         33.4849         4.66766          66.419 
        2.65073         33.1155         4.61454         65.9127 
        2.66302         32.6475         4.56205         65.4403 
         2.6753         32.2866         4.51042         64.9819 
        2.68756         31.8392         4.45969         64.4853 
        2.69983         31.6686          4.4097         64.0677 
        2.71213         31.3464         4.36038         63.6304 
        2.72441         31.0395          4.3119         63.1582 
        2.73665         30.6925         4.26427         62.7011 
         2.7489         30.5616         4.21739          62.264 
        2.76118         30.0818         4.17107         61.8373 
        2.77349          29.951         4.12534         61.4021 
        2.78576         29.7161         4.08047         60.9494 
        2.79802         29.2716         4.03629         60.5609 
        2.81031         29.0095         3.99267         60.1331 
        2.82259          28.868         3.94971         59.6912 
        2.83483         28.5184         3.90754         59.2904 
         2.8471         28.2067          3.8659         58.8894 
         2.8594         28.1033         3.82475          58.484 
         2.8717         27.8285         3.78421         58.0806 
        2.88396         27.5774          3.7444         57.6608 
        2.89619          27.339         3.70524         57.2553 
        2.90847         27.1709          3.6665         56.8829 
        2.92072         26.9353         3.62837         56.4908 
        2.93299         26.7984         3.59077         56.1021 
        2.94526         26.5521         3.55366           55.74 
        2.95753         26.4086         3.51709         55.3676 
        2.96982         26.3212         3.48098         54.9885 
        2.98209          26.051         3.44544         54.6247 
        2.99436         25.8837         3.41037          54.241 
        3.00666         25.8018         3.37573         53.8876 
        3.01894         25.5838         3.34164         53.5085 
        3.03119         25.4971         3.30807         53.1608 
        3.04345         25.3259         3.27495         52.8313 
        3.05573         25.2813         3.24222         52.4819 
          3.068         25.1635         3.20998           52.13 
        3.08026         24.9858         3.17821         51.7794 
        3.09254         24.9088          3.1468         51.4399 
        3.10483         24.9214         3.11582         51.1105 
         3.1171          24.848         3.08529         50.7778 
        3.12933         24.7651         3.05526         50.4399 
        3.14159         24.6416         3.02557         50.1068 
