# k  (h/Mpc)    P(k)  (Mpc/h)^3    P_linear(k)  (Mpc/h)^3     P_NL(k)  ShotnoiseSubtracted = false
      0.0156606         5034.42         4968.76         4942.57 
      0.0273761         4356.76         4292.18         4276.29 
      0.0384619         3307.93         3232.31         3223.88 
      0.0498308         2584.51         2541.81          2535.2 
      0.0625568         2180.12         2159.88         2152.37 
      0.0751274         1899.58         1834.87         1822.72 
      0.0867833         1498.18         1477.19         1474.98 
      0.0984825          1224.1         1168.95          1175.6 
       0.111151          1028.5         976.023         982.692 
       0.123864         923.977         879.572         885.059 
       0.135742         831.905          790.94         796.549 
        0.14762         708.806         676.284         689.531 
       0.160083         588.505         563.715         578.755 
       0.172465         521.121         492.011          510.34 
       0.184281         482.745         453.573         473.015 
       0.196406         440.465         418.871         434.194 
       0.209011          399.73         372.686         389.737 
       0.221538         357.342         325.691         349.525 
       0.233611         324.865         291.408         318.005 
       0.245665         304.928         268.957         292.693 
       0.258103         277.161         250.376          274.02 
       0.270422         258.934         230.066         253.279 
       0.282519         235.483         208.797         233.316 
       0.294636         228.523         190.237         216.106 
       0.306978         201.657         176.001         202.842 
       0.319417         192.966          164.55         190.404 
        0.33169         179.879          153.59         178.566 
       0.343948         171.568          142.31         168.161 
       0.356249         158.593         131.731         159.297 
       0.368458         152.308          122.87         148.914 
        0.38068         143.825         115.461         141.215 
       0.392856          134.11         108.697         134.587 
       0.405069         127.522         102.083         127.774 
       0.417459         120.793          95.679         120.935 
       0.429752          116.02         89.9303         115.376 
       0.441978         111.047         84.8845         110.999 
       0.454294         103.298         80.3027         105.189 
        0.46658         103.289         76.0036         101.011 
       0.478753         96.3364         71.9479         96.9822 
       0.490964         93.3758         68.1381           93.13 
       0.503334         89.3416         64.6222         89.3846 
       0.515665          85.956         61.4159         86.7752 
       0.527909         82.7092         58.4558         82.4245 
       0.540159         79.7609         55.6552         79.7516 
        0.55248         75.6472          52.998         76.7125 
       0.564743          74.093         50.5378         74.3724 
        0.57686         71.7927         48.2765         71.8077 
       0.589077         68.1399         46.1418         69.7514 
       0.601441         66.3133         44.1121          67.553 
        0.61382         64.4679         42.1983         65.1625 
       0.626067         61.7878         40.4125         63.4026 
       0.638306         59.9462         38.7308         61.4035 
       0.650632         57.9418         37.1375         59.3046 
       0.662899         56.7596         35.6444         57.6058 
       0.675076         54.4523         34.2451         56.0291 
       0.687267         53.6608         32.9192         54.4581 
       0.699615         51.7502         31.6468         53.2501 
       0.711937         49.7052         30.4441         51.4585 
       0.724148         49.4445         29.3141         50.5544 
       0.736433         46.8052         28.2358         49.0656 
       0.748747         46.1968         27.2102         47.8227 
       0.761037         44.9175          26.238         46.7015 
       0.773197         43.8739         25.3233         45.7965 
       0.785376         42.3558         24.4512         44.6105 
       0.797761         41.8548         23.6067          43.709 
       0.810096         40.7634         22.8055         42.6386 
       0.822371          39.833         22.0453         41.5999 
       0.834626         38.7371         21.3212         40.8913 
       0.846916         37.8207         20.6278         39.9562 
       0.859215         36.6781         19.9651          39.081 
       0.871383         36.1737         19.3383          38.373 
        0.88363          35.255         18.7347         37.6851 
       0.895928         34.4499         18.1548         36.8048 
       0.908253         33.7488         17.5984         36.2171 
       0.920535          33.179         17.0674         35.4711 
       0.932774         32.6018         16.5602         34.7991 
        0.94508         31.9288         16.0711         34.0885 
       0.957324         31.2323         15.6043         33.5256 
        0.96953         30.6258         15.1576          32.869 
       0.981769         30.0001         14.7273         32.3886 
       0.994071         29.3653         14.3117         31.7968 
         1.0064         28.7182         13.9116         31.2627 
        1.01868         28.1361          13.528         30.7758 
        1.03092         27.9127         13.1606         30.2251 
         1.0432         27.1904         12.8056         29.6528 
        1.05553         26.6721         12.4624         29.3773 
        1.06777         26.0098         12.1343         28.7636 
           1.08         25.4605         11.8184         28.3208 
        1.09227         25.1396         11.5127         27.9705 
         1.1046         24.7727         11.2168         27.4672 
         1.1169         24.3615         10.9319          27.066 
        1.12915         24.0685         10.6582         26.6876 
        1.14142         23.3666         10.3935         26.2759 
        1.15365          23.154         10.1385         25.9158 
        1.16585         22.8494         9.89281          25.573 
        1.17807         22.3303         9.65499         25.1159 
        1.19037         22.1428         9.42345         24.9028 
        1.20276         21.8112         9.19796           24.51 
        1.21504         21.3714         8.98166         24.2369 
        1.22728          20.965         8.77323         23.8768 
        1.23954         20.7039         8.57094         23.5317 
        1.25184         20.3119         8.37467         23.2582 
        1.26414         20.0686         8.18447         22.9258 
        1.27632         19.7897         8.00191         22.6332 
         1.2886         19.5757         7.82364         22.3763 
        1.30093         19.1051          7.6502         22.1427 
        1.31316         18.9008         7.48329         21.8289 
        1.32541         18.6765         7.32134         21.6136 
        1.33772         18.3387         7.16331         21.3424 
        1.35005         18.1005         7.00984         21.1145 
        1.36225         17.8567         6.86244         20.8534 
        1.37447         17.4971         6.71901         20.5925 
        1.38676         17.3125         6.57904         20.3886 
        1.39907           17.05         6.44283         20.1552 
        1.41133          16.792         6.31107         19.9202 
        1.42358         16.5928         6.18313         19.6877 
        1.43591         16.3392         6.05787         19.5172 
        1.44818         16.1223         5.93678           19.31 
        1.46037         16.0281         5.81972           19.06 
        1.47263         15.7342         5.70518         18.9114 
        1.48494         15.6089         5.59328         18.6655 
        1.49724         15.3944         5.48448         18.5108 
        1.50952         15.1589         5.37881          18.337 
        1.52178         14.9712         5.27608         18.1172 
        1.53409         14.7022         5.17562         17.9421 
        1.54637         14.6713         5.07799         17.7285 
        1.55858         14.4134         4.98344         17.5807 
        1.57081         14.2026         4.89117          17.425 
        1.58313         14.0918         4.80066         17.2516 
        1.59544         13.8491          4.7125         17.1017 
        1.60767          13.717         4.62712         16.9166 
        1.61994         13.4743         4.54356         16.7776 
        1.63225         13.4141          4.4619         16.6428 
        1.64452         13.2292         4.38247         16.4975 
        1.65676         13.0603         4.30523         16.3216 
          1.669         12.9523         4.22979         16.1717 
        1.68133         12.7029         4.15568         16.0228 
        1.69363         12.5642         4.08357          15.851 
        1.70585          12.419         4.01364          15.762 
        1.71809          12.293          3.9452         15.6142 
        1.73038         12.1566         3.87814          15.495 
        1.74268         12.0463         3.81261         15.3399 
        1.75493          11.833         3.74888         15.2047 
        1.76714         11.8448         3.68679         15.0877 
        1.77942         11.6918         3.62578         14.9386 
        1.79173         11.4559           3.566         14.8363 
        1.80402         11.3894         3.50769         14.7208 
         1.8163         11.2621         3.45072         14.5979 
         1.8286         11.0995         3.39492         14.4845 
         1.8409         10.9926          3.3404         14.3682 
        1.85315         10.8849         3.28726         14.2425 
        1.86537         10.7815         3.23538         14.1391 
        1.87765         10.6896         3.18444         14.0267 
        1.88995         10.4999         3.13446         13.9217 
        1.90221         10.4557         3.08574         13.7921 
        1.91445          10.325         3.03813         13.7087 
        1.92674         10.2138         2.99136         13.5915 
        1.93902         10.1181         2.94558         13.5095 
        1.95124         9.98955           2.901         13.4038 
         1.9635         9.89181         2.85722         13.2939 
        1.97583         9.80748         2.81408         13.1765 
        1.98812         9.73068         2.77199         13.0791 
        2.00039         9.64726         2.73084         13.0004 
        2.01264         9.54693         2.69057         12.9115 
        2.02492         9.46553         2.65106          12.801 
        2.03717         9.32083          2.6124          12.713 
        2.04942         9.22275         2.57457         12.6223 
        2.06171         9.19476         2.53735         12.5355 
        2.07397         9.07965         2.50096         12.4525 
        2.08629         9.00071         2.46512         12.3721 
        2.09857         8.92009         2.43008         12.2759 
        2.11081         8.84049         2.39586         12.2068 
        2.12309         8.72371         2.36222         12.0977 
        2.13538         8.64606         2.32917         12.0224 
        2.14763         8.56587         2.29687          11.944 
        2.15986         8.52865         2.26526         11.8713 
        2.17214         8.44438         2.23411         11.7704 
        2.18443         8.33278         2.20352         11.7048 
        2.19671         8.30954         2.17354         11.6261 
        2.20898         8.18874         2.14415         11.5525 
        2.22126         8.09898         2.11528         11.4716 
        2.23354         8.06774         2.08695         11.3876 
         2.2458         7.97149         2.05918         11.3268 
        2.25807         7.90599          2.0319         11.2411 
        2.27035         7.84753         2.00508         11.1734 
        2.28263          7.7811         1.97877         11.0972 
         2.2949         7.69107         1.95294         11.0324 
        2.30718         7.63626         1.92756         10.9754 
        2.31946         7.57808         1.90262         10.9009 
        2.33169         7.51214         1.87823         10.8337 
        2.34393          7.4584         1.85423         10.7595 
        2.35622         7.40627         1.83058         10.6965 
        2.36847         7.33759          1.8074         10.6275 
        2.38076         7.27794         1.78456         10.5638 
        2.39305         7.18439         1.76211         10.4883 
        2.40534         7.14813         1.74005         10.4208 
        2.41762          7.0982         1.71837         10.3743 
        2.42989         7.05494          1.6971         10.3119 
        2.44216         6.99257         1.67618         10.2413 
         2.4544         6.92928         1.65567          10.182 
        2.46667         6.91716         1.63545          10.122 
        2.47897         6.85658         1.61553         10.0518 
        2.49124         6.77484         1.59599         9.99408 
        2.50349         6.74052          1.5768         9.94502 
        2.51578         6.68451         1.55787         9.88943 
        2.52805         6.64756         1.53928          9.8318 
        2.54029          6.5825         1.52104         9.77566 
        2.55257         6.56919         1.50305         9.71759 
        2.56487         6.49335         1.48531         9.65177 
        2.57716         6.45482         1.46788         9.60447 
        2.58942          6.4329         1.45077         9.55097 
        2.60167         6.38308         1.43395         9.49348 
        2.61395         6.32453         1.41737         9.44224 
        2.62624         6.30066         1.40103         9.38766 
        2.63849         6.27847           1.385         9.33687 
        2.65073         6.22371         1.36924         9.27826 
        2.66302          6.1827         1.35367         9.22393 
         2.6753         6.14568         1.33835         9.17361 
        2.68756         6.11662         1.32329         9.13136 
        2.69983         6.07406         1.30846          9.0713 
        2.71213         6.03851         1.29383         9.02101 
        2.72441         5.99929         1.27944         8.97402 
        2.73665         5.98828         1.26531          8.9201 
         2.7489         5.96421          1.2514         8.87373 
        2.76118         5.90688         1.23765         8.83401 
        2.77349         5.88385         1.22408         8.78002 
        2.78576         5.86799         1.21077         8.73346 
        2.79802         5.82437         1.19766         8.68636 
        2.81031         5.80816         1.18472         8.64331 
        2.82259         5.76953         1.17197           8.597 
        2.83483         5.75252         1.15946         8.54873 
         2.8471         5.73762          1.1471         8.50762 
         2.8594         5.73073         1.13489         8.46371 
         2.8717         5.68404         1.12286         8.41179 
        2.88396          5.6623         1.11105         8.37032 
        2.89619         5.62763         1.09943         8.33267 
        2.90847         5.62612         1.08793          8.2825 
        2.92072         5.62858         1.07662         8.23839 
        2.93299          5.6139         1.06546         8.20215 
        2.94526         5.59289         1.05445         8.15597 
        2.95753         5.57437          1.0436         8.11171 
        2.96982         5.55282         1.03289         8.07276 
        2.98209         5.54616         1.02234         8.02589 
        2.99436         5.54146         1.01194         7.98638 
        3.00666         5.54902         1.00166         7.95015 
        3.01894         5.51705        0.991542         7.90457 
        3.03119         5.52233         0.98158         7.86553 
        3.04345          5.5191        0.971754         7.82712 
        3.05573         5.50884        0.962043         7.78459 
          3.068         5.50497        0.952475         7.74898 
        3.08026         5.52993        0.943047          7.7121 
        3.09254         5.52065         0.93373         7.67089 
        3.10483         5.50812        0.924536         7.63524 
         3.1171         5.52037        0.915479         7.59985 
        3.12933         5.52615        0.906568         7.55759 
        3.14159         5.51287        0.897756         7.52104 
