# k  (h/Mpc)    P(k)  (Mpc/h)^3    P_linear(k)  (Mpc/h)^3     P_NL(k)  ShotnoiseSubtracted = false
      0.0156606         23194.2         23309.4         23119.6 
      0.0273761         19830.2         20118.3           19886 
      0.0384619           14971         15142.6         14934.5 
      0.0498308         11544.3         11903.5         11693.6 
      0.0625568         9750.03         10112.1         9926.36 
      0.0751274          8690.5         8588.91         8328.84 
      0.0867833         6723.78         6913.76          6832.6 
      0.0984825          5695.1         5470.62         5540.42 
       0.111151         4878.39         4567.38         4656.23 
       0.123864         4367.87         4115.79         4187.43 
       0.135742         3987.24          3700.9          3772.5 
        0.14762         3475.52          3164.3          3353.2 
       0.160083         2962.07         2637.52         2871.84 
       0.172465         2641.44         2301.97         2600.65 
       0.184281         2388.65         2122.09         2420.52 
       0.196406         2262.32          1959.7         2231.94 
       0.209011         2121.01          1743.6         2024.99 
       0.221538         1907.68         1523.71         1894.96 
       0.233611         1834.98         1363.31         1779.24 
       0.245665         1661.12         1258.27         1644.88 
       0.258103         1651.69         1171.33         1554.31 
       0.270422         1472.59          1076.3         1462.18 
       0.282519         1395.03         976.798         1387.87 
       0.294636         1365.79         889.964         1316.44 
       0.306978         1252.33         823.362         1263.25 
       0.319417         1231.01         769.791         1191.64 
        0.33169         1155.81         718.514         1130.16 
       0.343948         1111.88         665.741         1096.36 
       0.356249         1056.27         616.251         1056.95 
       0.368458         1011.46         574.798         1012.34 
        0.38068         998.639         540.136         975.166 
       0.392856         949.801         508.491         942.551 
       0.405069         899.084         477.548         911.425 
       0.417459         864.663         447.589         881.855 
       0.429752         864.035         420.696         851.422 
       0.441978         833.546         397.091          830.62 
       0.454294         797.959         375.657         797.682 
        0.46658         775.464         355.545         781.927 
       0.478753         761.829         336.572         759.112 
       0.490964         732.816          318.75         736.452 
       0.503334         702.401         302.302         720.972 
       0.515665         699.203         287.302         704.554 
       0.527909         669.584         273.455         690.837 
       0.540159         654.076         260.354         674.214 
        0.55248         640.515         247.924         657.141 
       0.564743         634.644         236.415           646.1 
        0.57686         615.023         225.836         629.546 
       0.589077         606.014          215.85         616.117 
       0.601441         589.904         206.355         604.604 
        0.61382         572.866         197.402          593.96 
       0.626067         567.168         189.048         583.479 
       0.638306         546.701         181.181         571.591 
       0.650632         541.537         173.727         558.836 
       0.662899         537.109         166.742         551.887 
       0.675076         520.882         160.197           544.9 
       0.687267          505.44         153.994          532.29 
       0.699615         504.871         148.042         523.903 
       0.711937         492.995         142.416         513.962 
       0.724148         477.499         137.129          507.48 
       0.736433         466.475         132.085         498.745 
       0.748747         460.491         127.287         490.152 
       0.761037         452.457         122.739         484.476 
       0.773197         444.746         118.461         476.254 
       0.785376         439.739         114.381         469.571 
       0.797761         426.503         110.431         463.046 
       0.810096         420.647         106.682         457.053 
       0.822371         410.487         103.126         449.768 
       0.834626         405.903         99.7388         444.778 
       0.846916         400.487         96.4955         437.835 
       0.859215         394.595         93.3953         431.391 
       0.871383         386.117         90.4629          425.84 
        0.88363          380.76         87.6396         421.577 
       0.895928         375.982         84.9267         415.128 
       0.908253         366.781          82.324         408.256 
       0.920535         358.368         79.8398         404.162 
       0.932774          353.61         77.4672         397.929 
        0.94508         348.135         75.1795         394.081 
       0.957324         343.609         72.9959         388.855 
        0.96953         339.257          70.906         384.169 
       0.981769         331.317         68.8931         379.882 
       0.994071         330.012         66.9492         375.334 
         1.0064         323.928         65.0772         369.901 
        1.01868         319.928         63.2827         365.273 
        1.03092         310.546         61.5641         362.114 
         1.0432         307.531         59.9035         357.745 
        1.05553          304.43         58.2979         352.799 
        1.06777         299.751          56.763         348.745 
           1.08         292.965         55.2852         344.932 
        1.09227         292.518         53.8555          340.82 
         1.1046         286.289         52.4712          337.68 
         1.1169         280.532         51.1382         333.246 
        1.12915         276.283         49.8583          329.75 
        1.14142         270.659         48.6197         325.954 
        1.15365         267.478          47.427         322.552 
        1.16585         263.093         46.2776         318.993 
        1.17807         260.451         45.1651         315.403 
        1.19037         255.293          44.082         312.743 
        1.20276         252.517         43.0271         308.687 
        1.21504         247.348         42.0153         305.212 
        1.22728         243.632         41.0403         302.085 
        1.23954         242.049          40.094         298.848 
        1.25184         236.444         39.1759         295.735 
        1.26414         231.836         38.2861         292.955 
        1.27632         229.411         37.4321         290.219 
         1.2886         226.992         36.5982         286.978 
        1.30093         222.205         35.7869         283.286 
        1.31316         217.513         35.0061         280.715 
        1.32541         216.319         34.2485         277.594 
        1.33772         212.212         33.5092         275.154 
        1.35005         209.668         32.7913         272.038 
        1.36225         205.659         32.1018         269.502 
        1.37447         202.286         31.4309         266.289 
        1.38676         200.324         30.7761         264.409 
        1.39907         197.335         30.1389          261.15 
        1.41133         193.489         29.5226         258.395 
        1.42358         191.032         28.9241         255.977 
        1.43591         188.352         28.3381         253.731 
        1.44818         184.707         27.7716         250.999 
        1.46037         183.174         27.2241         248.313 
        1.47263          179.61         26.6882         245.873 
        1.48494         178.204         26.1648         242.975 
        1.49724         174.764         25.6559         241.493 
        1.50952          171.82         25.1615         238.579 
        1.52178         169.518         24.6809          236.35 
        1.53409         166.672          24.211         234.107 
        1.54637         163.938         23.7543         232.178 
        1.55858         162.155          23.312         229.745 
        1.57081         159.268         22.8804         227.437 
        1.58313          157.27          22.457         225.139 
        1.59544         154.308         22.0446         223.144 
        1.60767          152.86         21.6452         221.171 
        1.61994         150.198         21.2543         218.893 
        1.63225         147.723         20.8723          216.69 
        1.64452         145.345         20.5007         214.776 
        1.65676         143.547         20.1394         212.956 
          1.669         141.798         19.7865         210.768 
        1.68133         138.948         19.4399         208.842 
        1.69363         136.572         19.1025         207.147 
        1.70585         134.446         18.7754          205.17 
        1.71809         132.629         18.4552         202.997 
        1.73038         130.743         18.1415         201.273 
        1.74268         129.577          17.835         199.309 
        1.75493         126.852         17.5369         197.714 
        1.76714         126.009         17.2464         195.962 
        1.77942         123.386          16.961         194.189 
        1.79173          121.69         16.6814         192.298 
        1.80402         119.859         16.4086         190.593 
         1.8163         117.803         16.1421         189.091 
         1.8286         116.099         15.8811         187.231 
         1.8409         114.557          15.626         185.498 
        1.85315          112.43         15.3774         183.969 
        1.86537         111.194         15.1348         182.401 
        1.87765         109.791         14.8964         180.836 
        1.88995         107.865         14.6627         179.107 
        1.90221         106.464         14.4348         177.718 
        1.91445         104.801          14.212         176.032 
        1.92674         103.031         13.9933         174.449 
        1.93902         101.854         13.7791         172.878 
        1.95124         100.372         13.5705         171.434 
         1.9635         98.7285         13.3658         169.945 
        1.97583         97.2149          13.164         168.415 
        1.98812         95.7869         12.9671         167.256 
        2.00039         94.7016         12.7746         165.627 
        2.01264         93.5232         12.5862         164.261 
        2.02492         92.0068         12.4014         162.751 
        2.03717         90.6925         12.2205         161.484 
        2.04942         89.4788         12.0435         160.078 
        2.06171         87.9689         11.8695         158.639 
        2.07397         86.8125         11.6992         157.455 
        2.08629         85.4698         11.5316         156.081 
        2.09857         84.4758         11.3676          154.84 
        2.11081         83.1154         11.2076         153.413 
        2.12309         82.0485         11.0502         152.225 
        2.13538         80.6704         10.8956          150.91 
        2.14763         79.5126         10.7445         149.672 
        2.15986         78.6899         10.5966         148.334 
        2.17214          77.528         10.4509         147.226 
        2.18443         76.6204         10.3078         146.138 
        2.19671         75.6347         10.1676         144.858 
        2.20898         74.5244         10.0301         143.557 
        2.22126         73.4835         9.89503         142.511 
        2.23354         72.5135         9.76249         141.394 
         2.2458         71.0965         9.63261         140.168 
        2.25807         70.4813         9.50498         139.064 
        2.27035          69.462         9.37955         137.944 
        2.28263         68.5865         9.25645         136.895 
         2.2949         67.2878         9.13562         135.813 
        2.30718          66.324         9.01691         134.688 
        2.31946         65.6481         8.90025         133.539 
        2.33169         64.6231         8.78617         132.542 
        2.34393         63.9935          8.6739         131.623 
        2.35622         62.9841         8.56324         130.481 
        2.36847         62.2253         8.45482         129.567 
        2.38076         61.1311         8.34795         128.458 
        2.39305         60.5784         8.24296         127.552 
        2.40534         59.6134         8.13977         126.488 
        2.41762         59.0569         8.03836         125.494 
        2.42989         58.0553         7.93883         124.569 
        2.44216         57.5576           7.841         123.536 
         2.4544          56.701         7.74504         122.656 
        2.46667         55.7973         7.65047          121.72 
        2.47897         55.3532         7.55724         120.701 
        2.49124         54.6157         7.46584         119.797 
        2.50349           53.64         7.37608         118.919 
        2.51578         53.2921         7.28752         118.096 
        2.52805         52.3751         7.20057         117.127 
        2.54029         51.8744         7.11526         116.246 
        2.55257         51.2329         7.03108          115.43 
        2.56487          50.813         6.94809         114.569 
        2.57716         50.2459         6.86657         113.712 
        2.58942         49.4514         6.78653         112.881 
        2.60167         48.8914         6.70785          112.07 
        2.61395         48.5095         6.63029         111.213 
        2.62624         47.7543         6.55386         110.335 
        2.63849         47.2084         6.47887         109.579 
        2.65073         46.5534         6.40514         108.757 
        2.66302         46.1692         6.33229         107.984 
         2.6753         45.4972         6.26062         107.215 
        2.68756         45.2072         6.19021         106.407 
        2.69983         44.6573         6.12083         105.641 
        2.71213         44.1475         6.05236         104.889 
        2.72441         43.7244         5.98507         104.118 
        2.73665          43.227         5.91896         103.404 
         2.7489          42.778         5.85389          102.68 
        2.76118         42.3791          5.7896         101.914 
        2.77349         41.9316         5.72612         101.213 
        2.78576         41.5052         5.66384          100.48 
        2.79802          41.152         5.60252         99.8271 
        2.81031         40.6655         5.54197         99.1073 
        2.82259         40.2268         5.48233         98.3677 
        2.83483         39.8202          5.4238         97.7245 
         2.8471         39.3667         5.36601          97.018 
         2.8594         39.0202         5.30888         96.3369 
         2.8717         38.7519         5.25261         95.7132 
        2.88396         38.3603         5.19736         95.0487 
        2.89619         38.0721         5.14301         94.3525 
        2.90847         37.6988         5.08923         93.6624 
        2.92072         37.3946         5.03631         93.0899 
        2.93299         37.1914         4.98411         92.4673 
        2.94526         36.8533         4.93261         91.8075 
        2.95753         36.6094         4.88185         91.1787 
        2.96982         36.2135         4.83172           90.58 
        2.98209         36.0326         4.78239         89.9618 
        2.99436         35.8311         4.73371         89.3265 
        3.00666         35.6321         4.68563          88.727 
        3.01894         35.4246         4.63831         88.1411 
        3.03119         35.1603         4.59171         87.5791 
        3.04345           34.92         4.54575          87.005 
        3.05573         34.9043         4.50032         86.4137 
          3.068         34.6208         4.45556         85.8475 
        3.08026         34.4389         4.41146         85.2753 
        3.09254         34.4017         4.36787         84.7207 
        3.10483         34.3158         4.32487         84.1682 
         3.1171         34.1695          4.2825          83.605 
        3.12933         33.9386         4.24081         83.0498 
        3.14159         33.9255         4.19959         82.5014 
