# k  (h/Mpc)    Pcb(k)  (Mpc/h)^3    Pcb_linear(k) (Mpc/h)^3    Pcb_NL(k) (Mpc/h)^3   ShotnoiseSubtracted = false
      0.0156606         4900.54         4906.75         4880.89 
      0.0273761         4247.78         4244.98         4229.26 
      0.0384619          3227.6            3199         3190.65 
      0.0498308         2523.18         2516.61         2510.07 
      0.0625568         2128.95         2139.02         2131.58 
      0.0751274         1854.56         1817.43          1805.4 
      0.0867833          1463.3         1463.29          1461.1 
      0.0984825         1195.11         1158.03         1164.62 
       0.111151         1003.99         966.955         973.562 
       0.123864         902.008         871.434         876.871 
       0.135742         812.035         783.644         789.201 
        0.14762         691.736          670.06         683.185 
       0.160083         574.322         558.537         573.438 
       0.172465         508.437         487.498         505.659 
       0.184281          471.05         449.417         468.681 
       0.196406         429.754         415.037          430.22 
       0.209011         389.843         369.278         386.173 
       0.221538         348.383         322.715         346.332 
       0.233611         316.534         288.747         315.101 
       0.245665         297.167         266.502         290.021 
       0.258103         269.886         248.091          271.52 
       0.270422         252.271         227.967         250.969 
       0.282519         229.376         206.893         231.189 
       0.294636         222.377         188.503         214.136 
       0.306978         196.225         174.397         200.994 
       0.319417         187.745         163.051         188.669 
        0.33169         174.969         152.191          176.94 
       0.343948         166.858         141.014          166.63 
       0.356249         154.166         130.532         157.847 
       0.368458         148.003         121.752         147.558 
        0.38068         139.698          114.41         139.928 
       0.392856         130.266         107.707         133.362 
       0.405069         123.821         101.154         126.612 
       0.417459         117.221          94.808         119.834 
       0.429752         112.572         89.1116         114.326 
       0.441978         107.706         84.1121         109.989 
       0.454294         100.187          79.572         104.231 
        0.46658         100.146         75.3121         100.092 
       0.478753         93.3656         71.2934            96.1 
       0.490964         90.4878         67.5186         92.2833 
       0.503334         86.6047         64.0344         88.5715 
       0.515665         83.2498         60.8572         85.9858 
       0.527909         80.0646         57.9242         81.6748 
       0.540159         77.1956         55.1493         79.0267 
        0.55248         73.1175         52.5163         76.0152 
       0.564743         71.6635         50.0783         73.6962 
        0.57686         69.4338         47.8375         71.1548 
       0.589077         65.8658         45.7223         69.1172 
       0.601441         64.0721         43.7111         66.9388 
        0.61382         62.2499         41.8147         64.5701 
       0.626067          59.664         40.0451         62.8262 
       0.638306         57.8858         38.3787         60.8453 
       0.650632         55.9718         36.7999         58.7656 
       0.662899         54.7481         35.3204         57.0821 
       0.675076         52.5009         33.9338         55.5198 
       0.687267         51.7589         32.6199         53.9631 
       0.699615         49.9094         31.3592         52.7661 
       0.711937         47.8993         30.1674         50.9908 
       0.724148         47.6554         29.0476          50.095 
       0.736433         45.0833         27.9792         48.6197 
       0.748747         44.5006         26.9629         47.3881 
       0.761037         43.2649         25.9995         46.2771 
       0.773197         42.2454         25.0932         45.3803 
       0.785376         40.7572          24.229         44.2051 
       0.797761         40.2544         23.3922         43.3118 
       0.810096         39.2306         22.5982         42.2511 
       0.822371         38.3158          21.845         41.2219 
       0.834626         37.2501         21.1274         40.5197 
       0.846916         36.3518         20.4404         39.5931 
       0.859215         35.2325         19.7837         38.7259 
       0.871383         34.7445         19.1625         38.0243 
        0.88363          33.865         18.5645         37.3427 
       0.895928         33.0953         17.9898         36.4704 
       0.908253         32.4203         17.4385          35.888 
       0.920535         31.8388         16.9123         35.1488 
       0.932774         31.2912         16.4097         34.4829 
        0.94508         30.6225         15.9251         33.7787 
       0.957324         29.9685         15.4626          33.221 
        0.96953         29.3437         15.0199         32.5704 
       0.981769         28.7828         14.5935         32.0944 
       0.994071         28.1456         14.1817         31.5079 
         1.0064         27.5212         13.7852         30.9787 
        1.01868         26.9623         13.4051         30.4962 
        1.03092         26.7513          13.041         29.9505 
         1.0432         26.0316         12.6892         29.3834 
        1.05553          25.546         12.3491         29.1104 
        1.06777         24.8932          12.024         28.5023 
           1.08         24.3786          11.711         28.0635 
        1.09227         24.0567         11.4081         27.7164 
         1.1046         23.7063         11.1149         27.2176 
         1.1169         23.2961         10.8325         26.8201 
        1.12915         23.0341         10.5614         26.4451 
        1.14142         22.3384          10.299         26.0372 
        1.15365         22.1446         10.0464         25.6803 
        1.16585         21.8571         9.80293         25.3407 
        1.17807         21.3406         9.56727         24.8877 
        1.19037         21.1538         9.33783         24.6766 
        1.20276         20.8338         9.11439         24.2873 
        1.21504         20.4216         8.90005         24.0167 
        1.22728         20.0191         8.69351         23.6599 
        1.23954         19.7677         8.49306         23.3179 
        1.25184         19.3949         8.29858         23.0469 
        1.26414         19.1594         8.11011         22.7175 
        1.27632          18.881         7.92921         22.4275 
         1.2886         18.6754         7.75256          22.173 
        1.30093         18.2267          7.5807         21.9415 
        1.31316         18.0314          7.4153         21.6306 
        1.32541         17.8108         7.25483         21.4173 
        1.33772         17.4861         7.09822         21.1485 
        1.35005         17.2628         6.94615         20.9227 
        1.36225         17.0253         6.80009          20.664 
        1.37447         16.6859         6.65797         20.4054 
        1.38676         16.4984         6.51927         20.2034 
        1.39907         16.2459         6.38429         19.9721 
        1.41133         16.0047         6.25374         19.7392 
        1.42358          15.807         6.12696         19.5088 
        1.43591         15.5703         6.00284         19.3399 
        1.44818         15.3521         5.88284         19.1346 
        1.46037         15.2646         5.76685         18.8869 
        1.47263         14.9783         5.65334         18.7396 
        1.48494         14.8628         5.54247         18.4959 
        1.49724         14.6416         5.43466         18.3426 
        1.50952         14.4363         5.32995         18.1704 
        1.52178         14.2484         5.22815         17.9526 
        1.53409         13.9874          5.1286         17.7791 
        1.54637         13.9594         5.03186         17.5674 
        1.55858         13.7249         4.93817          17.421 
        1.57081         13.5028         4.84674         17.2667 
        1.58313         13.4036         4.75705         17.0948 
        1.59544          13.172         4.66969         16.9463 
        1.60767          13.045         4.58509         16.7629 
        1.61994         12.8141         4.50229         16.6252 
        1.63225         12.7507         4.42136         16.4916 
        1.64452         12.5787         4.34266         16.3476 
        1.65676         12.4135         4.26611         16.1733 
          1.669         12.3117         4.19136         16.0248 
        1.68133         12.0738         4.11793         15.8773 
        1.69363         11.9386         4.04648          15.707 
        1.70585         11.8017         3.97717         15.6188 
        1.71809         11.6814         3.90936         15.4723 
        1.73038         11.5545         3.84291         15.3542 
        1.74268         11.4419         3.77797         15.2006 
        1.75493         11.2414         3.71483         15.0666 
        1.76714         11.2529         3.65329         14.9507 
        1.77942         11.1056         3.59284         14.8029 
        1.79173         10.8839          3.5336         14.7015 
        1.80402         10.8248         3.47582          14.587 
         1.8163         10.6978         3.41937         14.4653 
         1.8286         10.5402         3.36408         14.3529 
         1.8409         10.4409         3.31005         14.2376 
        1.85315         10.3347          3.2574         14.1131 
        1.86537          10.241         3.20599         14.0106 
        1.87765         10.1506         3.15551         13.8993 
        1.88995         9.96718         3.10599         13.7952 
        1.90221         9.92997         3.05771         13.6668 
        1.91445          9.8022         3.01053         13.5841 
        1.92674         9.69591         2.96419         13.4681 
        1.93902         9.61036         2.91882         13.3868 
        1.95124         9.48712         2.87464         13.2821 
         1.9635         9.39486         2.83127         13.1731 
        1.97583          9.3162         2.78851         13.0568 
        1.98812         9.24142         2.74681         12.9603 
        2.00039         9.15556         2.70604         12.8823 
        2.01264         9.06258         2.66613         12.7942 
        2.02492         8.98693         2.62697         12.6847 
        2.03717         8.84859         2.58867         12.5975 
        2.04942         8.75385         2.55118         12.5076 
        2.06171         8.72886          2.5143         12.4216 
        2.07397          8.6183         2.47824         12.3394 
        2.08629         8.54174         2.44273         12.2597 
        2.09857         8.46349           2.408         12.1643 
        2.11081         8.39171         2.37409         12.0959 
        2.12309         8.28133         2.34076         11.9878 
        2.13538         8.21049         2.30801         11.9132 
        2.14763         8.12775           2.276         11.8355 
        2.15986         8.09222         2.24468         11.7634 
        2.17214         8.01393         2.21381         11.6635 
        2.18443          7.9109          2.1835         11.5985 
        2.19671         7.88446         2.15379         11.5205 
        2.20898         7.76839         2.12467         11.4476 
        2.22126         7.68921         2.09606         11.3674 
        2.23354         7.65644         2.06799         11.2841 
         2.2458          7.5662         2.04047         11.2239 
        2.25807         7.50508         2.01344          11.139 
        2.27035         7.44814         1.98687         11.0719 
        2.28263         7.38617         1.96079         10.9964 
         2.2949         7.30196          1.9352         10.9322 
        2.30718         7.24765         1.91005         10.8757 
        2.31946         7.19556         1.88534         10.8018 
        2.33169         7.13203         1.86117         10.7353 
        2.34393         7.08317         1.83739         10.6617 
        2.35622           7.033         1.81395         10.5993 
        2.36847         6.96836         1.79098         10.5309 
        2.38076          6.9096         1.76834         10.4678 
        2.39305         6.82443          1.7461          10.393 
        2.40534          6.7888         1.72424         10.3261 
        2.41762         6.73963         1.70276           10.28 
        2.42989         6.70045         1.68168         10.2182 
        2.44216         6.64373         1.66096         10.1483 
         2.4544         6.58087         1.64063         10.0895 
        2.46667         6.57043          1.6206           10.03 
        2.47897         6.51248         1.60085         9.96044 
        2.49124          6.4367         1.58149         9.90329 
        2.50349         6.40515         1.56247         9.85467 
        2.51578         6.34865         1.54371         9.79959 
        2.52805         6.31503          1.5253         9.74248 
        2.54029         6.25512         1.50722         9.68685 
        2.55257         6.24372         1.48939          9.6293 
        2.56487         6.17381         1.47181         9.56408 
        2.57716         6.13537         1.45454         9.51721 
        2.58942         6.11264         1.43759          9.4642 
        2.60167          6.0665         1.42092         9.40723 
        2.61395         6.00965         1.40449         9.35645 
        2.62624         5.99245          1.3883         9.30237 
        2.63849         5.97012         1.37242         9.25205 
        2.65073         5.91648          1.3568         9.19396 
        2.66302         5.88189         1.34137         9.14012 
         2.6753         5.84239         1.32619         9.09026 
        2.68756         5.81471         1.31127          9.0484 
        2.69983         5.77722         1.29657         8.98889 
        2.71213         5.74182         1.28207         8.93905 
        2.72441         5.70645         1.26782         8.89249 
        2.73665         5.69312         1.25381         8.83906 
         2.7489          5.6712         1.24003         8.79311 
        2.76118         5.61895         1.22641         8.75375 
        2.77349         5.59739         1.21296         8.70025 
        2.78576         5.58033         1.19977         8.65411 
        2.79802         5.54115         1.18678         8.60744 
        2.81031         5.52384         1.17395         8.56478 
        2.82259         5.49044         1.16132         8.51889 
        2.83483         5.47674         1.14892         8.47106 
         2.8471         5.45856         1.13668         8.43033 
         2.8594         5.45062         1.12458         8.38681 
         2.8717         5.40674         1.11266         8.33536 
        2.88396         5.38956         1.10096         8.29427 
        2.89619         5.35661         1.08944         8.25696 
        2.90847         5.35531         1.07805         8.20725 
        2.92072         5.35566         1.06684         8.16354 
        2.93299         5.34614         1.05578         8.12763 
        2.94526         5.32533         1.04487         8.08186 
        2.95753         5.30803         1.03412           8.038 
        2.96982         5.28713          1.0235         7.99941 
        2.98209         5.28078         1.01305         7.95297 
        2.99436         5.27475         1.00274         7.91382 
        3.00666         5.28435        0.992557         7.87791 
        3.01894         5.25651        0.982533         7.83275 
        3.03119         5.26115        0.972661         7.79406 
        3.04345         5.25585        0.962925           7.756 
        3.05573         5.24694        0.953302         7.71386 
          3.068         5.24061        0.943821         7.67858 
        3.08026         5.26537        0.934479         7.64203 
        3.09254         5.25801        0.925246         7.60119 
        3.10483         5.25061        0.916135         7.56586 
         3.1171         5.26091        0.907161         7.53079 
        3.12933         5.26572         0.89833         7.48892 
        3.14159         5.25407        0.889599         7.45271 
