# k  (h/Mpc)    P(k)  (Mpc/h)^3    P_linear(k)  (Mpc/h)^3     P_NL(k)  ShotnoiseSubtracted = false
      0.0156606         23990.8         24138.5         23938.8 
      0.0273761         20504.9         20833.6         20585.8 
      0.0384619         15478.2         15680.7         15457.8 
      0.0498308         11934.2         12326.4         12101.2 
      0.0625568         10082.9         10471.3         10272.5 
      0.0751274          8994.1         8893.98         8615.94 
      0.0867833         6956.92          7159.3         7072.24 
      0.0984825         5902.52          5664.9         5738.66 
       0.111151         5061.43         4729.56         4824.47 
       0.123864         4532.75         4261.93         4338.36 
       0.135742         4141.02          3832.3         3908.57 
        0.14762          3612.9         3276.65         3477.19 
       0.160083          3086.2         2731.16         2980.54 
       0.172465         2752.57          2383.7         2701.71 
       0.184281         2487.66         2197.43         2514.65 
       0.196406         2361.76         2029.28         2319.96 
       0.209011         2218.01          1805.5         2105.73 
       0.221538          1994.7         1577.81         1972.32 
       0.233611         1922.34         1411.71         1853.31 
       0.245665         1740.07         1302.94          1714.2 
       0.258103          1734.4         1212.91         1620.34 
       0.270422         1547.67         1114.51         1525.14 
       0.282519         1468.59         1011.47         1449.23 
       0.294636         1436.29         921.557         1375.39 
       0.306978         1319.89          852.59         1320.54 
       0.319417         1300.06         797.118         1245.94 
        0.33169         1220.63          744.02         1182.38 
       0.343948         1176.12         689.374         1147.39 
       0.356249         1119.39         638.127         1106.68 
       0.368458         1070.79         595.203         1060.99 
        0.38068         1059.36          559.31         1022.64 
       0.392856         1008.96         526.542         989.065 
       0.405069          954.67           494.5         955.982 
       0.417459         918.781         463.478         926.157 
       0.429752         920.534          435.63         894.335 
       0.441978         888.515         411.187         872.793 
       0.454294         851.839         388.992         838.604 
        0.46658         828.459         368.166         822.252 
       0.478753         814.992         348.519          798.65 
       0.490964         785.348         330.064         775.016 
       0.503334         753.292         313.032          759.11 
       0.515665         749.945           297.5         741.681 
       0.527909         718.347         283.162         727.738 
       0.540159         703.065         269.596         710.653 
        0.55248         688.597         256.724          692.87 
       0.564743         682.328         244.806          681.23 
        0.57686         662.606         233.852          663.98 
       0.589077         654.587         223.512         650.076 
       0.601441         636.483          213.68         638.129 
        0.61382         618.205         204.409         626.775 
       0.626067         613.043         195.758         616.004 
       0.638306          591.32         187.612         603.436 
       0.650632         585.981         179.894         590.407 
       0.662899         581.577         172.661         582.907 
       0.675076         565.407         165.883         575.777 
       0.687267         548.837          159.46         562.658 
       0.699615          549.43         153.297         553.767 
       0.711937         535.913         147.471          543.21 
       0.724148         519.899         141.997         536.579 
       0.736433         508.518         136.774         527.457 
       0.748747         502.427         131.806         518.473 
       0.761037          494.05         127.096         512.578 
       0.773197         485.363         122.666         503.718 
       0.785376         481.057         118.441         496.712 
       0.797761         467.016         114.351         490.132 
       0.810096         459.788         110.469         483.664 
       0.822371         449.936         106.787         476.048 
       0.834626         444.874         103.279         470.893 
       0.846916         439.838         99.9207         463.584 
       0.859215         432.935         96.7105         456.732 
       0.871383         424.252          93.674         450.895 
        0.88363         418.061         90.7505         446.396 
       0.895928         413.533         87.9412         439.642 
       0.908253         403.876         85.2462         432.316 
       0.920535         394.124         82.6738         428.175 
       0.932774         389.543          80.217         421.508 
        0.94508         383.885         77.8481          417.54 
       0.957324         378.349          75.587         411.996 
        0.96953         373.791         73.4229         407.004 
       0.981769         365.585         71.3386         402.467 
       0.994071         364.496         69.3256         397.697 
         1.0064         358.137         67.3872         391.956 
        1.01868         353.691          65.529         387.123 
        1.03092         343.974         63.7494         383.778 
         1.0432         340.718         62.0298         379.156 
        1.05553         337.624         60.3672         373.906 
        1.06777         332.505         58.7779         369.548 
           1.08         325.303         57.2476         365.514 
        1.09227         325.264         55.7672         361.191 
         1.1046         318.259         54.3337         357.944 
         1.1169         312.589         52.9534         353.275 
        1.12915         307.616         51.6281          349.47 
        1.14142         301.764         50.3455         345.521 
        1.15365         298.304         49.1105         341.922 
        1.16585         294.056         47.9203         338.164 
        1.17807         291.186         46.7683         334.255 
        1.19037          285.13         45.6467         331.407 
        1.20276         282.797         44.5544         327.149 
        1.21504         277.334         43.5067         323.456 
        1.22728         273.272         42.4971         320.335 
        1.23954         271.526         41.5172         316.701 
        1.25184         265.484         40.5664         313.437 
        1.26414         260.842         39.6451         310.484 
        1.27632         257.741         38.7608         307.554 
         1.2886         254.922         37.8973         304.162 
        1.30093         250.043         37.0572         300.197 
        1.31316         245.138         36.2487         297.607 
        1.32541         243.955         35.4642         294.178 
        1.33772         239.297         34.6987         291.652 
        1.35005         236.514         33.9553         288.341 
        1.36225         232.379         33.2413         285.661 
        1.37447         228.564         32.5465         282.327 
        1.38676          226.45         31.8685         280.298 
        1.39907         223.204         31.2087         276.833 
        1.41133         219.158         30.5705         273.906 
        1.42358         216.311         29.9508         271.356 
        1.43591         213.344          29.344         268.991 
        1.44818         209.385         28.7574         266.048 
        1.46037         207.759         28.1904         263.226 
        1.47263         204.098         27.6356         260.549 
        1.48494         202.673         27.0935         257.529 
        1.49724          198.63         26.5665         255.977 
        1.50952         195.652         26.0547          252.78 
        1.52178         192.743          25.557         250.583 
        1.53409         189.953         25.0704         248.104 
        1.54637         186.833         24.5975         246.069 
        1.55858         184.808         24.1395          243.53 
        1.57081         181.779         23.6926         241.004 
        1.58313         179.763         23.2541         238.587 
        1.59544         176.353         22.8271         236.478 
        1.60767          175.04         22.4135         234.402 
        1.61994         171.899         22.0088         231.943 
        1.63225         169.179         21.6132         229.607 
        1.64452         166.504         21.2284         227.583 
        1.65676         164.586         20.8543         225.681 
          1.669         162.668         20.4888         223.312 
        1.68133         159.474         20.1299          221.27 
        1.69363         156.897         19.7806         219.501 
        1.70585         154.618         19.4418         217.363 
        1.71809         152.578         19.1103         215.086 
        1.73038         150.292         18.7855         213.227 
        1.74268         149.062          18.468          211.16 
        1.75493         146.266         18.1594         209.478 
        1.76714         145.153         17.8586         207.603 
        1.77942         142.484         17.5631         205.777 
        1.79173          140.68         17.2735         203.713 
        1.80402         138.477          16.991         201.914 
         1.8163          136.32         16.7151         200.327 
         1.8286         134.267         16.4448          198.37 
         1.8409         132.523         16.1807         196.532 
        1.85315         130.243         15.9233         194.898 
        1.86537         128.779          15.672         193.226 
        1.87765         127.218         15.4252         191.565 
        1.88995         125.215         15.1831         189.745 
        1.90221         123.634         14.9471         188.264 
        1.91445         121.705         14.7165         186.512 
        1.92674         119.688           14.49         184.806 
        1.93902         118.365         14.2682         183.143 
        1.95124         116.672         14.0522         181.622 
         1.9635         114.919         13.8402         180.047 
        1.97583         113.264         13.6312         178.409 
        1.98812         111.595         13.4273         177.202 
        2.00039         110.442          13.228         175.471 
        2.01264          109.03          13.033         174.017 
        2.02492         107.153         12.8416         172.423 
        2.03717         105.806         12.6543         171.083 
        2.04942         104.437          12.471         169.575 
        2.06171         102.797         12.2908         168.037 
        2.07397         101.318         12.1145         166.799 
        2.08629         99.8788         11.9409         165.358 
        2.09857         98.7211         11.7711         164.036 
        2.11081         97.2303         11.6054         162.531 
        2.12309         95.9622         11.4424         161.253 
        2.13538         94.4979         11.2824         159.887 
        2.14763         93.0431         11.1259         158.559 
        2.15986         92.1884         10.9728         157.141 
        2.17214         90.8473         10.8219         156.003 
        2.18443         89.9032         10.6737          154.81 
        2.19671         88.7364         10.5285         153.453 
        2.20898         87.3671         10.3861         152.078 
        2.22126         86.2742         10.2463         150.963 
        2.23354         85.1229          10.109         149.806 
         2.2458         83.4389         9.97453         148.489 
        2.25807         82.9129         9.84237         147.322 
        2.27035         81.7185         9.71249         146.157 
        2.28263         80.6889         9.58502         145.039 
         2.2949         79.4231          9.4599         143.893 
        2.30718         78.1681         9.33698         142.706 
        2.31946         77.3296         9.21618         141.487 
        2.33169         76.2005         9.09804         140.432 
        2.34393         75.2912         8.98179         139.466 
        2.35622         74.2889          8.8672         138.244 
        2.36847         73.3268         8.75493         137.266 
        2.38076         72.1039         8.64427         136.124 
        2.39305         71.5107         8.53555         135.141 
        2.40534         70.3375          8.4287         134.022 
        2.41762         69.7573         8.32369         132.981 
        2.42989         68.5464         8.22062         131.987 
        2.44216         67.9321         8.11932         130.908 
         2.4544         67.1824         8.01996         129.977 
        2.46667         65.9826         7.92203          128.99 
        2.47897         65.5471          7.8255           127.9 
        2.49124         64.6442         7.73084         126.941 
        2.50349         63.5034          7.6379         126.018 
        2.51578         63.0682         7.54619         125.131 
        2.52805         62.0363         7.45616         124.126 
        2.54029         61.4801         7.36782         123.199 
        2.55257         60.7229         7.28065         122.322 
        2.56487         60.1863         7.19472         121.417 
        2.57716         59.4926          7.1103           120.5 
        2.58942         58.6681         7.02742         119.625 
        2.60167         57.9118         6.94595         118.773 
        2.61395         57.4236         6.86564         117.862 
        2.62624         56.6742          6.7865         116.942 
        2.63849         55.9905         6.70885         116.147 
        2.65073         55.2055          6.6325         115.259 
        2.66302         54.7322         6.55706         114.464 
         2.6753         53.9878         6.48285         113.642 
        2.68756         53.5589         6.40993         112.791 
        2.69983         53.0066         6.33809         111.978 
        2.71213         52.4299          6.2672         111.179 
        2.72441         51.8833         6.19752         110.362 
        2.73665         51.2742         6.12906         109.601 
         2.7489         50.8031         6.06168         108.835 
        2.76118         50.3366         5.99511          108.03 
        2.77349         49.8515         5.92937         107.284 
        2.78576         49.3411         5.86488         106.512 
        2.79802         48.9021         5.80139         105.814 
        2.81031         48.3817         5.73868          105.06 
        2.82259         47.8985         5.67693         104.271 
        2.83483          47.392         5.61632         103.588 
         2.8471         46.9021         5.55648         102.846 
         2.8594         46.4901         5.49733         102.131 
         2.8717         46.1327         5.43906         101.464 
        2.88396         45.6268         5.38185         100.763 
        2.89619         45.4091         5.32556         100.038 
        2.90847         44.9481         5.26987         99.3054 
        2.92072         44.5284         5.21507         98.6985 
        2.93299         44.2748         5.16103         98.0352 
        2.94526         43.9361          5.1077         97.3335 
        2.95753         43.6612         5.05513         96.6777 
        2.96982         43.1557         5.00322         96.0495 
        2.98209         42.8922         4.95215         95.3866 
        2.99436         42.7387         4.90174         94.7211 
        3.00666         42.4676         4.85195         94.0863 
        3.01894         42.1897         4.80295         93.4629 
        3.03119         41.9188          4.7547          92.869 
        3.04345         41.6708          4.7071         92.2661 
        3.05573         41.6368         4.66006         91.6435 
          3.068         41.2767         4.61372         91.0439 
        3.08026          41.034         4.56805         90.4412 
        3.09254         41.0912         4.52291         89.8528 
        3.10483         40.8344         4.47838         89.2665 
         3.1171         40.7152         4.43451         88.6718 
        3.12933         40.5772         4.39134         88.0858 
        3.14159         40.4602         4.34866           87.51 
