# k  (h/Mpc)    P(k)  (Mpc/h)^3    P_linear(k)  (Mpc/h)^3     P_NL(k)  ShotnoiseSubtracted = false
      0.0156606         23992.9         24138.5         23938.8 
      0.0273761         20504.6         20833.6         20585.8 
      0.0384619         15475.7         15680.7         15457.8 
      0.0498308           11929         12326.4         12101.2 
      0.0625568         10075.8         10471.3         10272.5 
      0.0751274         8985.72         8893.98         8615.94 
      0.0867833         6949.26          7159.3         7072.24 
      0.0984825         5893.23          5664.9         5738.66 
       0.111151         5051.85         4729.56         4824.47 
       0.123864         4522.53         4261.93         4338.36 
       0.135742         4130.97          3832.3         3908.57 
        0.14762         3603.03         3276.65         3477.19 
       0.160083         3075.81         2731.16         2980.54 
       0.172465         2742.81          2383.7         2701.71 
       0.184281         2478.02         2197.43         2514.65 
       0.196406         2351.47         2029.28         2319.96 
       0.209011         2206.94          1805.5         2105.73 
       0.221538         1984.04         1577.81         1972.32 
       0.233611          1911.3         1411.71         1853.31 
       0.245665         1729.61         1302.94          1714.2 
       0.258103         1723.03         1212.91         1620.34 
       0.270422         1536.43         1114.51         1525.14 
       0.282519         1457.43         1011.47         1449.23 
       0.294636         1424.89         921.557         1375.39 
       0.306978         1308.78          852.59         1320.54 
       0.319417         1288.24         797.118         1245.94 
        0.33169            1209          744.02         1182.38 
       0.343948         1164.39         689.374         1147.39 
       0.356249         1107.49         638.127         1106.68 
       0.368458         1058.95         595.203         1060.99 
        0.38068         1047.12          559.31         1022.64 
       0.392856         996.767         526.542         989.065 
       0.405069         942.672           494.5         955.982 
       0.417459          906.61         463.478         926.157 
       0.429752         907.743          435.63         894.335 
       0.441978         875.765         411.187         872.793 
       0.454294         838.958         388.992         838.604 
        0.46658         815.573         368.166         822.252 
       0.478753         801.875         348.519          798.65 
       0.490964         771.957         330.064         775.016 
       0.503334         740.157         313.032          759.11 
       0.515665         736.543           297.5         741.681 
       0.527909         705.118         283.162         727.738 
       0.540159         689.534         269.596         710.653 
        0.55248          674.95         256.724          692.87 
       0.564743         668.385         244.806          681.23 
        0.57686         648.703         233.852          663.98 
       0.589077         640.446         223.512         650.076 
       0.601441         622.358          213.68         638.129 
        0.61382         604.155         204.409         626.775 
       0.626067         598.527         195.758         616.004 
       0.638306         577.052         187.612         603.436 
       0.650632         571.554         179.894         590.407 
       0.662899         566.855         172.661         582.907 
       0.675076         550.679         165.883         575.777 
       0.687267         534.152          159.46         562.658 
       0.699615         534.297         153.297         553.767 
       0.711937          520.81         147.471          543.21 
       0.724148         504.935         141.997         536.579 
       0.736433          493.56         136.774         527.457 
       0.748747         487.266         131.806         518.473 
       0.761037         478.882         127.096         512.578 
       0.773197         470.143         122.666         503.718 
       0.785376          465.55         118.441         496.712 
       0.797761         451.658         114.351         490.132 
       0.810096         444.442         110.469         483.664 
       0.822371         434.553         106.787         476.048 
       0.834626         429.393         103.279         470.893 
       0.846916         424.294         99.9207         463.584 
       0.859215         417.361         96.7105         456.732 
       0.871383         408.701          93.674         450.895 
        0.88363         402.421         90.7505         446.396 
       0.895928         397.884         87.9412         439.642 
       0.908253         388.358         85.2462         432.316 
       0.920535         378.618         82.6738         428.175 
       0.932774         373.967          80.217         421.508 
        0.94508           368.3         77.8481          417.54 
       0.957324         362.759          75.587         411.996 
        0.96953         358.175         73.4229         407.004 
       0.981769         350.025         71.3386         402.467 
       0.994071         348.762         69.3256         397.697 
         1.0064          342.43         67.3872         391.956 
        1.01868          337.98          65.529         387.123 
        1.03092         328.388         63.7494         383.778 
         1.0432         325.063         62.0298         379.156 
        1.05553         321.898         60.3672         373.906 
        1.06777         316.713         58.7779         369.548 
           1.08         309.713         57.2476         365.514 
        1.09227         309.415         55.7672         361.191 
         1.1046         302.519         54.3337         357.944 
         1.1169         296.888         52.9534         353.275 
        1.12915         292.035         51.6281          349.47 
        1.14142         286.253         50.3455         345.521 
        1.15365         282.706         49.1105         341.922 
        1.16585         278.465         47.9203         338.164 
        1.17807         275.562         46.7683         334.255 
        1.19037         269.649         45.6467         331.407 
        1.20276         267.176         44.5544         327.149 
        1.21504         261.858         43.5067         323.456 
        1.22728          257.81         42.4971         320.335 
        1.23954         256.027         41.5172         316.701 
        1.25184         250.189         40.5664         313.437 
        1.26414         245.577         39.6451         310.484 
        1.27632          242.53         38.7608         307.554 
         1.2886         239.743         37.8973         304.162 
        1.30093         234.973         37.0572         300.197 
        1.31316         230.174         36.2487         297.607 
        1.32541         228.868         35.4642         294.178 
        1.33772         224.422         34.6987         291.652 
        1.35005         221.596         33.9553         288.341 
        1.36225         217.544         33.2413         285.661 
        1.37447          213.88         32.5465         282.327 
        1.38676         211.756         31.8685         280.298 
        1.39907         208.572         31.2087         276.833 
        1.41133         204.631         30.5705         273.906 
        1.42358         201.877         29.9508         271.356 
        1.43591         198.955          29.344         268.991 
        1.44818         195.133         28.7574         266.048 
        1.46037         193.484         28.1904         263.226 
        1.47263         189.924         27.6356         260.549 
        1.48494         188.456         27.0935         257.529 
        1.49724         184.615         26.5665         255.977 
        1.50952         181.739         26.0547          252.78 
        1.52178          178.93          25.557         250.583 
        1.53409         176.181         25.0704         248.104 
        1.54637          173.19         24.5975         246.069 
        1.55858         171.251         24.1395          243.53 
        1.57081         168.258         23.6926         241.004 
        1.58313         166.277         23.2541         238.587 
        1.59544          163.06         22.8271         236.478 
        1.60767         161.658         22.4135         234.402 
        1.61994          158.73         22.0088         231.943 
        1.63225         156.121         21.6132         229.607 
        1.64452         153.572         21.2284         227.583 
        1.65676         151.714         20.8543         225.681 
          1.669         149.851         20.4888         223.312 
        1.68133         146.786         20.1299          221.27 
        1.69363         144.362         19.7806         219.501 
        1.70585         142.152         19.4418         217.363 
        1.71809         140.183         19.1103         215.086 
        1.73038          138.02         18.7855         213.227 
        1.74268         136.805          18.468          211.16 
        1.75493         134.182         18.1594         209.478 
        1.76714         133.062         17.8586         207.603 
        1.77942         130.474         17.5631         205.777 
        1.79173         128.785         17.2735         203.713 
        1.80402         126.708          16.991         201.914 
         1.8163         124.639         16.7151         200.327 
         1.8286         122.707         16.4448          198.37 
         1.8409         121.051         16.1807         196.532 
        1.85315         118.879         15.9233         194.898 
        1.86537         117.493          15.672         193.226 
        1.87765         116.001         15.4252         191.565 
        1.88995         114.094         15.1831         189.745 
        1.90221         112.588         14.9471         188.264 
        1.91445         110.792         14.7165         186.512 
        1.92674         108.875           14.49         184.806 
        1.93902         107.653         14.2682         183.143 
        1.95124         106.031         14.0522         181.622 
         1.9635         104.388         13.8402         180.047 
        1.97583         102.826         13.6312         178.409 
        1.98812         101.258         13.4273         177.202 
        2.00039         100.156          13.228         175.471 
        2.01264         98.8561          13.033         174.017 
        2.02492          97.108         12.8416         172.423 
        2.03717         95.8182         12.6543         171.083 
        2.04942         94.5289          12.471         169.575 
        2.06171          92.995         12.2908         168.037 
        2.07397         91.6411         12.1145         166.799 
        2.08629          90.277         11.9409         165.358 
        2.09857          89.192         11.7711         164.036 
        2.11081         87.8054         11.6054         162.531 
        2.12309         86.6213         11.4424         161.253 
        2.13538         85.2303         11.2824         159.887 
        2.14763         83.9207         11.1259         158.559 
        2.15986         83.0901         10.9728         157.141 
        2.17214         81.8446         10.8219         156.003 
        2.18443         80.9555         10.6737          154.81 
        2.19671         79.8985         10.5285         153.453 
        2.20898         78.6237         10.3861         152.078 
        2.22126         77.5963         10.2463         150.963 
        2.23354         76.5284          10.109         149.806 
         2.2458         75.0056         9.97453         148.489 
        2.25807         74.4701         9.84237         147.322 
        2.27035         73.3932         9.71249         146.157 
        2.28263         72.4293         9.58502         145.039 
         2.2949         71.2267          9.4599         143.893 
        2.30718         70.1079         9.33698         142.706 
        2.31946         69.3182         9.21618         141.487 
        2.33169         68.2806         9.09804         140.432 
        2.34393         67.4675         8.98179         139.466 
        2.35622         66.5338          8.8672         138.244 
        2.36847          65.632         8.75493         137.266 
        2.38076         64.5198         8.64427         136.124 
        2.39305         63.9623         8.53555         135.141 
        2.40534         62.9034          8.4287         134.022 
        2.41762         62.3435         8.32369         132.981 
        2.42989         61.2438         8.22062         131.987 
        2.44216          60.715         8.11932         130.908 
         2.4544         59.9766         8.01996         129.977 
        2.46667          58.893         7.92203          128.99 
        2.47897         58.4977          7.8255           127.9 
        2.49124         57.6675         7.73084         126.941 
        2.50349         56.6393          7.6379         126.018 
        2.51578         56.2223         7.54619         125.131 
        2.52805         55.2694         7.45616         124.126 
        2.54029         54.7659         7.36782         123.199 
        2.55257         54.0782         7.28065         122.322 
        2.56487         53.5789         7.19472         121.417 
        2.57716         52.9486          7.1103           120.5 
        2.58942         52.2081         7.02742         119.625 
        2.60167         51.5239         6.94595         118.773 
        2.61395         51.0904         6.86564         117.862 
        2.62624         50.3857          6.7865         116.942 
        2.63849          49.764         6.70885         116.147 
        2.65073         49.0742          6.6325         115.259 
        2.66302         48.6399         6.55706         114.464 
         2.6753          47.954         6.48285         113.642 
        2.68756         47.5901         6.40993         112.791 
        2.69983         47.0666         6.33809         111.978 
        2.71213         46.5532          6.2672         111.179 
        2.72441         46.0617         6.19752         110.362 
        2.73665         45.5118         6.12906         109.601 
         2.7489         45.0769         6.06168         108.835 
        2.76118          44.653         5.99511          108.03 
        2.77349         44.2003         5.92937         107.284 
        2.78576         43.7353         5.86488         106.512 
        2.79802           43.36         5.80139         105.814 
        2.81031         42.8896         5.73868          105.06 
        2.82259         42.4434         5.67693         104.271 
        2.83483         41.9921         5.61632         103.588 
         2.8471         41.5279         5.55648         102.846 
         2.8594         41.1672         5.49733         102.131 
         2.8717         40.8529         5.43906         101.464 
        2.88396         40.4013         5.38185         100.763 
        2.89619         40.1819         5.32556         100.038 
        2.90847         39.7792         5.26987         99.3054 
        2.92072         39.4166         5.21507         98.6985 
        2.93299         39.1717         5.16103         98.0352 
        2.94526         38.8599          5.1077         97.3335 
        2.95753         38.6158         5.05513         96.6777 
        2.96982          38.168         5.00322         96.0495 
        2.98209          37.933         4.95215         95.3866 
        2.99436         37.7949         4.90174         94.7211 
        3.00666         37.5592         4.85195         94.0863 
        3.01894          37.297         4.80295         93.4629 
        3.03119         37.0553          4.7547          92.869 
        3.04345         36.8161          4.7071         92.2661 
        3.05573         36.7925         4.66006         91.6435 
          3.068          36.473         4.61372         91.0439 
        3.08026         36.2654         4.56805         90.4412 
        3.09254         36.2938         4.52291         89.8528 
        3.10483         36.0775         4.47838         89.2665 
         3.1171         35.9717         4.43451         88.6718 
        3.12933         35.8212         4.39134         88.0858 
        3.14159          35.732         4.34866           87.51 
