# k  (h/Mpc)    P(k)  (Mpc/h)^3    P_linear(k)  (Mpc/h)^3     P_NL(k)  ShotnoiseSubtracted = false
      0.0156606         1152.36         1176.61         1171.11 
      0.0273761         1002.42         1017.28         1015.07 
      0.0384619         761.144         766.404         766.166 
      0.0498308         598.088         602.834         603.057 
      0.0625568          504.65         512.341         511.986 
      0.0751274         433.598         435.293         434.392 
      0.0867833         345.969         350.462         350.383 
      0.0984825         278.265         277.347         277.994 
       0.111151         232.606         231.581         232.178 
       0.123864         208.854         208.701         209.035 
       0.135742         187.407         187.675         187.956 
        0.14762         159.259         160.472         161.293 
       0.160083         132.451         133.763         134.757 
       0.172465         116.158         116.749          117.92 
       0.184281         107.553         107.629         108.842 
       0.196406         98.3046         99.3954         100.288 
       0.209011         88.1042         88.4364         89.4812 
       0.221538         77.7521         77.2851         78.7781 
       0.233611         69.7194         69.1502         70.8051 
       0.245665         65.1672          63.823         65.2818 
       0.258103         58.9572         59.4138         60.8577 
       0.270422         55.1482         54.5944         55.9807 
       0.282519         50.0183         49.5474         51.0548 
       0.294636         46.7999         45.1432         46.7334 
       0.306978         41.8401         41.7651         43.4011 
       0.319417         39.7087         39.0479         40.6337 
        0.33169         36.9167         36.4471         37.9754 
       0.343948         34.7326         33.7703          35.298 
       0.356249         31.7819           31.26           32.99 
       0.368458          30.069         29.1574         30.7052 
        0.38068         28.0583         27.3993         28.9386 
       0.392856         26.3529         25.7941         27.3482 
       0.405069         24.8847         24.2245         25.7023 
       0.417459         23.0181         22.7049         24.2408 
       0.429752         21.9338         21.3407         22.8595 
       0.441978         20.8295         20.1434         21.7411 
       0.454294         19.4501         19.0561         20.5669 
        0.46658         18.9476         18.0359         19.5199 
       0.478753         17.7045         17.0735         18.5534 
       0.490964         17.0035         16.1694         17.7164 
       0.503334         16.2144         15.3351         16.7995 
       0.515665         15.2715         14.5742         16.1099 
       0.527909         14.6339         13.8718         15.2887 
       0.540159         13.8938         13.2072         14.6081 
        0.55248         13.0373         12.5766         13.9302 
       0.564743         12.7876         11.9928         13.4168 
        0.57686         12.2495         11.4562         12.8374 
       0.589077         11.5117         10.9497         12.3643 
       0.601441         11.0468          10.468         11.8565 
        0.61382         10.6099         10.0138         11.3534 
       0.626067         10.1504         9.59006         10.9239 
       0.638306         9.78056           9.191         10.4949 
       0.650632         9.50311         8.81289         10.1303 
       0.662899         9.05052         8.45857         9.73708 
       0.675076         8.60408         8.12652         9.39231 
       0.687267         8.35108         7.81187         9.03251 
       0.699615         8.10297         7.50995         8.72149 
       0.711937         7.68826         7.22453         8.44455 
       0.724148          7.5668         6.95637         8.16036 
       0.736433         7.16176         6.70049         7.86603 
       0.748747         6.95152         6.45711         7.64088 
       0.761037         6.75281          6.2264         7.38712 
       0.773197         6.45569         6.00935         7.17519 
       0.785376         6.23682          5.8024         6.94284 
       0.797761          6.0389           5.602         6.71303 
       0.810096         5.87648         5.41185         6.54505 
       0.822371         5.72438         5.23146          6.3251 
       0.834626         5.52613         5.05962         6.14069 
       0.846916         5.32569         4.89509           5.979 
       0.859215         5.11742         4.73782         5.81759 
       0.871383         4.97449         4.58907          5.6559 
        0.88363         4.84263         4.44585         5.49745 
       0.895928         4.73239         4.30822         5.34048 
       0.908253         4.58566          4.1762         5.20076 
       0.920535         4.42971         4.05018          5.0546 
       0.932774         4.31966         3.92982         4.90673 
        0.94508          4.1898         3.81377          4.7951 
       0.957324         4.08232         3.70299         4.68757 
        0.96953          3.9413         3.59698         4.56632 
       0.981769         3.83163         3.49487         4.43823 
       0.994071         3.75863         3.39625         4.34511 
         1.0064         3.63236         3.30129         4.23733 
        1.01868         3.52089         3.21026         4.13312 
        1.03092         3.46443         3.12308         4.02809 
         1.0432         3.33929         3.03884         3.93864 
        1.05553         3.26722         2.95739         3.85544 
        1.06777         3.16246         2.87953         3.77195 
           1.08         3.10772         2.80456         3.68003 
        1.09227         3.01042         2.73203          3.5948 
         1.1046         2.94106         2.66181         3.51959 
         1.1169         2.85411         2.59419         3.44285 
        1.12915         2.80667         2.52926         3.37381 
        1.14142         2.72525         2.46643         3.29486 
        1.15365         2.66591         2.40592         3.23218 
        1.16585         2.61101         2.34762         3.16516 
        1.17807         2.56139         2.29118         3.09763 
        1.19037         2.46637         2.23624         3.03196 
        1.20276         2.41452         2.18273         2.96577 
        1.21504         2.36644          2.1314          2.9187 
        1.22728         2.31159         2.08193         2.85083 
        1.23954         2.26813         2.03393         2.80904 
        1.25184         2.21445         1.98735         2.74426 
        1.26414         2.16896         1.94222         2.68815 
        1.27632         2.10377          1.8989         2.64699 
         1.2886         2.07602         1.85659         2.59112 
        1.30093         2.01283         1.81544         2.55009 
        1.31316         1.95674         1.77583         2.49916 
        1.32541         1.93324          1.7374         2.45836 
        1.33772         1.90049         1.69989         2.41253 
        1.35005         1.85932         1.66347         2.37104 
        1.36225         1.81791          1.6285          2.3253 
        1.37447         1.77986         1.59446         2.29092 
        1.38676         1.74173         1.56124         2.24488 
        1.39907         1.69916         1.52892         2.21236 
        1.41133         1.66644         1.49765         2.17441 
        1.42358          1.6466         1.46729         2.13128 
        1.43591         1.61172         1.43757         2.10818 
        1.44818         1.57604         1.40883         2.07068 
        1.46037         1.53946         1.38105         2.03234 
        1.47263         1.50895         1.35387         2.00311 
        1.48494         1.48434         1.32732          1.9707 
        1.49724         1.45158          1.3015         1.93852 
        1.50952         1.43459         1.27642          1.9059 
        1.52178         1.39777         1.25204          1.8802 
        1.53409         1.37294          1.2282         1.84699 
        1.54637         1.34123         1.20504         1.81744 
        1.55858         1.32359          1.1826         1.78975 
        1.57081         1.30251          1.1607         1.76284 
        1.58313         1.27339         1.13922         1.74052 
        1.59544         1.25308          1.1183         1.71291 
        1.60767         1.23274         1.09804         1.68775 
        1.61994         1.20642         1.07821          1.6645 
        1.63225         1.18984         1.05883         1.64134 
        1.64452         1.16796         1.03999         1.61559 
        1.65676         1.14337         1.02165         1.59366 
          1.669         1.12638         1.00375         1.56893 
        1.68133         1.10378        0.986168         1.55082 
        1.69363          1.0926        0.969056         1.52764 
        1.70585         1.07132        0.952459         1.50733 
        1.71809         1.05603        0.936219         1.48588 
        1.73038         1.03349        0.920306         1.46607 
        1.74268         1.01382        0.904753         1.44552 
        1.75493         1.00534        0.889632         1.42865 
        1.76714        0.984571        0.874896         1.40683 
        1.77942        0.964367        0.860419         1.38903 
        1.79173        0.953328        0.846232         1.37066 
        1.80402          0.9376        0.832395         1.35296 
         1.8163        0.922448        0.818876         1.33426 
         1.8286        0.901865        0.805634         1.32159 
         1.8409        0.897739        0.792696         1.30355 
        1.85315        0.883829        0.780086         1.28513 
        1.86537        0.863046        0.767776         1.27095 
        1.87765         0.85242        0.755685         1.25434 
        1.88995        0.840643        0.743827         1.23954 
        1.90221        0.825809        0.732264         1.22364 
        1.91445         0.81353        0.720966         1.21012 
        1.92674        0.800833        0.709868          1.1948 
        1.93902        0.785931        0.699003         1.17953 
        1.95124        0.776012        0.688424         1.16568 
         1.9635         0.76478        0.678036         1.15149 
        1.97583        0.751783        0.667798         1.13708 
        1.98812        0.740265         0.65781          1.1263 
        2.00039        0.729345        0.648046         1.11195 
        2.01264        0.719522        0.638489         1.09976 
        2.02492        0.710677        0.629112         1.08848 
        2.03717        0.702949        0.619939         1.07576 
        2.04942        0.689388         0.61096         1.06219 
        2.06171        0.680483        0.602129         1.05046 
        2.07397        0.670385        0.593492         1.03997 
        2.08629         0.66265        0.584989          1.0285 
        2.09857        0.651621        0.576672         1.01737 
        2.11081        0.641389        0.568552         1.00548 
        2.12309        0.633279        0.560568        0.995606 
        2.13538        0.626418        0.552727        0.983771 
        2.14763        0.618497        0.545061         0.97392 
        2.15986        0.610219        0.537559        0.964822 
        2.17214        0.598444        0.530168        0.952592 
        2.18443        0.593008        0.522909        0.943613 
        2.19671        0.585765        0.515794         0.93406 
        2.20898        0.577051         0.50882         0.92406 
        2.22126        0.567902        0.501968        0.914762 
        2.23354        0.560349        0.495245        0.905835 
         2.2458        0.555397        0.488656        0.895575 
        2.25807        0.546695        0.482181        0.886985 
        2.27035        0.541101        0.475819         0.87798 
        2.28263        0.532318        0.469574        0.869887 
         2.2949        0.526533        0.463444        0.860852 
        2.30718        0.520624        0.457422        0.852855 
        2.31946        0.513666        0.451504        0.844791 
        2.33169         0.50608        0.445716        0.836305 
        2.34393        0.501832        0.440021        0.828112 
        2.35622        0.494842        0.434408        0.819788 
        2.36847        0.489763        0.428907         0.81225 
        2.38076        0.482647        0.423486        0.804535 
        2.39305         0.47762         0.41816        0.797302 
        2.40534        0.470935        0.412925        0.789762 
        2.41762        0.465961        0.407781        0.781612 
        2.42989        0.459192        0.402732        0.774733 
        2.44216        0.455744        0.397769        0.768224 
         2.4544        0.451814        0.392901        0.761015 
        2.46667        0.445819        0.388103        0.753664 
        2.47897        0.440615        0.383374        0.747289 
        2.49124        0.434566        0.378737        0.740135 
        2.50349        0.430259        0.374184        0.733189 
        2.51578        0.425373        0.369691         0.72669 
        2.52805        0.422017        0.365281        0.720555 
        2.54029        0.416687        0.360953        0.714045 
        2.55257        0.412152        0.356682        0.708399 
        2.56487        0.408436        0.352473        0.701987 
        2.57716        0.404159        0.348337        0.695589 
        2.58942        0.400857        0.344277        0.690092 
        2.60167        0.396626        0.340285        0.683512 
        2.61395        0.391512        0.336351        0.677892 
        2.62624        0.387859        0.332474        0.672762 
        2.63849        0.384175         0.32867        0.666803 
        2.65073         0.38068        0.324929        0.661029 
        2.66302        0.377211        0.321234        0.655378 
         2.6753        0.373669        0.317598        0.650047 
        2.68756        0.370681        0.314026        0.644869 
        2.69983         0.36629        0.310506        0.639423 
        2.71213        0.361696        0.307033        0.634265 
        2.72441        0.360203        0.303619        0.629217 
        2.73665        0.357086        0.300266        0.624495 
         2.7489        0.355052        0.296965        0.619487 
        2.76118        0.351104        0.293703        0.614164 
        2.77349        0.348908        0.290483         0.60964 
        2.78576        0.346188        0.287324        0.604349 
        2.79802        0.343369        0.284213        0.599308 
        2.81031        0.340467        0.281141        0.595337 
        2.82259        0.338593        0.278116        0.590083 
        2.83483        0.335655        0.275146        0.585549 
         2.8471         0.33355        0.272215        0.581219 
         2.8594        0.331865        0.269317        0.577048 
         2.8717        0.328793        0.266462        0.572651 
        2.88396          0.3267         0.26366        0.568093 
        2.89619        0.325124        0.260902        0.564065 
        2.90847        0.323006        0.258174         0.56001 
        2.92072        0.321478        0.255489        0.555427 
        2.93299        0.319043        0.252841         0.55111 
        2.94526        0.317484        0.250229        0.547187 
        2.95753        0.316709        0.247654        0.543263 
        2.96982         0.31456        0.245111        0.539121 
        2.98209        0.313914        0.242609        0.535055 
        2.99436        0.311106        0.240139        0.531297 
        3.00666        0.310962          0.2377        0.527725 
        3.01894        0.310381        0.235299        0.523821 
        3.03119        0.309164        0.232935        0.519834 
        3.04345        0.307742        0.230604        0.516273 
        3.05573        0.307731        0.228299        0.512946 
          3.068        0.305361        0.226029        0.509233 
        3.08026        0.305706        0.223791        0.505187 
        3.09254        0.304777         0.22158        0.501617 
        3.10483        0.304154        0.219398        0.498423 
         3.1171        0.304665        0.217249        0.495116 
        3.12933        0.304091        0.215134        0.491687 
        3.14159        0.303158        0.213043        0.488264 
