# k  (h/Mpc)    Pcb(k)  (Mpc/h)^3    Pcb_linear(k) (Mpc/h)^3    Pcb_NL(k) (Mpc/h)^3   ShotnoiseSubtracted = false
      0.0156606          7654.3         7669.62         7626.14 
      0.0273761         6618.84         6633.98         6601.89 
      0.0384619         5026.83         4998.91         4977.68 
      0.0498308         3919.04         3932.39         3913.53 
      0.0625568         3307.26         3342.28         3323.41 
      0.0751274          2898.3         2839.74         2811.07 
      0.0867833         2275.62         2286.36         2279.91 
      0.0984825         1872.83         1809.39         1822.55 
       0.111151          1578.8         1510.83         1524.45 
       0.123864         1418.19         1361.58         1373.02 
       0.135742         1279.58         1224.41         1236.18 
        0.14762          1094.6         1046.93         1075.65 
       0.160083         910.223         872.682         905.661 
       0.172465         808.714         761.687         802.406 
       0.184281         747.401         702.187         745.003 
       0.196406         683.846         648.469         683.082 
       0.209011         624.634         576.973         614.739 
       0.221538         561.047         504.221         556.981 
       0.233611         515.183         451.147         510.251 
       0.245665         481.047         416.392         469.372 
       0.258103         444.076         387.626         440.344 
       0.270422         410.695         356.183         408.419 
       0.282519         375.164         323.257         378.134 
       0.294636         368.613         294.523         352.338 
       0.306978         326.175         272.483         332.585 
       0.319417         312.804         254.756          312.47 
        0.33169         292.822         237.788         293.496 
       0.343948         279.448         220.324         278.773 
       0.356249         260.037         203.947         265.195 
       0.368458         251.011         190.229         248.997 
        0.38068          238.44         178.757         236.814 
       0.392856         222.608         168.285         226.396 
       0.405069         212.941         158.045         216.692 
       0.417459         202.809         148.131         205.041 
       0.429752         195.195          139.23         196.632 
       0.441978         187.947         131.419         189.867 
       0.454294         175.093         124.325         180.405 
        0.46658         175.294          117.67         174.291 
       0.478753         165.004         111.391         167.781 
       0.490964         159.928         105.493          161.38 
       0.503334          151.97         100.049         155.924 
       0.515665         148.121         95.0849         151.834 
       0.527909         143.485         90.5023          145.21 
       0.540159         138.676         86.1668         140.917 
        0.55248         134.161         82.0529         136.053 
       0.564743         130.334         78.2436         132.437 
        0.57686         126.206         74.7426          128.06 
       0.589077         120.563         71.4378         124.917 
       0.601441         117.921         68.2953          121.52 
        0.61382          115.89         65.3324         117.765 
       0.626067          111.37         62.5675         114.733 
       0.638306         107.492         59.9639         111.859 
       0.650632          103.68         57.4971         107.924 
       0.662899         103.354         55.1854         105.449 
       0.675076         99.6263          53.019         102.868 
       0.687267          97.424         50.9662         100.371 
       0.699615         94.4352         48.9964         98.3167 
       0.711937         91.5733         47.1343         95.5055 
       0.724148         90.7436         45.3848         94.1583 
       0.736433         87.0567         43.7154         91.6004 
       0.748747         85.4523         42.1275         89.5665 
       0.761037         83.5417         40.6223         87.4385 
       0.773197         81.7212         39.2062         86.3486 
       0.785376         79.7588         37.8561         84.1323 
       0.797761         78.9776         36.5486         82.8043 
       0.810096         76.2304          35.308         80.9132 
       0.822371         74.7909         34.1311         79.3209 
       0.834626         73.0658           33.01         77.9873 
       0.846916         71.9667         31.9366         76.5656 
       0.859215          70.375         30.9106         74.9917 
       0.871383         69.4333           29.94         73.7284 
        0.88363         67.5215         29.0056         72.6829 
       0.895928         66.1279         28.1077         71.3786 
       0.908253         64.5298         27.2464         70.1588 
       0.920535          64.179         26.4242         69.0258 
       0.932774         62.8686         25.6389          67.837 
        0.94508         61.9893         24.8818         66.6075 
       0.957324         60.4214         24.1591         65.7301 
        0.96953         60.3646         23.4674         64.5383 
       0.981769          58.362         22.8013         63.7686 
       0.994071         57.6857         22.1579         62.8163 
         1.0064         56.4282         21.5383         61.8403 
        1.01868         55.5758         20.9444         61.0007 
        1.03092         54.7061         20.3756         60.0874 
         1.0432         53.7724          19.826         59.1128 
        1.05553         52.4429         19.2946         58.6435 
        1.06777         51.9671         18.7866         57.7199 
           1.08         50.7522         18.2975         56.8842 
        1.09227          50.147         17.8243         56.0945 
         1.1046         49.4013         17.3662         55.3322 
         1.1169         48.8307          16.925         54.5393 
        1.12915         48.0012         16.5014          53.947 
        1.14142         47.0821         16.0915         53.2656 
        1.15365          46.384         15.6967         52.6486 
        1.16585         45.6824         15.3163         51.8942 
        1.17807         44.9473         14.9481         51.2237 
        1.19037         44.8157         14.5897         50.7656 
        1.20276         44.0211         14.2405         50.1332 
        1.21504         43.4345         13.9057          49.574 
        1.22728          42.596          13.583         48.9843 
        1.23954         42.1201         13.2698         48.3026 
        1.25184         41.4083         12.9659         47.8631 
        1.26414         40.8212         12.6714         47.2434 
        1.27632         40.4916         12.3888         46.7602 
         1.2886          40.064         12.1128         46.2541 
        1.30093         39.3763         11.8443         45.6584 
        1.31316         38.7758         11.5859         45.2841 
        1.32541         38.5159         11.3351           44.77 
        1.33772         37.7738         11.0904         44.2998 
        1.35005         37.3479         10.8528         43.8649 
        1.36225         36.7426         10.6246         43.4394 
        1.37447         35.8815         10.4026         42.9499 
        1.38676         36.0083         10.1859         42.5726 
        1.39907         35.4282         9.97498         42.1815 
        1.41133         34.6994         9.77099          41.737 
        1.42358         34.3478         9.57292         41.3014 
        1.43591         33.9463         9.37898         40.9475 
        1.44818            33.6          9.1915         40.4753 
        1.46037         33.1634         9.01027         40.1076 
        1.47263         32.9262         8.83293         39.7886 
        1.48494         32.2819         8.65969         39.3678 
        1.49724         32.1906         8.49125         39.0027 
        1.50952         31.6994         8.32764         38.6886 
        1.52178         31.2271         8.16859         38.3151 
        1.53409         30.9757         8.01306         37.9781 
        1.54637         30.5632         7.86191         37.5942 
        1.55858         29.8654         7.71552         37.2732 
        1.57081         29.9556         7.57266         36.9841 
        1.58313         29.5829         7.43254         36.6314 
        1.59544         29.0307         7.29604         36.3272 
        1.60767         28.7019         7.16385         35.9673 
        1.61994         28.3573         7.03448         35.6881 
        1.63225         28.2164         6.90805          35.422 
        1.64452         27.7927         6.78508         35.1242 
        1.65676            27.5         6.66548         34.8055 
          1.669         27.2319         6.54869         34.5554 
        1.68133         26.8892         6.43396         34.2403 
        1.69363          26.506         6.32232         33.9067 
        1.70585         26.2987         6.21404         33.7284 
        1.71809         25.8696         6.10808         33.3763 
        1.73038         25.7377         6.00426         33.1676 
        1.74268         25.4106         5.90279         32.8341 
        1.75493          25.093         5.80414         32.6056 
        1.76714         24.9528           5.708         32.3674 
        1.77942         24.6724         5.61354         32.0955 
        1.79173          24.231         5.52099         31.8438 
        1.80402         23.9895         5.43071         31.6766 
         1.8163         23.8862         5.34251         31.3018 
         1.8286         23.4626         5.25612         31.1218 
         1.8409         23.2624         5.17171         30.8884 
        1.85315         23.0297         5.08944         30.6712 
        1.86537         22.7201         5.00912         30.4385 
        1.87765          22.592         4.93024         30.2011 
        1.88995         22.2805         4.85287         29.9354 
        1.90221          22.059         4.77744         29.7223 
        1.91445         21.7824         4.70373         29.5063 
        1.92674         21.5906         4.63132          29.287 
        1.93902         21.3361         4.56044         29.1007 
        1.95124         21.0167         4.49141         28.9369 
         1.9635          20.897         4.42364         28.6762 
        1.97583         20.6789         4.35685         28.4744 
        1.98812         20.5071         4.29168         28.2889 
        2.00039         20.2829         4.22798         28.0776 
        2.01264         20.0468         4.16563         27.8957 
        2.02492         19.8895         4.10445         27.6614 
        2.03717         19.5841          4.0446         27.4826 
        2.04942         19.4304         3.98602         27.2753 
        2.06171         19.2913         3.92841         27.0969 
        2.07397         19.0947         3.87206         26.8853 
        2.08629         18.9105         3.81658         26.6941 
        2.09857         18.7238         3.76232         26.5281 
        2.11081         18.4858         3.70934          26.343 
        2.12309         18.3594         3.65726          26.159 
        2.13538          18.126          3.6061         25.9848 
        2.14763         17.9541         3.55609         25.8114 
        2.15986         17.8293         3.50714         25.6447 
        2.17214         17.6243         3.45892         25.4759 
        2.18443         17.4546         3.41156          25.286 
        2.19671         17.2709         3.36514         25.1073 
        2.20898         17.1066         3.31964         24.9423 
        2.22126         16.9789         3.27494         24.7896 
        2.23354         16.8861         3.23107         24.6222 
         2.2458         16.6749         3.18809         24.4855 
        2.25807         16.4623         3.14584         24.2779 
        2.27035         16.3324         3.10433         24.1368 
        2.28263         16.1683         3.06359         23.9799 
         2.2949         16.0778          3.0236          23.836 
        2.30718         15.9289         2.98431         23.6856 
        2.31946         15.8056          2.9457         23.5185 
        2.33169         15.6343         2.90794         23.3669 
        2.34393         15.4907         2.87078         23.2369 
        2.35622         15.2897         2.83416         23.0808 
        2.36847         15.1788         2.79827         22.9225 
        2.38076         15.0177          2.7629         22.7935 
        2.39305         14.9196         2.72816         22.6448 
        2.40534         14.7619           2.694         22.4742 
        2.41762           14.62         2.66044         22.3697 
        2.42989         14.5037          2.6275         22.2056 
        2.44216         14.3659         2.59512          22.071 
         2.4544         14.3487         2.56336         21.9198 
        2.46667         14.1565         2.53206         21.7974 
        2.47897         13.9817         2.50121          21.651 
        2.49124          13.928         2.47095         21.5185 
        2.50349         13.7619         2.44125         21.3746 
        2.51578         13.6653         2.41194         21.2717 
        2.52805         13.5584         2.38316         21.1317 
        2.54029         13.4687         2.35492         21.0014 
        2.55257         13.3723         2.32706         20.8695 
        2.56487         13.1917          2.2996         20.7455 
        2.57716         13.1151         2.27261         20.6011 
        2.58942         13.0412         2.24612         20.5001 
        2.60167         12.8756         2.22008         20.3746 
        2.61395         12.8671         2.19442         20.2487 
        2.62624         12.7599         2.16912         20.1241 
        2.63849         12.6242          2.1443         20.0215 
        2.65073         12.5273          2.1199         19.8878 
        2.66302         12.4548         2.09579         19.7796 
         2.6753         12.3965         2.07207         19.6525 
        2.68756         12.2906         2.04876         19.5452 
        2.69983         12.1909          2.0258         19.4225 
        2.71213         12.0894         2.00314         19.2944 
        2.72441         12.0493         1.98087         19.1921 
        2.73665         11.9669         1.95899         19.0794 
         2.7489         11.9118         1.93745         18.9604 
        2.76118         11.7827         1.91617         18.8563 
        2.77349          11.721         1.89516         18.7456 
        2.78576         11.6236         1.87455         18.6441 
        2.79802         11.5904         1.85426          18.528 
        2.81031         11.5141         1.83421         18.4171 
        2.82259         11.4593         1.81448         18.3179 
        2.83483         11.3998          1.7951         18.2151 
         2.8471          11.336         1.77598         18.1038 
         2.8594         11.2939         1.75707         17.9938 
         2.8717         11.2319         1.73845         17.8969 
        2.88396         11.1576         1.72016         17.7941 
        2.89619         11.1248         1.70217         17.6901 
        2.90847         11.0781         1.68437         17.5981 
        2.92072         11.0377         1.66686         17.4819 
        2.93299         10.9491         1.64958         17.3927 
        2.94526         10.9352         1.63254         17.3011 
        2.95753         10.8866         1.61574         17.1967 
        2.96982         10.8411         1.59915         17.0987 
        2.98209         10.8361         1.58282         17.0033 
        2.99436         10.8082         1.56671         16.9021 
        3.00666         10.7787          1.5508         16.8088 
        3.01894         10.7526         1.53513         16.7288 
        3.03119         10.7145         1.51971         16.6299 
        3.04345         10.6503          1.5045         16.5245 
        3.05573         10.6716         1.48946          16.437 
          3.068         10.6497         1.47465         16.3543 
        3.08026         10.6269         1.46005         16.2502 
        3.09254         10.6298         1.44563         16.1683 
        3.10483         10.6203         1.43139         16.0892 
         3.1171         10.6434         1.41737          15.995 
        3.12933          10.613         1.40357         15.9052 
        3.14159         10.5787         1.38993         15.8145 
