# k  (h/Mpc)    P(k)  (Mpc/h)^3    P_linear(k)  (Mpc/h)^3     P_NL(k)  ShotnoiseSubtracted = false
      0.0156606         19537.7           19722         19572.7 
      0.0273761         16738.2         17023.4         16852.4 
      0.0384619         12655.3         12813.9         12664.7 
      0.0498308         9779.58         10073.3         9924.09 
      0.0625568         8258.39         8557.65         8424.05 
      0.0751274         7342.45         7268.78         7080.36 
      0.0867833          5694.3          5851.2         5793.76 
      0.0984825         4797.55         4629.91         4683.94 
       0.111151         4096.57         3865.52         3931.05 
       0.123864         3671.72         3483.35         3536.62 
       0.135742         3342.88         3132.24         3185.88 
        0.14762         2905.23          2678.1         2820.62 
       0.160083         2459.54         2232.27         2406.75 
       0.172465         2193.94         1948.29         2170.07 
       0.184281         1994.01         1796.05         2019.48 
       0.196406         1872.39         1658.62         1858.14 
       0.209011         1747.55         1475.72         1682.97 
       0.221538         1575.17         1289.62         1567.73 
       0.233611         1503.69         1153.86         1466.36 
       0.245665         1365.94         1064.96         1353.04 
       0.258103         1344.34         991.376         1276.77 
       0.270422         1201.06         910.952         1198.05 
       0.282519          1130.3         826.733         1131.41 
       0.294636         1113.74         753.241         1070.39 
       0.306978         1013.09         696.871         1024.57 
       0.319417         989.899         651.531         965.623 
        0.33169         931.745         608.131         913.395 
       0.343948         892.365         563.466         884.491 
       0.356249         844.033          521.58         850.885 
       0.368458         813.811         486.495         811.321 
        0.38068         796.992         457.158         779.555 
       0.392856         755.398         430.375          751.44 
       0.405069         718.886         404.185         727.842 
       0.417459          691.38         378.829         699.926 
       0.429752          683.84         356.068         675.328 
       0.441978         660.215         336.089         657.677 
       0.454294         629.783         317.948         630.431 
        0.46658         612.929         300.926         617.003 
       0.478753         599.798         284.867         597.755 
       0.490964         576.813         269.783         579.196 
       0.503334         550.348         255.862         565.669 
       0.515665         549.104         243.167         553.231 
       0.527909         527.266         231.447         540.532 
       0.540159         514.042         220.358         526.275 
        0.55248         504.098         209.837         512.456 
       0.564743         500.045         200.096          503.65 
        0.57686         481.879         191.143         490.006 
       0.589077         470.411         182.691         479.065 
       0.601441         462.513         174.655          469.31 
        0.61382         450.881         167.077         461.105 
       0.626067         445.524         160.006         452.011 
       0.638306         428.605         153.348         443.099 
       0.650632         424.139         147.039         431.775 
       0.662899         420.503         141.128         426.721 
       0.675076         405.473         135.587         420.173 
       0.687267          394.88         130.337         410.146 
       0.699615         391.609           125.3         403.637 
       0.711937         385.263         120.538          396.25 
       0.724148         372.419         116.064         390.625 
       0.736433         363.862         111.794         383.392 
       0.748747         359.259         107.734         376.468 
       0.761037         352.625         103.884         371.545 
       0.773197         348.291         100.263         365.846 
       0.785376         343.136         96.8101         360.283 
       0.797761         333.672         93.4664         354.604 
       0.810096         331.072         90.2939         350.155 
       0.822371         320.457         87.2841         344.395 
       0.834626         318.561         84.4171         340.017 
       0.846916         312.201          81.672         334.801 
       0.859215         311.095         79.0481         330.006 
       0.871383          303.29         76.5661         325.465 
        0.88363         301.343         74.1765         322.129 
       0.895928          295.59         71.8803         317.026 
       0.908253         288.193         69.6775          311.94 
       0.920535         285.006         67.5749          308.13 
       0.932774         278.723         65.5668         303.702 
        0.94508         275.192         63.6306         300.553 
       0.957324         273.782         61.7823         296.425 
        0.96953         269.902         60.0135         292.694 
       0.981769         262.628         58.3099         289.611 
       0.994071         261.743         56.6645         285.991 
         1.0064         256.277         55.0802         281.802 
        1.01868         253.392         53.5613         278.235 
        1.03092         246.439         52.1067         275.686 
         1.0432         243.327         50.7012          272.34 
        1.05553         240.418         49.3422         268.691 
        1.06777         239.011         48.0432         265.831 
           1.08         233.313         46.7924         262.758 
        1.09227         231.358         45.5823         259.646 
         1.1046         227.678         44.4106         257.095 
         1.1169         222.609         43.2824         253.603 
        1.12915         219.766         42.1991         251.261 
        1.14142         216.008         41.1508         248.117 
        1.15365         213.264         40.1413           245.5 
        1.16585         209.766         39.1685         242.548 
        1.17807          207.49         38.2269         240.333 
        1.19037         205.021         37.3102         238.159 
        1.20276         202.177         36.4174         235.076 
        1.21504         197.899          35.561         232.504 
        1.22728          194.72         34.7357         229.614 
        1.23954         193.961         33.9348         227.804 
        1.25184         190.024         33.1577          225.29 
        1.26414         186.539         32.4047         223.059 
        1.27632          185.75         31.6819          221.26 
         1.2886         184.226         30.9761         218.544 
        1.30093         179.098         30.2894         215.978 
        1.31316             176         29.6285          213.62 
        1.32541         174.832         28.9873         211.741 
        1.33772         172.817         28.3616         209.605 
        1.35005         170.235          27.754         207.254 
        1.36225         167.375         27.1704         205.338 
        1.37447         165.109         26.6025         202.828 
        1.38676         163.262         26.0483         201.246 
        1.39907         160.699          25.509         198.975 
        1.41133         158.077         24.9874         197.067 
        1.42358          156.22         24.4808         195.211 
        1.43591         154.424         23.9849         193.249 
        1.44818         151.927         23.5054         191.399 
        1.46037         150.144         23.0419         189.379 
        1.47263         147.965         22.5884         187.818 
        1.48494          145.96         22.1454         185.514 
        1.49724         143.949         21.7147         184.142 
        1.50952         141.337         21.2963         182.259 
        1.52178         140.652         20.8895          180.27 
        1.53409         137.674         20.4918         178.771 
        1.54637         136.092         20.1052         177.286 
        1.55858         133.927         19.7309         175.355 
        1.57081         131.995         19.3655         173.834 
        1.58313          130.27         19.0072         172.061 
        1.59544         128.146         18.6581         170.545 
        1.60767         127.145         18.3201         168.976 
        1.61994         124.842         17.9893         167.526 
        1.63225         123.303         17.6659          165.69 
        1.64452         121.114         17.3515         164.206 
        1.65676         119.408         17.0456         162.813 
          1.669         118.553         16.7469         161.386 
        1.68133         116.078         16.4535          159.91 
        1.69363          114.46          16.168         158.481 
        1.70585         112.508         15.8911         157.081 
        1.71809         111.206         15.6202         155.408 
        1.73038         110.418         15.3547         154.167 
        1.74268         109.249         15.0952         152.691 
        1.75493         106.508         14.8429         151.392 
        1.76714         105.801          14.597         150.146 
        1.77942         104.049         14.3555         148.629 
        1.79173         102.528         14.1188         147.412 
        1.80402         101.689         13.8879         146.111 
         1.8163         99.5386         13.6624         144.818 
         1.8286         98.2954         13.4414         143.495 
         1.8409         97.6325         13.2256         142.172 
        1.85315         95.7593         13.0152         141.032 
        1.86537         94.8206         12.8098         139.862 
        1.87765         93.8068         12.6081         138.661 
        1.88995         92.1999         12.4102         137.417 
        1.90221         90.9781         12.2173         136.282 
        1.91445         89.8816         12.0288         134.991 
        1.92674         88.4183         11.8437         133.858 
        1.93902          87.257         11.6624         132.659 
        1.95124         86.3194         11.4859         131.554 
         1.9635         84.9043         11.3126         130.374 
        1.97583         83.6575         11.1417         129.335 
        1.98812         82.6254         10.9751         128.302 
        2.00039         81.6609         10.8122         127.139 
        2.01264         80.6865         10.6527          126.09 
        2.02492         79.8126         10.4963         124.979 
        2.03717         78.4391         10.3432         123.944 
        2.04942          77.968         10.1934         122.986 
        2.06171         76.1987         10.0461         121.917 
        2.07397         75.4154           9.902         120.945 
        2.08629         74.5387         9.76013         119.894 
        2.09857         73.4535         9.62137         118.932 
        2.11081         72.2482         9.48588         117.832 
        2.12309         71.2953         9.35268         117.006 
        2.13538         70.4491         9.22185         115.978 
        2.14763         69.5504         9.09396         115.054 
        2.15986         68.4654         8.96879          114.05 
        2.17214         67.8075         8.84547         113.121 
        2.18443         66.9577         8.72436         112.363 
        2.19671         65.7764         8.60565           111.4 
        2.20898         65.2755          8.4893         110.432 
        2.22126         64.3188         8.37498         109.565 
        2.23354         63.6074          8.2628         108.711 
         2.2458         62.5134         8.15287         107.853 
        2.25807         61.7593         8.04485         106.956 
        2.27035         60.9966         7.93869         106.082 
        2.28263         60.1864          7.8345         105.254 
         2.2949         59.4108         7.73223         104.431 
        2.30718         58.4332         7.63175         103.629 
        2.31946         58.0943         7.53302         102.751 
        2.33169         57.0434         7.43645         101.969 
        2.34393         56.5391         7.34143          101.22 
        2.35622         55.5938         7.24777         100.411 
        2.36847         55.1843         7.15601          99.726 
        2.38076         54.2387         7.06556         98.8173 
        2.39305         53.6502         6.97669         98.1488 
        2.40534         53.0099         6.88935         97.3403 
        2.41762         52.4015         6.80352         96.5459 
        2.42989         51.6443         6.71928         95.8727 
        2.44216         51.0913         6.63648         95.0813 
         2.4544         50.3632         6.55526          94.374 
        2.46667         49.8098         6.47522         93.6377 
        2.47897         49.2695         6.39632          92.903 
        2.49124         48.6773         6.31895         92.2403 
        2.50349          48.345         6.24298         91.5204 
        2.51578           47.51         6.16802         90.9212 
        2.52805         46.9955         6.09444         90.1602 
        2.54029         46.5308         6.02223         89.4414 
        2.55257         45.8996         5.95098         88.8312 
        2.56487          45.567         5.88074         88.2085 
        2.57716         44.8673         5.81174         87.5476 
        2.58942         44.2631           5.744         86.8801 
        2.60167          43.877          5.6774         86.2505 
        2.61395          43.283         5.61176         85.6216 
        2.62624         42.8953         5.54707         84.9331 
        2.63849         42.3561         5.48361         84.3326 
        2.65073         41.9956          5.4212         83.7135 
        2.66302         41.4482         5.35954         83.0835 
         2.6753         41.0265         5.29888         82.5076 
        2.68756         40.5906         5.23928         81.8862 
        2.69983         40.1248         5.18056         81.3308 
        2.71213         39.7455         5.12261         80.7502 
        2.72441         39.3526         5.06566         80.1552 
        2.73665         38.8005         5.00971         79.5908 
         2.7489         38.5301         4.95463         79.0273 
        2.76118         38.0951         4.90021          78.464 
        2.77349         37.7112         4.84649         77.9048 
        2.78576         37.4042         4.79378          77.317 
        2.79802         37.0307         4.74187         76.8494 
        2.81031         36.5672         4.69062         76.2835 
        2.82259          36.468         4.64015         75.7178 
        2.83483         35.9674         4.59061         75.2329 
         2.8471         35.6466          4.5417         74.6919 
         2.8594         35.3428         4.49335         74.1485 
         2.8717         35.1856         4.44572         73.6601 
        2.88396         34.7564         4.39896         73.1398 
        2.89619         34.6077         4.35295          72.594 
        2.90847         34.1909         4.30743         72.0814 
        2.92072         34.0019         4.26264         71.6266 
        2.93299         33.8302         4.21846         71.1459 
        2.94526         33.4639         4.17487         70.6564 
        2.95753         33.2534         4.13191         70.1616 
        2.96982         33.0234         4.08948         69.6881 
        2.98209         32.7615         4.04773         69.2295 
        2.99436         32.5161         4.00653         68.7252 
        3.00666         32.4934         3.96584         68.2708 
        3.01894         32.1481         3.92579         67.8032 
        3.03119         32.1004         3.88634         67.3658 
        3.04345         31.9687         3.84744         66.9362 
        3.05573         31.6055         3.80899         66.4833 
          3.068         31.6141         3.77111         66.0382 
        3.08026           31.43         3.73378         65.5936 
        3.09254         31.3548         3.69689          65.167 
        3.10483         31.3113         3.66049         64.7438 
         3.1171         31.1034         3.62463          64.313 
        3.12933         31.0351         3.58935          63.881 
        3.14159         30.9031         3.55446         63.4448 
