# k  (h/Mpc)    Pcb(k)  (Mpc/h)^3    Pcb_linear(k) (Mpc/h)^3    Pcb_NL(k) (Mpc/h)^3   ShotnoiseSubtracted = false
      0.0156606         1197.57          1198.2          1192.6 
      0.0273761         1042.86          1037.1         1034.85 
      0.0384619         792.253         781.712         781.469 
      0.0498308          622.63         615.025         615.252 
      0.0625568         525.431         522.779         522.417 
      0.0751274         451.591         444.199          443.28 
      0.0867833         360.277          357.65          357.57 
      0.0984825         289.847         283.046         283.706 
       0.111151         242.306         236.345         236.955 
       0.123864          217.57         212.999          213.34 
       0.135742         195.237         191.542         191.829 
        0.14762         165.909          163.78         164.619 
       0.160083         137.975         136.522         137.537 
       0.172465         121.019         119.158         120.353 
       0.184281         112.062          109.85         111.088 
       0.196406         102.418         101.447         102.358 
       0.209011         91.8056         90.2623         91.3287 
       0.221538         81.0335         78.8811          80.405 
       0.233611         72.6701         70.5783         72.2674 
       0.245665         67.9395         65.1412         66.6302 
       0.258103         61.4497          60.641         62.1148 
       0.270422         57.4924         55.7222         57.1371 
       0.282519         52.1444         50.5711         52.1096 
       0.294636         48.8159         46.0759          47.699 
       0.306978         43.6253          42.628         44.2978 
       0.319417         41.4116         39.8548         41.4733 
        0.33169         38.4983         37.2002         38.7602 
       0.343948         36.2321         34.4682         36.0275 
       0.356249         33.1541          31.906         33.6717 
       0.368458         31.3762           29.76         31.3398 
        0.38068         29.2801         27.9653         29.5365 
       0.392856         27.4977         26.3271         27.9133 
       0.405069         25.9668         24.7252         26.2335 
       0.417459         24.0259         23.1741         24.7417 
       0.429752         22.8977         21.7817         23.3319 
       0.441978         21.7468         20.5596         22.1904 
       0.454294         20.3037         19.4499          20.992 
        0.46658         19.7913         18.4087         19.9233 
       0.478753         18.4892         17.4264         18.9369 
       0.490964         17.7613         16.5037         18.0827 
       0.503334         16.9393          15.652         17.1467 
       0.515665         15.9573         14.8754         16.4428 
       0.527909         15.2901         14.1585         15.6047 
       0.540159         14.5207         13.4803         14.9101 
        0.55248         13.6219         12.8367         14.2182 
       0.564743         13.3659         12.2407         13.6942 
        0.57686         12.8071          11.693         13.1028 
       0.589077         12.0355          11.176         12.6198 
       0.601441           11.55         10.6844         12.1016 
        0.61382         11.0952         10.2209         11.5881 
       0.626067         10.6167         9.78831         11.1498 
       0.638306         10.2305         9.38099         10.7119 
       0.650632         9.94203         8.99507         10.3397 
       0.662899         9.46762         8.63343         9.93837 
       0.675076         9.00181         8.29451         9.58647 
       0.687267         8.74127         7.97336         9.21923 
       0.699615         8.48096          7.6652         8.90179 
       0.711937         8.04591         7.37388         8.61912 
       0.724148         7.92248         7.10018         8.32906 
       0.736433         7.49676         6.83901         8.02864 
       0.748747         7.27919          6.5906         7.79885 
       0.761037         7.07355         6.35512         7.53983 
       0.773197         6.76192         6.13358         7.32352 
       0.785376         6.53353         5.92236         7.08637 
       0.797761         6.32746         5.71781         6.85181 
       0.810096         6.15666         5.52373         6.68036 
       0.822371         5.99808         5.33961         6.45587 
       0.834626         5.79101         5.16422         6.26764 
       0.846916         5.58152         4.99629         6.10261 
       0.859215         5.36385         4.83577         5.93787 
       0.871383         5.21556         4.68394         5.77283 
        0.88363          5.0779         4.53776         5.61111 
       0.895928         4.96295         4.39729         5.45089 
       0.908253         4.80953         4.26254         5.30829 
       0.920535         4.64561         4.13391          5.1591 
       0.932774         4.53216         4.01106         5.00817 
        0.94508         4.39525         3.89261         4.89423 
       0.957324         4.28327         3.77955         4.78448 
        0.96953          4.1352         3.67134         4.66073 
       0.981769         4.02212         3.56712         4.52999 
       0.994071         3.94598         3.46647         4.43495 
         1.0064         3.81264         3.36955         4.32494 
        1.01868         3.69768         3.27663         4.21857 
        1.03092         3.63753         3.18765         4.11137 
         1.0432         3.50571         3.10166         4.02007 
        1.05553         3.43111         3.01853         3.93515 
        1.06777         3.32142         2.93906         3.84993 
           1.08         3.26432         2.86254         3.75612 
        1.09227         3.16303         2.78851         3.66912 
         1.1046         3.09021         2.71684         3.59235 
         1.1169         2.99815         2.64782         3.51402 
        1.12915          2.9506         2.58155         3.44356 
        1.14142         2.86389         2.51742         3.36298 
        1.15365         2.80171         2.45566           3.299 
        1.16585         2.74526         2.39615         3.23059 
        1.17807         2.69235         2.33855         3.16167 
        1.19037          2.5934         2.28247         3.09464 
        1.20276         2.53927         2.22785         3.02708 
        1.21504         2.48834         2.17546         2.97904 
        1.22728          2.4308         2.12498         2.90976 
        1.23954         2.38581         2.07598         2.86712 
        1.25184         2.32897         2.02844         2.80099 
        1.26414         2.28226         1.98237         2.74372 
        1.27632         2.21346         1.93815         2.70171 
         1.2886         2.18487         1.89498         2.64469 
        1.30093         2.11874         1.85297         2.60281 
        1.31316         2.05985         1.81254         2.55083 
        1.32541          2.0354         1.77331         2.50918 
        1.33772         2.00095         1.73504          2.4624 
        1.35005         1.95767         1.69786         2.42006 
        1.36225          1.9145         1.66216         2.37337 
        1.37447         1.87418         1.62742         2.33828 
        1.38676         1.83435         1.59352         2.29129 
        1.39907         1.78942         1.56053          2.2581 
        1.41133         1.75578         1.52862         2.21936 
        1.42358          1.7345         1.49763         2.17534 
        1.43591         1.69827         1.46729         2.15176 
        1.44818         1.66045         1.43796         2.11348 
        1.46037         1.62218          1.4096         2.07435 
        1.47263         1.59032         1.38186         2.04452 
        1.48494         1.56461         1.35476         2.01144 
        1.49724         1.53008         1.32841          1.9786 
        1.50952         1.51302         1.30281         1.94531 
        1.52178         1.47417         1.27793         1.91907 
        1.53409         1.44763          1.2536         1.88517 
        1.54637         1.41475         1.22995         1.85502 
        1.55858         1.39598         1.20705         1.82675 
        1.57081         1.37359          1.1847         1.79928 
        1.58313         1.34324         1.16278          1.7765 
        1.59544         1.32195         1.14142         1.74832 
        1.60767         1.30074         1.12074         1.72265 
        1.61994         1.27304          1.1005         1.69891 
        1.63225         1.25586         1.08072         1.67528 
        1.64452         1.23283         1.06149         1.64899 
        1.65676         1.20671         1.04278         1.62661 
          1.669         1.18913          1.0245         1.60136 
        1.68133          1.1651         1.00656         1.58289 
        1.69363         1.15354         0.98909         1.55923 
        1.70585         1.13152         0.97215          1.5385 
        1.71809         1.11533        0.955574          1.5166 
        1.73038         1.09167        0.939332         1.49638 
        1.74268         1.07108        0.923458         1.47541 
        1.75493         1.06204        0.908024         1.45819 
        1.76714         1.04039        0.892983         1.43592 
        1.77942         1.01925        0.878206         1.41774 
        1.79173         1.00739        0.863727           1.399 
        1.80402        0.991025        0.849604         1.38093 
         1.8163        0.975152        0.835805         1.36184 
         1.8286        0.953538        0.822289         1.34891 
         1.8409        0.949405        0.809084          1.3305 
        1.85315        0.934598        0.796213          1.3117 
        1.86537        0.912901        0.783648         1.29723 
        1.87765        0.901931        0.771308         1.28028 
        1.88995        0.889174        0.759204         1.26516 
        1.90221        0.873894        0.747402         1.24894 
        1.91445        0.860648        0.735871         1.23514 
        1.92674        0.847614        0.724543          1.2195 
        1.93902        0.831771        0.713454         1.20391 
        1.95124        0.821305        0.702656         1.18978 
         1.9635        0.809519        0.692053          1.1753 
        1.97583         0.79592        0.681603         1.16059 
        1.98812        0.783901        0.671408         1.14958 
        2.00039        0.772159        0.661443         1.13494 
        2.01264         0.76178        0.651689         1.12249 
        2.02492        0.752636        0.642118         1.11099 
        2.03717        0.744743        0.632755           1.098 
        2.04942        0.730317        0.623591         1.08415 
        2.06171        0.720828        0.614577         1.07217 
        2.07397        0.710373        0.605761         1.06147 
        2.08629        0.702097        0.597082         1.04977 
        2.09857        0.690554        0.588594          1.0384 
        2.11081        0.679803        0.580305         1.02627 
        2.12309        0.671359        0.572157         1.01619 
        2.13538        0.664255        0.564153         1.00411 
        2.14763        0.655942        0.556329        0.994053 
        2.15986        0.647102        0.548672        0.984767 
        2.17214        0.634552        0.541128        0.972284 
        2.18443        0.628786        0.533718         0.96312 
        2.19671        0.621301        0.526457         0.95337 
        2.20898        0.612156        0.519339        0.943163 
        2.22126        0.602659        0.512345        0.933673 
        2.23354        0.594563        0.505483        0.924561 
         2.2458        0.589218        0.498758        0.914088 
        2.25807        0.580058        0.492149        0.905321 
        2.27035        0.574453        0.485655        0.896129 
        2.28263        0.564995        0.479281         0.88787 
         2.2949        0.558972        0.473024        0.878647 
        2.30718         0.55281        0.466878        0.870485 
        2.31946         0.54516        0.460837        0.862254 
        2.33169         0.53726         0.45493        0.853593 
        2.34393        0.533027        0.449117         0.84523 
        2.35622        0.525511        0.443388        0.836734 
        2.36847        0.520199        0.437774        0.829041 
        2.38076        0.512556         0.43224        0.821166 
        2.39305         0.50742        0.426804        0.813784 
        2.40534        0.500342        0.421461        0.806088 
        2.41762        0.495211         0.41621        0.797769 
        2.42989        0.488037        0.411057        0.790748 
        2.44216        0.484405        0.405991        0.784104 
         2.4544        0.480208        0.401023        0.776746 
        2.46667        0.473895        0.396126        0.769243 
        2.47897        0.468413        0.391299        0.762737 
        2.49124        0.461935        0.386566        0.755435 
        2.50349        0.457623        0.381919        0.748345 
        2.51578        0.452336        0.377333        0.741712 
        2.52805        0.448588        0.372832         0.73545 
        2.54029        0.443152        0.368414        0.728805 
        2.55257         0.43833        0.364055        0.723043 
        2.56487        0.434344        0.359759        0.716498 
        2.57716         0.42981        0.355537        0.709968 
        2.58942        0.426348        0.351393        0.704357 
        2.60167        0.422054        0.347319         0.69764 
        2.61395        0.416504        0.343304        0.691905 
        2.62624        0.412812        0.339346        0.686669 
        2.63849        0.408721        0.335463        0.680586 
        2.65073        0.405141        0.331646        0.674693 
        2.66302        0.401402        0.327874        0.668925 
         2.6753         0.39783        0.324163        0.663484 
        2.68756        0.394578        0.320517        0.658199 
        2.69983        0.389972        0.316924         0.65264 
        2.71213        0.385032         0.31338        0.647376 
        2.72441        0.383586        0.309895        0.642223 
        2.73665        0.380159        0.306472        0.637404 
         2.7489        0.378102        0.303103        0.632292 
        2.76118         0.37381        0.299774        0.626859 
        2.77349        0.371651        0.296487        0.622242 
        2.78576         0.36869        0.293263        0.616841 
        2.79802        0.365667        0.290088        0.611696 
        2.81031        0.362666        0.286952        0.607642 
        2.82259        0.360691        0.283864         0.60228 
        2.83483        0.357682        0.280834        0.597652 
         2.8471        0.355299        0.277841        0.593233 
         2.8594        0.353599        0.274884        0.588976 
         2.8717        0.350185         0.27197        0.584487 
        2.88396        0.348033        0.269109        0.579835 
        2.89619        0.346434        0.266295        0.575724 
        2.90847        0.344108         0.26351        0.571585 
        2.92072        0.342725         0.26077        0.566907 
        2.93299        0.339976        0.258068        0.562501 
        2.94526        0.338408        0.255401        0.558497 
        2.95753        0.337721        0.252773        0.554492 
        2.96982        0.335425        0.250177        0.550264 
        2.98209        0.334639        0.247623        0.546114 
        2.99436        0.331642        0.245103        0.542278 
        3.00666        0.331586        0.242613        0.538633 
        3.01894        0.330875        0.240163        0.534648 
        3.03119        0.329677         0.23775        0.530578 
        3.04345        0.328163         0.23537        0.526944 
        3.05573        0.328194        0.233018        0.523548 
          3.068        0.325684          0.2307        0.519759 
        3.08026        0.326073        0.228417        0.515629 
        3.09254        0.325092         0.22616        0.511985 
        3.10483        0.324338        0.223933        0.508725 
         3.1171         0.32505        0.221739        0.505349 
        3.12933        0.324385        0.219581        0.501849 
        3.14159        0.323477        0.217447        0.498356 
