# k  (h/Mpc)    P(k)  (Mpc/h)^3    P_linear(k)  (Mpc/h)^3     P_NL(k)  ShotnoiseSubtracted = false
      0.0156606         20498.6         20657.8         20498.3 
      0.0273761         17551.9         17830.8         17644.5 
      0.0384619         13265.8         13421.3         13257.6 
      0.0498308         10245.7         10550.7         10386.6 
      0.0625568         8652.63         8963.17         8816.66 
      0.0751274         7698.69         7613.18            7407 
      0.0867833         5966.71         6128.41         6065.07 
      0.0984825         5034.64         4849.24         4907.19 
       0.111151         4302.87         4048.62         4119.82 
       0.123864         3855.74         3648.35         3706.08 
       0.135742         3512.96         3280.59         3338.61 
        0.14762         3055.78         2804.95            2959 
       0.160083         2591.68            2338         2527.31 
       0.172465         2311.71         2040.56         2281.42 
       0.184281         2098.25         1881.11          2123.2 
       0.196406         1974.91         1737.17         1954.63 
       0.209011         1845.68         1545.61         1771.13 
       0.221538         1662.89         1350.69            1652 
       0.233611         1590.98          1208.5         1546.87 
       0.245665          1443.6         1115.39            1428 
       0.258103         1425.26         1038.32         1347.99 
       0.270422         1272.34         954.091         1265.75 
       0.282519         1199.72         865.884         1196.99 
       0.294636         1180.31         788.911         1133.26 
       0.306978         1076.08         729.872         1085.49 
       0.319417         1053.27         682.384         1023.28 
        0.33169         990.849          636.93         968.597 
       0.343948         950.066         590.149         938.459 
       0.356249         899.685         546.279         903.326 
       0.368458         866.029         509.533         862.367 
        0.38068         850.225         478.807         829.151 
       0.392856         806.645         450.755         799.809 
       0.405069         766.594         423.325         774.403 
       0.417459          737.44         396.769         745.955 
       0.429752         731.618         372.929         719.867 
       0.441978         706.165         352.005         701.396 
       0.454294         674.472         333.004         672.636 
        0.46658         655.872         315.176         658.636 
       0.478753         642.723         298.357         638.434 
       0.490964         617.965         282.558         618.827 
       0.503334         590.671         267.978         604.766 
       0.515665         589.046         254.681         591.357 
       0.527909         565.213         242.407         578.376 
       0.540159         551.186         230.793         563.444 
        0.55248         540.458         219.774         548.764 
       0.564743         536.279         209.572         539.431 
        0.57686         517.482         200.194          525.04 
       0.589077         506.488         191.342         513.391 
       0.601441         496.759         182.925         503.191 
        0.61382          483.67         174.989         494.445 
       0.626067          478.27         167.583         484.961 
       0.638306         460.503         160.609         475.289 
       0.650632         456.085         154.002         463.547 
       0.662899         452.262          147.81         458.076 
       0.675076         436.719         142.008         451.419 
       0.687267         424.917         136.509         440.672 
       0.699615         422.296         131.233         433.724 
       0.711937         414.854         126.246         425.704 
       0.724148         401.127          121.56         419.817 
       0.736433         391.812         117.088         412.209 
       0.748747         386.937         112.835         404.854 
       0.761037         379.917         108.804          399.76 
       0.773197         374.945         105.011         393.445 
       0.785376         369.642         101.394         387.634 
       0.797761         359.067         97.8924         381.628 
       0.810096         356.111         94.5696         376.861 
       0.822371         345.457         91.4173         370.694 
       0.834626         342.926         88.4145         366.163 
       0.846916         336.623         85.5394         360.485 
       0.859215         334.479         82.7912         355.294 
       0.871383         326.437         80.1917         350.516 
        0.88363         323.893          77.689         346.944 
       0.895928         318.305         75.2841         341.484 
       0.908253         310.384          72.977         335.971 
       0.920535         306.065         70.7748         332.057 
       0.932774         300.258         68.6716         327.182 
        0.94508         296.104         66.6437         323.822 
       0.957324          294.19         64.7079         319.447 
        0.96953         290.174         62.8554         315.518 
       0.981769         282.724          61.071         312.108 
       0.994071         281.778         59.3478         308.253 
         1.0064           276.1         57.6884         303.759 
        1.01868         273.108         56.0976         299.881 
        1.03092          265.17         54.5741         297.203 
         1.0432         262.319          53.102         293.604 
        1.05553         259.286         51.6787          289.62 
        1.06777         257.055         50.3182          286.47 
           1.08         251.074         49.0082         283.233 
        1.09227         249.583         47.7408         279.838 
         1.1046         245.278         46.5136         277.126 
         1.1169         239.736          45.332         273.398 
        1.12915         236.715         44.1974         270.797 
        1.14142         232.351         43.0994          267.48 
        1.15365         229.645         42.0421         264.659 
        1.16585         225.666         41.0233         261.574 
        1.17807         223.399         40.0371         259.023 
        1.19037         220.388         39.0769         256.753 
        1.20276         217.373         38.1418         253.405 
        1.21504          212.77         37.2449         250.605 
        1.22728         209.558         36.3806           247.6 
        1.23954          208.58         35.5417         245.488 
        1.25184         204.129         34.7278         242.827 
        1.26414         200.191         33.9391          240.47 
        1.27632          199.17         33.1821         238.412 
         1.2886           197.7         32.4429         235.578 
        1.30093         192.504         31.7236         232.727 
        1.31316         188.773         31.0315         230.282 
        1.32541         187.696         30.3599         228.111 
        1.33772         185.129         29.7046         225.893 
        1.35005         182.628         29.0682         223.355 
        1.36225         179.324          28.457         221.275 
        1.37447         176.795         27.8622         218.559 
        1.38676         174.957         27.2818         216.941 
        1.39907          172.34         26.7169         214.406 
        1.41133         169.331         26.1706          212.27 
        1.42358         167.378           25.64         210.269 
        1.43591          165.42         25.1206         208.249 
        1.44818         162.436         24.6185         206.178 
        1.46037         160.859          24.133         203.984 
        1.47263         158.106         23.6581         202.226 
        1.48494         156.284         23.1941         199.745 
        1.49724         154.015         22.7429         198.369 
        1.50952          151.18         22.3047         196.255 
        1.52178         150.247         21.8787         194.134 
        1.53409         147.183         21.4621         192.483 
        1.54637         145.331         21.0573         190.894 
        1.55858         143.364         20.6652         188.813 
        1.57081         141.095         20.2826         187.121 
        1.58313         139.232         19.9073         185.212 
        1.59544         136.769         19.5417         183.562 
        1.60767         135.719         19.1876         181.907 
        1.61994         133.303         18.8411          180.24 
        1.63225         131.514         18.5025          178.33 
        1.64452         129.287         18.1731         176.737 
        1.65676         127.523         17.8528         175.216 
          1.669          126.39           17.54         173.615 
        1.68133         123.865         17.2327         172.031 
        1.69363         121.885         16.9336         170.518 
        1.70585         119.927         16.6436             169 
        1.71809         118.479         16.3598         167.175 
        1.73038         117.461         16.0818         165.833 
        1.74268         116.308           15.81         164.226 
        1.75493          113.26         15.5458         162.856 
        1.76714         112.794         15.2882         161.487 
        1.77942         110.681         15.0353         159.885 
        1.79173         108.959         14.7874         158.513 
        1.80402         107.963         14.5456         157.106 
         1.8163         105.724         14.3093         155.775 
         1.8286         104.453         14.0779         154.307 
         1.8409         103.653         13.8519         152.871 
        1.85315         101.472         13.6315         151.632 
        1.86537         100.672         13.4164         150.375 
        1.87765          99.449         13.2051         149.091 
        1.88995         97.6889         12.9979         147.707 
        1.90221         96.4667         12.7958         146.519 
        1.91445         95.2443         12.5984         145.112 
        1.92674         93.7477         12.4045         143.874 
        1.93902         92.4957         12.2146         142.582 
        1.95124         91.4021         12.0298         141.382 
         1.9635         89.8968         11.8482         140.135 
        1.97583         88.5575         11.6693         138.968 
        1.98812         87.4381         11.4948         137.906 
        2.00039         86.4252         11.3242          136.62 
        2.01264          85.345         11.1572         135.498 
        2.02492         84.4464         10.9933         134.279 
        2.03717           82.99          10.833         133.199 
        2.04942         82.3059         10.6761          132.12 
        2.06171          80.538         10.5218          130.97 
        2.07397          79.738         10.3709         129.936 
        2.08629         78.7308         10.2223         128.806 
        2.09857         77.6445          10.077         127.768 
        2.11081         76.3308         9.93507         126.589 
        2.12309         75.2985         9.79556         125.671 
        2.13538         74.3279         9.65853         124.563 
        2.14763          73.398         9.52458         123.569 
        2.15986         72.3597         9.39349         122.478 
        2.17214         71.5592         9.26433         121.499 
        2.18443         70.6107         9.13748         120.671 
        2.19671         69.5506         9.01316         119.632 
        2.20898         68.8607          8.8913         118.572 
        2.22126          67.841         8.77156          117.67 
        2.23354         67.0905         8.65407         116.734 
         2.2458         65.8378         8.53893         115.795 
        2.25807          65.133         8.42579         114.844 
        2.27035         64.2306         8.31461         113.906 
        2.28263         63.3958         8.20548         113.026 
         2.2949         62.4257         8.09837         112.138 
        2.30718         61.5184         7.99314         111.256 
        2.31946         61.0989         7.88972         110.302 
        2.33169         60.0091         7.78859         109.467 
        2.34393         59.5602         7.68907         108.676 
        2.35622         58.4293         7.59097         107.789 
        2.36847          58.016         7.49486         107.053 
        2.38076         57.0358         7.40013         106.079 
        2.39305         56.4297         7.30706         105.364 
        2.40534         55.6808         7.21558         104.493 
        2.41762         55.0351         7.12569         103.643 
        2.42989         54.1858         7.03746         102.908 
        2.44216         53.6485         6.95074          102.05 
         2.4544         52.8178         6.86567           101.3 
        2.46667         52.2312         6.78184         100.519 
        2.47897         51.6568          6.6992         99.7124 
        2.49124         51.1196         6.61817         98.9925 
        2.50349         50.6003          6.5386          98.234 
        2.51578         49.8206          6.4601         97.5837 
        2.52805         49.2524         6.38302         96.7608 
        2.54029         48.7593          6.3074         96.0026 
        2.55257         48.1221         6.23277         95.3459 
        2.56487         47.8428         6.15921         94.6619 
        2.57716          47.094         6.08694         93.9463 
        2.58942         46.4487         6.01599         93.2449 
        2.60167         45.9239         5.94624         92.5648 
        2.61395         45.4571          5.8775         91.8812 
        2.62624         44.8317         5.80974         91.1479 
        2.63849         44.3407         5.74327         90.4995 
        2.65073         43.9135         5.67791         89.8412 
        2.66302         43.3939         5.61333         89.1588 
         2.6753         42.9692          5.5498         88.5443 
        2.68756         42.5282         5.48738         87.8735 
        2.69983         41.9764         5.42587         87.2685 
        2.71213         41.5789         5.36518         86.6419 
        2.72441         41.1496         5.30553         86.0054 
        2.73665         40.6454         5.24693         85.4102 
         2.7489         40.2335         5.18925         84.8063 
        2.76118          39.866         5.13225         84.1875 
        2.77349          39.415         5.07598         83.5928 
        2.78576         39.0515         5.02077         82.9675 
        2.79802         38.7191         4.96641         82.4576 
        2.81031         38.1855         4.91274         81.8522 
        2.82259         38.0019         4.85987         81.2443 
        2.83483         37.5056         4.80799         80.7236 
         2.8471          37.202         4.75676         80.1374 
         2.8594         36.8534         4.70612         79.5581 
         2.8717         36.6766         4.65623          79.041 
        2.88396         36.2546         4.60726         78.4831 
        2.89619         36.0422         4.55908         77.8932 
        2.90847         35.6463          4.5114         77.3344 
        2.92072          35.442         4.46449          76.853 
        2.93299         35.2859         4.41822          76.344 
        2.94526           34.88         4.37256         75.8111 
        2.95753         34.6605         4.32757         75.2762 
        2.96982         34.3488         4.28313         74.7727 
        2.98209         34.1455         4.23941         74.2797 
        2.99436         33.8736         4.19625         73.7401 
        3.00666         33.8324         4.15363         73.2473 
        3.01894         33.4676         4.11168         72.7528 
        3.03119         33.4319         4.07037         72.2843 
        3.04345         33.2661         4.02963         71.8161 
        3.05573         32.9353         3.98936         71.3277 
          3.068         32.8676         3.94968         70.8526 
        3.08026         32.6935         3.91059         70.3751 
        3.09254         32.6259         3.87195         69.9177 
        3.10483          32.589         3.83382         69.4626 
         3.1171         32.4155         3.79627         68.9984 
        3.12933         32.2796         3.75931          68.537 
        3.14159          32.158         3.72277         68.0715 
