# k  (h/Mpc)    Pcb(k)  (Mpc/h)^3    Pcb_linear(k) (Mpc/h)^3    Pcb_NL(k) (Mpc/h)^3   ShotnoiseSubtracted = false
      0.0156606         14891.8         14949.2           14848 
      0.0273761         12812.8         12926.8         12824.4 
      0.0384619         9711.18         9739.35         9655.24 
      0.0498308         7528.85         7660.85         7578.54 
      0.0625568         6356.94         6510.87         6435.48 
      0.0751274          5627.9         5531.74         5423.68 
      0.0867833         4381.15         4453.68         4422.81 
      0.0984825         3661.02         3524.53         3560.24 
       0.111151          3111.3         2942.93         2983.37 
       0.123864         2791.12         2652.17         2685.59 
       0.135742         2531.91         2384.97         2419.02 
        0.14762         2188.69         2039.27         2128.46 
       0.160083          1836.9         1699.85          1806.5 
       0.172465         1637.95         1483.64         1618.16 
       0.184281         1498.67         1367.74         1505.33 
       0.196406         1390.89         1263.11         1381.62 
       0.209011         1288.33         1123.84         1248.61 
       0.221538         1162.22         982.133         1153.19 
       0.233611         1094.75         878.754         1071.18 
       0.245665         1002.81         811.056         986.377 
       0.258103         967.009         755.024         928.925 
       0.270422         870.808         693.779          868.13 
       0.282519         810.193         629.643         813.445 
       0.294636         802.365         573.675         765.977 
       0.306978         721.206         530.746         730.075 
       0.319417         698.418         496.217         687.178 
        0.33169         658.103         463.165         647.873 
       0.343948         627.469         429.149         624.507 
       0.356249          589.89         397.249         598.598 
       0.368458         572.006         370.529         567.136 
        0.38068         552.484         348.184          542.92 
       0.392856         520.671         327.786         521.522 
       0.405069         498.581         307.842         505.108 
       0.417459         477.954          288.53         481.358 
       0.429752         465.496         271.194         463.896 
       0.441978         450.192         255.978         450.473 
       0.454294         425.551         242.162         430.728 
        0.46658         418.134         229.198         420.028 
       0.478753         404.714         216.967         405.821 
       0.490964         390.085         205.479         392.306 
       0.503334         368.686         194.876          381.79 
       0.515665         367.165         185.207         373.423 
       0.527909         354.193         176.281          362.49 
       0.540159         345.148         167.836         352.234 
        0.55248         338.376         159.823         342.419 
       0.564743         332.703         152.403          335.78 
        0.57686         319.871         145.584         325.857 
       0.589077         308.551         139.147         318.717 
       0.601441         305.109         133.026         311.364 
        0.61382         300.105         127.255         305.014 
       0.626067         294.589         121.869          298.22 
       0.638306         281.427         116.798          292.51 
       0.650632         276.202         111.993         283.864 
       0.662899         274.327          107.49         280.032 
       0.675076         263.798         103.271         274.416 
       0.687267         257.191         99.2721         268.173 
       0.699615         253.087         95.4353         263.361 
       0.711937          248.67         91.8083         258.565 
       0.724148         241.722         88.4005         254.668 
       0.736433         236.491         85.1489         249.311 
       0.748747         232.274          82.056          244.49 
       0.761037          228.31         79.1242         240.319 
       0.773197         224.865         76.3659         237.249 
       0.785376         221.927         73.7361         232.662 
       0.797761         216.599         71.1894         229.418 
       0.810096         213.491          68.773         225.825 
       0.822371         205.429         66.4806         222.072 
       0.834626         204.678         64.2969         218.586 
       0.846916         200.775         62.2061         215.412 
       0.859215         200.229         60.2076         212.222 
       0.871383         194.918         58.3172         208.822 
        0.88363         192.995         56.4972         206.621 
       0.895928         188.567         54.7483         203.477 
       0.908253         183.354         53.0705         199.997 
       0.920535         182.757          51.469         197.326 
       0.932774         176.642         49.9395         194.489 
        0.94508         175.117         48.4648         192.408 
       0.957324         174.618         47.0571         189.488 
        0.96953         172.316         45.7099          186.64 
       0.981769         166.942         44.4123         184.963 
       0.994071         166.144         43.1591         182.494 
         1.0064         162.193         41.9524         179.711 
        1.01868         160.078         40.7955         177.732 
        1.03092         157.403         39.6876         175.759 
         1.0432         154.332         38.6171         173.541 
        1.05553         151.744          37.582         171.539 
        1.06777         151.546         36.5926          169.78 
           1.08         147.862         35.6399         167.523 
        1.09227         146.227         34.7183         165.848 
         1.1046         143.813         33.8259         163.909 
         1.1169         141.825         32.9665         161.687 
        1.12915          139.56         32.1414         160.088 
        1.14142         137.353          31.343         158.008 
        1.15365         135.514         30.5741         156.345 
        1.16585         133.577         29.8332         154.328 
        1.17807         131.629          29.116         153.224 
        1.19037         130.923         28.4177         151.601 
        1.20276         128.283         27.7377         149.754 
        1.21504         126.626         27.0854         148.129 
        1.22728         124.092         26.4569         146.369 
        1.23954         123.386         25.8469         145.112 
        1.25184         120.836          25.255         143.503 
        1.26414         119.182         24.6814         142.013 
        1.27632         118.578         24.1309         141.273 
         1.2886         116.338         23.5933         139.205 
        1.30093         113.482         23.0703         137.722 
        1.31316         113.124         22.5669          136.32 
        1.32541         111.414         22.0785         135.268 
        1.33772         110.232          21.602         133.816 
        1.35005         108.796         21.1392         132.346 
        1.36225         107.445         20.6947         131.162 
        1.37447         105.344         20.2621         129.727 
        1.38676         104.708           19.84         128.359 
        1.39907         102.352         19.4293         127.267 
        1.41133         100.982         19.0319         126.234 
        1.42358         99.6285         18.6461         124.957 
        1.43591         98.9574         18.2684         123.582 
        1.44818         97.8707         17.9032         122.565 
        1.46037         96.0044         17.5502         121.357 
        1.47263         94.7006         17.2048         120.435 
        1.48494         93.8341         16.8673         119.149 
        1.49724          92.315         16.5392         117.907 
        1.50952         90.8237         16.2206         116.885 
        1.52178          90.046         15.9108         115.838 
        1.53409         88.9757         15.6078         114.826 
        1.54637          87.193         15.3134         113.778 
        1.55858         86.1723         15.0283         112.693 
        1.57081         84.9296           14.75         111.725 
        1.58313         83.9083         14.4771         110.713 
        1.59544         82.9946         14.2112         109.716 
        1.60767         81.7361         13.9537          108.69 
        1.61994         80.6179         13.7018         107.995 
        1.63225         79.4215         13.4555         106.687 
        1.64452         78.3215          13.216         105.854 
        1.65676         77.2324          12.983         104.947 
          1.669         76.6754         12.7555         104.102 
        1.68133         75.6353         12.5321          103.12 
        1.69363         74.6782         12.3146          102.32 
        1.70585         73.7081         12.1037         101.359 
        1.71809         72.4442         11.8973         100.592 
        1.73038          71.688         11.6951         99.6176 
        1.74268         70.5395         11.4975         98.8108 
        1.75493         69.9641         11.3053         97.9185 
        1.76714         68.7709          11.118         97.1091 
        1.77942         68.3116         10.9341         96.2571 
        1.79173         67.1202         10.7538         95.4412 
        1.80402         66.3971         10.5779         94.7219 
         1.8163         65.5298         10.4061         93.7672 
         1.8286         64.5741         10.2379         93.1212 
         1.8409         63.6921         10.0734         92.2926 
        1.85315         62.7587          9.9132         91.6332 
        1.86537         62.1242         9.75676          90.811 
        1.87765         61.4009         9.60312         89.9412 
        1.88995         60.5239         9.45242          89.303 
        1.90221         59.8487         9.30548         88.5449 
        1.91445         58.7467         9.16191         87.8502 
        1.92674         58.2242         9.02088         87.1381 
        1.93902         57.4892         8.88281         86.3609 
        1.95124         57.0473         8.74837         85.7837 
         1.9635         55.9656         8.61637         84.9369 
        1.97583          55.425         8.48626          84.384 
        1.98812         54.7344         8.35933         83.6277 
        2.00039         53.9105         8.23525          82.963 
        2.01264         53.3169         8.11381         82.2882 
        2.02492         52.5758         7.99464         81.6627 
        2.03717         51.8607         7.87807         80.9363 
        2.04942         51.2354         7.76397         80.3841 
        2.06171         50.5178         7.65175         79.6781 
        2.07397          49.901         7.54199         79.1156 
        2.08629         49.3869         7.43393         78.4206 
        2.09857         48.8258         7.32825         77.8501 
        2.11081         47.7564         7.22505         77.1654 
        2.12309         47.4913          7.1236         76.6169 
        2.13538         46.8579         7.02395         76.0048 
        2.14763         46.3549         6.92654         75.4221 
        2.15986          45.653          6.8312         74.8197 
        2.17214         45.0485         6.73728         74.2905 
        2.18443         44.7351         6.64503         73.6968 
        2.19671          43.891         6.55462         73.0819 
        2.20898         43.6053           6.466         72.5241 
        2.22126         42.9899         6.37892         71.9424 
        2.23354         42.4036         6.29348         71.4456 
         2.2458         41.9841         6.20975         70.9115 
        2.25807         41.5775         6.12747         70.3166 
        2.27035         40.9893         6.04661         69.7891 
        2.28263         40.4075         5.96725         69.2485 
         2.2949         39.9141         5.88936         68.7441 
        2.30718         39.4765         5.81283          68.245 
        2.31946         38.9017         5.73763         67.7518 
        2.33169         38.4716         5.66408         67.2193 
        2.34393         37.8674         5.59171          66.708 
        2.35622         37.6016         5.52037         66.2078 
        2.36847         37.1198         5.45047         65.7262 
        2.38076         36.7753         5.38158         65.2356 
        2.39305         36.2855          5.3139         64.7613 
        2.40534         35.9153         5.24737         64.2208 
        2.41762         35.5066           5.182         63.7401 
        2.42989          34.935         5.11784         63.3252 
        2.44216         34.7141         5.05477         62.8389 
         2.4544          34.344         4.99291         62.3863 
        2.46667         33.8222         4.93194         61.8882 
        2.47897         33.4919         4.87185         61.4586 
        2.49124         33.0462         4.81292         61.0117 
        2.50349         32.6281         4.75505         60.5764 
        2.51578         32.2896         4.69796         60.1592 
        2.52805         32.1711         4.64191         59.6982 
        2.54029         31.7155         4.58692         59.2679 
        2.55257         31.2833         4.53265         58.8556 
        2.56487         30.9645         4.47915         58.4416 
        2.57716           30.64         4.42659         58.0522 
        2.58942          30.263           4.375         57.6133 
        2.60167         29.8592         4.32427         57.1725 
        2.61395          29.639         4.27428         56.7874 
        2.62624         29.4054         4.22501         56.3832 
        2.63849          29.096         4.17667         55.9884 
        2.65073         28.7616         4.12913         55.5653 
        2.66302         28.4791         4.08217         55.1964 
         2.6753         28.1386         4.03597         54.8118 
        2.68756         27.7852         3.99057           54.41 
        2.69983         27.5698         3.94585         54.0471 
        2.71213          27.241         3.90171         53.6858 
        2.72441         27.1115         3.85833         53.2866 
        2.73665         26.8267         3.81571         52.9155 
         2.7489         26.6283         3.77376         52.5575 
        2.76118         26.3078         3.73232         52.1841 
        2.77349         26.1156         3.69139         51.8424 
        2.78576         25.9294         3.65125         51.4705 
        2.79802         25.6084         3.61172         51.1228 
        2.81031         25.3896         3.57268         50.7853 
        2.82259         25.1694         3.53424          50.419 
        2.83483         24.9314          3.4965         50.0735 
         2.8471         24.6935         3.45925          49.743 
         2.8594         24.5189         3.42242         49.4232 
         2.8717         24.2461         3.38614         49.0786 
        2.88396         24.1353         3.35053         48.7273 
        2.89619         23.9403         3.31549         48.4035 
        2.90847         23.7401         3.28082         48.0821 
        2.92072         23.6471          3.2467         47.7619 
        2.93299          23.515         3.21305         47.4305 
        2.94526         23.2817         3.17985         47.1294 
        2.95753         23.1283         3.14713         46.8319 
        2.96982         23.0985         3.11481         46.5155 
        2.98209         22.8836         3.08301         46.2082 
        2.99436         22.6939         3.05163         45.8985 
        3.00666          22.678         3.02064         45.5964 
        3.01894         22.5333         2.99013         45.2789 
        3.03119         22.3757         2.96009         44.9826 
        3.04345         22.2849         2.93046         44.7029 
        3.05573         22.2193         2.90117         44.4146 
          3.068           22.15         2.87232         44.1208 
        3.08026         22.0521         2.84389           43.83 
        3.09254         21.9488         2.81579         43.5524 
        3.10483         21.9652         2.78806         43.2762 
         3.1171         21.8673         2.76075         42.9953 
        3.12933         21.8807         2.73388         42.7179 
        3.14159         21.7801         2.70731         42.4396 
