# k  (h/Mpc)    Pcb(k)  (Mpc/h)^3    Pcb_linear(k) (Mpc/h)^3    Pcb_NL(k) (Mpc/h)^3   ShotnoiseSubtracted = false
      0.0156606         3391.71         3394.66         3377.55 
      0.0273761         2944.52         2937.24          2928.2 
      0.0384619         2237.57         2213.63          2209.9 
      0.0498308         1752.34         1741.49         1739.09 
      0.0625568         1478.49         1480.23         1476.83 
      0.0751274         1282.39          1257.7         1251.77 
      0.0867833          1015.4         1012.63         1011.76 
      0.0984825         825.078         801.394         805.034 
       0.111151         691.749         669.165         672.741 
       0.123864         621.439         603.063         605.877 
       0.135742         558.707          542.31         545.141 
        0.14762         475.035         463.707         470.367 
       0.160083         394.378         386.529         394.094 
       0.172465         348.094         337.368         346.497 
       0.184281         322.697         311.015         320.718 
       0.196406         294.274         287.222         294.748 
       0.209011         265.768         255.555         264.042 
       0.221538         236.545         223.332         235.198 
       0.233611         213.709         199.825         213.026 
       0.245665         200.789         184.431         196.185 
       0.258103         181.242          171.69         183.399 
       0.270422         170.034         157.763         169.175 
       0.282519         154.348         143.179         155.315 
       0.294636         147.974         130.452         143.255 
       0.306978         130.723          120.69          133.94 
       0.319417         124.858         112.838         125.635 
        0.33169          116.13         105.323          117.69 
       0.343948         110.446         97.5876         110.241 
       0.356249         101.553         90.3335         104.053 
       0.368458         97.1018         84.2576         97.0238 
        0.38068         91.2265         79.1764         91.8227 
       0.392856         85.1716         74.5381         87.2826 
       0.405069         80.6787         70.0027           82.47 
       0.417459         75.8358         65.6112         78.0543 
       0.429752         72.6991         61.6691         74.1562 
       0.441978         69.3049         58.2092         71.1131 
       0.454294         64.4683         55.0672         67.3211 
        0.46658         64.1213         52.1192          64.361 
       0.478753         59.6293         49.3381         61.6148 
       0.490964         57.6743         46.7258         59.1108 
       0.503334         55.2808         44.3145         56.4432 
       0.515665         52.6934         42.1158         54.6346 
       0.527909         50.4665          40.086         51.7786 
       0.540159         48.4873         38.1657         49.9013 
        0.55248         45.4417         36.3436         47.8657 
       0.564743         44.7731         34.6563         46.3131 
        0.57686         43.3265         33.1057          44.611 
       0.589077         40.8846         31.6418         43.2132 
       0.601441         39.5509           30.25         41.7035 
        0.61382         38.2329         28.9376         40.1042 
       0.626067         36.6823          27.713         38.9294 
       0.638306         35.5215         26.5597         37.5504 
       0.650632         34.4884         25.4671         36.3335 
       0.662899         33.2083         24.4432         35.1341 
       0.675076         31.7279         23.4837         34.0614 
       0.687267         31.3229         22.5744         33.0057 
       0.699615         30.2148         21.7019         32.1524 
       0.711937          28.768         20.8772         31.0742 
       0.724148         28.6341         20.1022         30.3657 
       0.736433         26.9777         19.3628         29.4264 
       0.748747          26.565         18.6595         28.6268 
       0.761037         25.8656         17.9928         27.9188 
       0.773197         25.0781         17.3656          27.234 
       0.785376         24.1108         16.7675         26.5204 
       0.797761         23.6635         16.1884         25.8689 
       0.810096          23.129          15.639         25.2326 
       0.822371         22.5014         15.1177         24.5333 
       0.834626         21.8105         14.6211         24.0513 
       0.846916         21.1858         14.1456         23.4397 
       0.859215          20.445         13.6912          22.905 
       0.871383         20.1102         13.2613         22.4442 
        0.88363         19.5884         12.8474         21.9474 
       0.895928         19.1908         12.4497         21.3952 
       0.908253          18.742         12.0682         21.0018 
       0.920535         18.2314          11.704         20.5234 
       0.932774         17.9443         11.3562         20.0474 
        0.94508         17.4079         11.0209         19.6598 
       0.957324         17.0881         10.7008         19.2882 
        0.96953         16.5349         10.3944          18.873 
       0.981769         16.3925         10.0993         18.5326 
       0.994071          15.928         9.81437         18.1454 
         1.0064         15.4886         9.53995         17.8193 
        1.01868         15.1903         9.27688         17.4992 
        1.03092         15.0044         9.02495         17.1497 
         1.0432         14.4797         8.78151         16.8124 
        1.05553         14.2526         8.54615         16.5887 
        1.06777         13.8391         8.32115         16.2219 
           1.08         13.5914         8.10451         15.9597 
        1.09227         13.3359         7.89492         15.7046 
         1.1046         13.1226         7.69199         15.3968 
         1.1169         12.7679         7.49658         15.1339 
        1.12915         12.7144         7.30896         14.9307 
        1.14142         12.2313         7.12738         14.6548 
        1.15365         12.1366         6.95255         14.4153 
        1.16585         11.9863         6.78406         14.2188 
        1.17807         11.6269         6.62097         13.9431 
        1.19037          11.469         6.46219         13.7645 
        1.20276         11.2218         6.30755         13.5328 
        1.21504         11.0668         6.15922         13.3495 
        1.22728         10.7849         6.01629          13.128 
        1.23954         10.6354         5.87757         12.9486 
        1.25184          10.429         5.74298         12.7598 
        1.26414         10.2889         5.61255         12.5506 
        1.27632         10.0396         5.48736         12.3754 
         1.2886         9.93435         5.36511         12.2113 
        1.30093         9.72666         5.24617         12.0816 
        1.31316          9.5592         5.13171          11.877 
        1.32541         9.41505         5.02066         11.7521 
        1.33772         9.23368         4.91228         11.5651 
        1.35005         9.12832         4.80704         11.4268 
        1.36225         8.95293         4.70596         11.2556 
        1.37447         8.80423         4.60761         11.1228 
        1.38676         8.66166         4.51162         10.9897 
        1.39907         8.50829         4.41821         10.8419 
        1.41133         8.38992         4.32786          10.709 
        1.42358         8.22672         4.24012         10.5635 
        1.43591         8.14142         4.15423         10.4589 
        1.44818         7.96653         4.07118         10.3271 
        1.46037         7.86932         3.99091          10.189 
        1.47263         7.74186         3.91236          10.088 
        1.48494         7.67001         3.83563         9.94331 
        1.49724         7.51954         3.76102         9.84659 
        1.50952         7.48341         3.68856         9.73625 
        1.52178         7.32214         3.61811         9.61578 
        1.53409         7.18979         3.54922          9.5023 
        1.54637         7.12608         3.48227         9.38421 
        1.55858         7.04571         3.41743          9.2887 
        1.57081         6.88068         3.35415         9.20239 
        1.58313          6.8329         3.29209         9.09682 
        1.59544         6.69201         3.23163          9.0072 
        1.60767         6.62442         3.17308         8.89928 
        1.61994         6.52924         3.11578         8.81904 
        1.63225         6.43715         3.05978         8.72478 
        1.64452         6.33307         3.00531         8.63412 
        1.65676         6.24997         2.95234         8.54502 
          1.669         6.20393         2.90061         8.45466 
        1.68133         6.06348         2.84979         8.36679 
        1.69363         6.01017         2.80034         8.29414 
        1.70585         5.92778         2.75238          8.2067 
        1.71809         5.86035         2.70545         8.13105 
        1.73038         5.80123         2.65946         8.05443 
        1.74268          5.7164         2.61452         7.97764 
        1.75493         5.63116         2.57082         7.88727 
        1.76714         5.60611         2.52824         7.82518 
        1.77942         5.51469          2.4864         7.74214 
        1.79173         5.43708         2.44541         7.67002 
        1.80402          5.3896         2.40542         7.60195 
         1.8163         5.33148         2.36635          7.5413 
         1.8286         5.24496         2.32809         7.47268 
         1.8409         5.17664          2.2907         7.41101 
        1.85315         5.11897         2.25426         7.33219 
        1.86537         5.08267         2.21869         7.27318 
        1.87765         5.00599         2.18375         7.20525 
        1.88995         4.92674         2.14948         7.14917 
        1.90221         4.88931         2.11607         7.07935 
        1.91445         4.82682         2.08342         7.03514 
        1.92674         4.79089         2.05135         6.96037 
        1.93902         4.72949         2.01995         6.90592 
        1.95124          4.6716         1.98938         6.83981 
         1.9635         4.63363         1.95936         6.79507 
        1.97583         4.57882         1.92977         6.73577 
        1.98812         4.51841         1.90091         6.67078 
        2.00039         4.47065          1.8727         6.62912 
        2.01264         4.42843         1.84508         6.57718 
        2.02492         4.38549         1.81798         6.52055 
        2.03717         4.33173         1.79147         6.46813 
        2.04942         4.26978         1.76553         6.42333 
        2.06171         4.23645         1.74001         6.37025 
        2.07397          4.1995         1.71505         6.31959 
        2.08629         4.15558         1.69048         6.27451 
        2.09857         4.10589         1.66644         6.22438 
        2.11081          4.0653         1.64298         6.18255 
        2.12309         4.02292         1.61991          6.1266 
        2.13538         3.98317         1.59725         6.09001 
        2.14763         3.94837         1.57509         6.04199 
        2.15986          3.9168         1.55342         5.99842 
        2.17214         3.86836         1.53206         5.94712 
        2.18443         3.83983         1.51108           5.907 
        2.19671         3.78918         1.49052          5.8651 
        2.20898         3.75741         1.47037          5.8258 
        2.22126           3.728         1.45057         5.78113 
        2.23354         3.68572         1.43114         5.73672 
         2.2458         3.66146          1.4121         5.69395 
        2.25807         3.62392         1.39339         5.65966 
        2.27035         3.58818           1.375         5.62308 
        2.28263         3.55719         1.35695         5.58169 
         2.2949         3.52736         1.33924         5.54763 
        2.30718         3.49519         1.32184         5.51636 
        2.31946         3.46991         1.30474         5.47733 
        2.33169         3.43306         1.28801         5.43521 
        2.34393         3.41712         1.27155         5.39948 
        2.35622         3.38904         1.25533         5.36137 
        2.36847         3.35151         1.23944         5.32663 
        2.38076         3.33301         1.22377         5.29016 
        2.39305         3.29258         1.20838         5.25274 
        2.40534         3.27015         1.19325         5.22035 
        2.41762         3.23037         1.17839         5.19272 
        2.42989         3.21972          1.1638         5.15663 
        2.44216         3.20155         1.14945         5.12595 
         2.4544         3.16327         1.13539         5.09127 
        2.46667         3.14674         1.12152         5.06008 
        2.47897         3.11603         1.10786         5.02743 
        2.49124         3.08829         1.09446         4.99567 
        2.50349         3.07594          1.0813          4.9685 
        2.51578         3.03991         1.06832         4.93482 
        2.52805         3.02468         1.05557         4.90457 
        2.54029         3.00505         1.04306          4.8754 
        2.55257         2.98748         1.03072         4.84789 
        2.56487         2.96194         1.01856         4.81382 
        2.57716          2.9543         1.00661         4.78573 
        2.58942         2.91879        0.994874         4.75854 
        2.60167         2.90353         0.98334         4.72823 
        2.61395         2.87511        0.971971         4.70258 
        2.62624         2.87448        0.960766         4.67688 
        2.63849         2.84526        0.949774         4.64555 
        2.65073         2.82635        0.938964          4.6179 
        2.66302         2.81175        0.928285         4.59229 
         2.6753         2.80125        0.917779         4.56591 
        2.68756          2.7721        0.907456         4.54145 
        2.69983         2.75981        0.897285          4.5123 
        2.71213         2.75366        0.887249         4.48657 
        2.72441         2.73615        0.877384         4.46213 
        2.73665         2.71837        0.867693         4.43639 
         2.7489         2.69794        0.858154         4.41465 
        2.76118         2.68513        0.848729          4.3943 
        2.77349         2.68202        0.839423         4.36539 
        2.78576          2.6662        0.830293          4.3407 
        2.79802         2.65901        0.821304         4.31887 
        2.81031         2.63975        0.812427         4.29406 
        2.82259         2.62777        0.803685         4.27026 
        2.83483         2.62426        0.795104         4.24812 
         2.8471         2.60831        0.786633         4.22516 
         2.8594         2.60104        0.778258         4.20436 
         2.8717         2.58926        0.770009         4.17965 
        2.88396         2.58305         0.76191         4.15602 
        2.89619         2.56092        0.753942         4.13593 
        2.90847         2.56014        0.746058         4.11079 
        2.92072         2.55787          0.7383         4.09111 
        2.93299         2.55063        0.730648         4.06993 
        2.94526         2.55019        0.723098          4.0492 
        2.95753         2.53164        0.715657         4.02831 
        2.96982         2.52403        0.708308         4.00719 
        2.98209         2.52703        0.701077          3.9875 
        2.99436         2.51718        0.693941         3.96664 
        3.00666         2.52395        0.686893         3.94716 
        3.01894         2.51412        0.679956         3.92368 
        3.03119         2.51747        0.673124         3.90468 
        3.04345         2.51017        0.666386         3.88743 
        3.05573         2.51054        0.659726         3.86767 
          3.068         2.51067        0.653165         3.84888 
        3.08026         2.51618          0.6467         3.82902 
        3.09254         2.51251         0.64031         3.80885 
        3.10483         2.51559        0.634006         3.79103 
         3.1171         2.51613        0.627795         3.77368 
        3.12933          2.5226        0.621684         3.75378 
        3.14159         2.51872        0.615641         3.73323 
