# k  (h/Mpc)    P(k)  (Mpc/h)^3    P_linear(k)  (Mpc/h)^3     P_NL(k)  ShotnoiseSubtracted = false
      0.0156606         11664.2         11630.2         11557.1 
      0.0273761         10040.7         10041.6         9975.68 
      0.0384619         7611.19         7559.89         7509.07 
      0.0498308          5911.3         5943.79         5895.36 
      0.0625568         4988.32         5049.98         5004.59 
      0.0751274         4398.54         4289.69         4223.56 
      0.0867833         3434.75         3453.27         3435.68 
      0.0984825         2852.51         2732.58         2757.28 
       0.111151         2415.81          2281.5         2308.34 
       0.123864         2168.55         2055.99         2078.42 
       0.135742         1962.48         1848.78         1871.78 
        0.14762         1689.21         1580.75         1639.54 
       0.160083         1411.01         1317.61          1386.7 
       0.172465         1256.97            1150         1236.48 
       0.184281         1155.58         1060.15         1149.64 
       0.196406         1064.98         979.034          1054.1 
       0.209011          980.99         871.079         951.143 
       0.221538         884.298         761.233          872.18 
       0.233611         824.345         681.101         805.773 
       0.245665         761.208         628.626         741.377 
       0.258103         721.154         585.194         697.176 
       0.270422         655.975         537.722         649.585 
       0.282519         605.177          488.01         605.541 
       0.294636         599.388         444.629         567.996 
       0.306978         534.691         411.356         539.465 
       0.319417         515.299         384.593         507.371 
        0.33169         484.857         358.975         477.532 
       0.343948         462.062          332.61         458.009 
       0.356249          432.83         307.885          437.72 
       0.368458         419.774         287.175         413.169 
        0.38068         402.181         269.858         394.488 
       0.392856         377.332         254.048         378.204 
       0.405069         362.264         238.589         365.144 
       0.417459         346.358         223.622         346.404 
       0.429752         334.945         210.186         333.429 
       0.441978         323.975         198.393         323.124 
       0.454294         304.038         187.684         308.247 
        0.46658         301.789         177.636         299.619 
       0.478753         288.997         168.157          289.03 
       0.490964         279.281         159.253         278.835 
       0.503334         263.551         151.035         270.736 
       0.515665         260.794         143.541         264.462 
       0.527909         252.653         136.623         255.366 
       0.540159         245.519         130.077         248.028 
        0.55248         240.542         123.867         240.553 
       0.564743         234.517         118.117         235.301 
        0.57686         226.117         112.832         227.931 
       0.589077         217.132         107.843         222.974 
       0.601441         213.887         103.099          217.54 
        0.61382         211.542         98.6258          212.21 
       0.626067         206.024         94.4519         207.155 
       0.638306         196.647         90.5215         202.948 
       0.650632         191.514         86.7975         196.474 
       0.662899         191.267         83.3078           193.1 
       0.675076         184.286         80.0374         188.779 
       0.687267         179.553         76.9384         184.638 
       0.699615         176.016         73.9648         180.952 
       0.711937         171.858         71.1538          177.26 
       0.724148         168.637         68.5126         174.659 
       0.736433         164.558         65.9925         170.625 
       0.748747         160.945         63.5954         167.142 
       0.761037         158.509         61.3232         163.732 
       0.773197         155.257         59.1855         161.861 
       0.785376         153.407         57.1472         158.199 
       0.797761         150.188         55.1735         156.179 
       0.810096         146.685         53.3007         153.158 
       0.822371         142.009          51.524          150.58 
       0.834626         140.308         49.8316         148.008 
       0.846916         138.722         48.2112         145.778 
       0.859215         136.976         46.6623         143.362 
       0.871383         134.178         45.1972         140.956 
        0.88363         131.703         43.7866         139.299 
       0.895928         129.107         42.4311         137.311 
       0.908253         125.651         41.1308         134.779 
       0.920535          125.07         39.8897         133.067 
       0.932774         121.403         38.7042         130.819 
        0.94508         120.453         37.5613         129.159 
       0.957324         119.068         36.4703         127.324 
        0.96953         118.416         35.4262         125.251 
       0.981769         114.635         34.4205         124.103 
       0.994071          113.88         33.4493         122.326 
         1.0064         111.134          32.514         120.526 
        1.01868         110.098         31.6174         119.148 
        1.03092         108.135         30.7588         117.672 
         1.0432         106.281         29.9291         116.112 
        1.05553         103.807         29.1269         114.966 
        1.06777         103.632         28.3601         113.632 
           1.08         101.584         27.6217         112.116 
        1.09227         100.172         26.9074         110.784 
         1.1046         98.4173         26.2158         109.419 
         1.1169         97.2703         25.5498         107.923 
        1.12915         95.8721         24.9103         106.798 
        1.14142          94.287         24.2915         105.466 
        1.15365         92.4801         23.6956         104.287 
        1.16585         91.3881         23.1214         103.034 
        1.17807         89.9492         22.5655         102.126 
        1.19037         89.7799         22.0244         101.056 
        1.20276         87.8018         21.4973         99.8533 
        1.21504         87.1793         20.9918         98.6718 
        1.22728         85.2656         20.5047         97.6767 
        1.23954         84.6218         20.0319         96.5651 
        1.25184         82.9333         19.5731         95.6526 
        1.26414         81.8619         19.1286         94.6712 
        1.27632         81.0666         18.7019         94.0081 
         1.2886         79.7317         18.2853          92.663 
        1.30093         78.5958         17.8799         91.6233 
        1.31316         77.8015         17.4898         90.9351 
        1.32541         77.0356         17.1113         90.0407 
        1.33772         75.8327          16.742         89.1085 
        1.35005         75.1374         16.3833         88.2253 
        1.36225         73.9732         16.0388          87.354 
        1.37447         72.3598         15.7036         86.4235 
        1.38676         72.3999         15.3764         85.4897 
        1.39907         70.9791         15.0581         84.8749 
        1.41133         69.7507         14.7501         84.2135 
        1.42358         68.9827         14.4511         83.1705 
        1.43591         68.4875         14.1584         82.4351 
        1.44818         67.5024         13.8753          81.601 
        1.46037         66.6596         13.6018         80.9749 
        1.47263         65.6462          13.334          80.318 
        1.48494         64.9647         13.0725         79.5011 
        1.49724         63.9192         12.8183         78.6946 
        1.50952         63.4456         12.5713          77.949 
        1.52178         62.6105         12.3312         77.3514 
        1.53409         62.0675         12.0964         76.6838 
        1.54637         60.5801         11.8682         75.9339 
        1.55858         59.9912         11.6472         75.2073 
        1.57081         59.5163         11.4316         74.6662 
        1.58313         58.5445           11.22         74.0487 
        1.59544         57.8009          11.014         73.3121 
        1.60767         57.2286         10.8144         72.7064 
        1.61994         56.3562         10.6191         72.1779 
        1.63225         55.6504         10.4283          71.388 
        1.64452           55.05         10.2426          70.887 
        1.65676         54.2294         10.0621         70.2106 
          1.669         53.8593         9.88579         69.6842 
        1.68133         53.2898          9.7126         69.0419 
        1.69363         52.3604         9.54406         68.5562 
        1.70585         52.0598         9.38061         67.9695 
        1.71809         50.9596         9.22066          67.433 
        1.73038          50.585         9.06393          66.852 
        1.74268         49.8758         8.91076         66.2869 
        1.75493          49.354         8.76183         65.7324 
        1.76714         48.7437         8.61669         65.1782 
        1.77942         48.4503         8.47411         64.6794 
        1.79173         47.6036         8.33439         64.0812 
        1.80402         47.1696         8.19811         63.6632 
         1.8163         46.5481         8.06496         63.0576 
         1.8286         45.8925         7.93454          62.688 
         1.8409         45.3319         7.80712         62.0651 
        1.85315         44.8433         7.68293         61.7111 
        1.86537         44.3165         7.56168         61.1883 
        1.87765          43.895         7.44261         60.6202 
        1.88995         43.2903         7.32581         60.1311 
        1.90221         42.9333         7.21194         59.6624 
        1.91445         42.2542         7.10067         59.2697 
        1.92674         41.8354         6.99136         58.7544 
        1.93902         41.3774         6.88436         58.2823 
        1.95124         40.9684         6.78016         57.9134 
         1.9635         40.2978         6.67785         57.4061 
        1.97583         39.9405         6.57702         57.0389 
        1.98812         39.2784         6.47865         56.5428 
        2.00039         39.0533         6.38248         56.0982 
        2.01264         38.4263         6.28836         55.7248 
        2.02492          38.103         6.19601         55.3043 
        2.03717         37.5475         6.10566         54.8381 
        2.04942         37.1061         6.01723         54.4436 
        2.06171         36.7686         5.93026         53.9843 
        2.07397         36.2552         5.84519          53.635 
        2.08629         35.8694         5.76145          53.203 
        2.09857         35.5481         5.67954         52.8508 
        2.11081         35.0365         5.59956         52.4171 
        2.12309         34.7219         5.52093          52.019 
        2.13538         34.2341          5.4437         51.6856 
        2.14763         33.9264         5.36821         51.2855 
        2.15986         33.7229         5.29432          50.881 
        2.17214         33.1087         5.22152          50.584 
        2.18443         32.8543         5.15003         50.1299 
        2.19671         32.3504         5.07996         49.7713 
        2.20898         31.9278         5.01127         49.3961 
        2.22126         31.7779         4.94379         49.0295 
        2.23354         31.3642         4.87757         48.7345 
         2.2458         31.0375         4.81268         48.3547 
        2.25807         30.5204         4.74891          47.984 
        2.27035         30.2269         4.68624         47.6598 
        2.28263         29.8806         4.62474         47.3285 
         2.2949         29.6268         4.56437         46.9933 
        2.30718         29.3124         4.50506          46.639 
        2.31946         28.9988         4.44677         46.3127 
        2.33169         28.7052         4.38977         45.9706 
        2.34393         28.3139         4.33368         45.6182 
        2.35622          27.993         4.27839         45.3533 
        2.36847         27.6773         4.22422          44.983 
        2.38076         27.4405         4.17083         44.7153 
        2.39305         27.1141         4.11837          44.405 
        2.40534         26.8604         4.06682         44.0291 
        2.41762         26.4885         4.01615         43.7514 
        2.42989         26.3092         3.96642         43.4457 
        2.44216         25.9881         3.91755         43.1511 
         2.4544         25.7275          3.8696         42.8631 
        2.46667         25.3766         3.82235         42.5477 
        2.47897         25.1774         3.77578         42.2692 
        2.49124         24.9554         3.73011         41.9662 
        2.50349         24.6347         3.68526         41.7056 
        2.51578         24.2976         3.64101         41.4221 
        2.52805         24.1383         3.59757         41.1176 
        2.54029         23.9399         3.55495         40.8399 
        2.55257          23.688         3.51289         40.5598 
        2.56487         23.4714         3.47143         40.2859 
        2.57716         23.2059          3.4307          39.999 
        2.58942         22.9674         3.39071         39.7601 
        2.60167         22.7414          3.3514          39.467 
        2.61395         22.5308         3.31265          39.201 
        2.62624         22.3396         3.27446         38.9527 
        2.63849         22.1663           3.237         38.6871 
        2.65073          21.892         3.20016         38.4102 
        2.66302         21.6173         3.16376         38.1767 
         2.6753          21.505         3.12795         37.9255 
        2.68756          21.341         3.09277         37.6924 
        2.69983         21.1481         3.05811         37.4134 
        2.71213         20.9544          3.0239         37.1737 
        2.72441         20.7891         2.99028         36.9103 
        2.73665         20.5718         2.95725         36.6679 
         2.7489         20.3657         2.92474         36.4328 
        2.76118         20.2425         2.89262         36.1694 
        2.77349         20.1331          2.8609         35.9564 
        2.78576         19.9023         2.82979         35.7305 
        2.79802          19.703         2.79915         35.4896 
        2.81031         19.6018          2.7689         35.2764 
        2.82259          19.502          2.7391         35.0414 
        2.83483         19.2514         2.70986         34.7981 
         2.8471         19.1991         2.68099          34.565 
         2.8594         19.0345         2.65244         34.3531 
         2.8717         18.8573         2.62433          34.123 
        2.88396         18.6933         2.59673         33.8943 
        2.89619         18.6614         2.56957         33.6871 
        2.90847          18.518          2.5427         33.4689 
        2.92072         18.3661         2.51626         33.2674 
        2.93299         18.3091         2.49018         33.0616 
        2.94526         18.2179         2.46445         32.8455 
        2.95753         18.1234         2.43909         32.6338 
        2.96982         18.0581         2.41404         32.4323 
        2.98209         17.9083          2.3894         32.2315 
        2.99436         17.8807         2.36508         32.0274 
        3.00666         17.7565         2.34105         31.8191 
        3.01894         17.6988         2.31741         31.6098 
        3.03119          17.552         2.29413         31.4114 
        3.04345         17.5897         2.27116         31.2234 
        3.05573         17.5034         2.24847         31.0288 
          3.068         17.4292         2.22611         30.8226 
        3.08026         17.4183         2.20407         30.6338 
        3.09254         17.3416         2.18229         30.4506 
        3.10483         17.3068         2.16081         30.2651 
         3.1171         17.3162         2.13964         30.0801 
        3.12933         17.2577         2.11881         29.8932 
        3.14159         17.1913         2.09822         29.7025 
