# k  (h/Mpc)    Pcb(k)  (Mpc/h)^3    Pcb_linear(k) (Mpc/h)^3    Pcb_NL(k) (Mpc/h)^3   ShotnoiseSubtracted = false
      0.0156606          1622.7         1623.53         1615.81 
      0.0273761         1412.05         1405.12         1401.81 
      0.0384619         1072.86         1059.07         1058.44 
      0.0498308         842.451         833.228         833.248 
      0.0625568         710.875         708.249         707.543 
      0.0751274         612.341         601.788         600.233 
      0.0867833         487.606         484.532         484.378 
      0.0984825         393.208          383.46         384.549 
       0.111151         328.887         320.191         321.219 
       0.123864         295.359         288.563          289.23 
       0.135742         265.129         259.494         260.108 
        0.14762         225.227         221.883         223.473 
       0.160083         187.191         184.954          186.82 
       0.172465         164.424          161.43         163.643 
       0.184281         152.338         148.821         151.145 
       0.196406         139.103         137.436         139.182 
       0.209011         124.887         122.284           124.3 
       0.221538         110.444         106.865         109.713 
       0.233611         99.1741         95.6164         98.7741 
       0.245665         92.8885         88.2505          91.046 
       0.258103         83.8271         82.1538         84.9301 
       0.270422         78.5714           75.49         78.1653 
       0.282519         71.2605         68.5115         71.3997 
       0.294636          67.086         62.4217         65.4666 
       0.306978         59.7151         57.7506         60.8878 
       0.319417         56.7929         53.9935         57.0338 
        0.33169         52.7793         50.3972         53.3314 
       0.343948         49.8163          46.696         49.6445 
       0.356249         45.5969         43.2249         46.5246 
       0.368458         43.2693         40.3175         43.3007 
        0.38068         40.4127         37.8862         40.8506 
       0.392856         37.8978         35.6667         38.6595 
       0.405069         35.8019         33.4965         36.3612 
       0.417459         33.2278         31.3952         34.3403 
       0.429752         31.7174         29.5089          32.434 
       0.441978         30.1434         27.8533         30.9148 
       0.454294         28.1016         26.3499         29.2478 
        0.46658         27.5534         24.9393         27.7989 
       0.478753         25.6865         23.6085         26.4675 
       0.490964         24.7202         22.3585         25.3163 
       0.503334         23.6141         21.2047         24.0309 
       0.515665         22.2885         20.1526         23.1055 
       0.527909         21.3369         19.1813         21.9102 
       0.540159         20.3177         18.2624         20.9727 
        0.55248         19.0139         17.3905         20.0251 
       0.564743         18.7061         16.5832         19.3184 
        0.57686         17.9796         15.8412         18.5117 
       0.589077         16.8929         15.1408         17.8582 
       0.601441         16.2269         14.4747         17.1495 
        0.61382         15.6069         13.8468         16.4331 
       0.626067         14.9591         13.2608         15.8464 
       0.638306         14.4194         12.7089         15.2349 
       0.650632         14.0279         12.1861         14.7273 
       0.662899         13.3483         11.6962          14.171 
       0.675076         12.7067          11.237         13.6812 
       0.687267         12.4014          10.802         13.1791 
       0.699615         12.0132         10.3845         12.7496 
       0.711937         11.3856         9.98981         12.3469 
       0.724148         11.2608           9.619         11.9595 
       0.736433         10.6293         9.26519         11.5424 
       0.748747         10.3524         8.92865         11.2179 
       0.761037         10.0902         8.60963         10.8698 
       0.773197         9.64893          8.3095         10.5677 
       0.785376          9.3189         8.02334          10.243 
       0.797761         9.04785         7.74623         9.92117 
       0.810096          8.8015         7.48331         9.68172 
       0.822371         8.57443         7.23386         9.36728 
       0.834626         8.28245         6.99625         9.11648 
       0.846916         7.99222         6.76875         8.87508 
       0.859215         7.69015         6.55129         8.64654 
       0.871383         7.49378         6.34559          8.4267 
        0.88363         7.30277         6.14755         8.19737 
       0.895928         7.14272         5.95725         7.97286 
       0.908253         6.92674         5.77469         7.77652 
       0.920535         6.69086         5.60043         7.56948 
       0.932774         6.55254         5.43401         7.35366 
        0.94508         6.33945         5.27354         7.20225 
       0.957324         6.18789         5.12037         7.04835 
        0.96953         5.97164         4.97377         6.87363 
       0.981769         5.84674         4.83258         6.69345 
       0.994071         5.72613         4.69622          6.5537 
         1.0064         5.52627         4.56491         6.40419 
        1.01868         5.38493         4.43903         6.25543 
        1.03092         5.28523         4.31848         6.10602 
         1.0432         5.08847         4.20199         5.97612 
        1.05553         4.99323         4.08937         5.85875 
        1.06777         4.83947          3.9817         5.73645 
           1.08         4.75778         3.87804         5.60708 
        1.09227         4.62533         3.77775         5.48473 
         1.1046         4.51777         3.68065         5.37024 
         1.1169         4.37267         3.58715         5.26297 
        1.12915         4.33629         3.49737         5.17043 
        1.14142         4.18663         3.41048         5.05064 
        1.15365         4.10176         3.32682         4.95837 
        1.16585         4.03437          3.2462          4.8686 
        1.17807         3.94265         3.16816         4.76307 
        1.19037         3.81586         3.09218         4.67181 
        1.20276         3.73741         3.01819         4.57636 
        1.21504          3.6575         2.94721         4.50557 
        1.22728         3.57307         2.87882         4.40917 
        1.23954         3.51091         2.81244         4.34788 
        1.25184         3.42761         2.74804         4.25579 
        1.26414         3.37345         2.68563         4.17255 
        1.27632         3.26614         2.62572         4.11378 
         1.2886         3.22764         2.56723         4.03515 
        1.30093         3.14078         2.51032         3.97448 
        1.31316          3.0546         2.45555         3.89959 
        1.32541         3.01588         2.40241          3.8416 
        1.33772         2.96246         2.35055         3.77147 
        1.35005         2.90259         2.30019         3.71177 
        1.36225         2.84305         2.25182         3.64467 
        1.37447         2.78264         2.20476         3.59532 
        1.38676         2.72266         2.15883         3.52941 
        1.39907         2.66115         2.11413         3.48151 
        1.41133         2.61596          2.0709         3.42537 
        1.42358         2.57852         2.02892         3.36436 
        1.43591         2.53286         1.98781         3.32754 
        1.44818         2.46872         1.94808         3.27302 
        1.46037         2.41577         1.90967         3.21874 
        1.47263         2.37222         1.87208         3.17433 
        1.48494         2.33758         1.83537         3.12691 
        1.49724         2.28714         1.79967         3.07846 
        1.50952         2.27249         1.76499         3.03402 
        1.52178         2.21102         1.73128         2.99547 
        1.53409          2.1668         1.69832         2.94414 
        1.54637         2.12819         1.66628         2.90325 
        1.55858         2.09456         1.63526         2.85787 
        1.57081         2.05838         1.60498         2.82467 
        1.58313         2.01597         1.57528          2.7864 
        1.59544         1.98583         1.54635         2.74951 
        1.60767           1.957         1.51833         2.71067 
        1.61994         1.91329         1.49091         2.67629 
        1.63225         1.88846         1.46412         2.64115 
        1.64452         1.85578         1.43805         2.60343 
        1.65676         1.81593         1.41271         2.57103 
          1.669         1.79314         1.38795         2.53582 
        1.68133         1.75081         1.36364         2.50786 
        1.69363         1.74259         1.33997         2.47429 
        1.70585         1.71157         1.31703          2.4426 
        1.71809          1.6861         1.29457         2.41173 
        1.73038         1.65172         1.27256         2.38111 
        1.74268         1.62192         1.25106         2.35219 
        1.75493          1.6046         1.23015         2.32572 
        1.76714          1.5789         1.20977         2.29214 
        1.77942          1.5506         1.18975         2.26743 
        1.79173         1.52838         1.17014         2.23866 
        1.80402         1.50506           1.151         2.21279 
         1.8163         1.48477         1.13231         2.18656 
         1.8286         1.45434           1.114         2.16599 
         1.8409         1.44239         1.09611         2.13993 
        1.85315         1.42065         1.07867         2.11043 
        1.86537         1.39539         1.06165         2.09052 
        1.87765         1.37858         1.04493         2.06719 
        1.88995         1.35595         1.02854         2.04313 
        1.90221         1.33714         1.01255         2.01958 
        1.91445         1.31605        0.996925         2.00048 
        1.92674         1.29954        0.981579          1.9751 
        1.93902         1.27586        0.966555         1.95193 
        1.95124         1.25836        0.951926         1.93341 
         1.9635          1.2421        0.937563         1.91099 
        1.97583         1.22063        0.923405         1.88993 
        1.98812         1.20621        0.909594          1.8724 
        2.00039         1.18748        0.896093         1.85094 
        2.01264         1.16868        0.882879         1.83441 
        2.02492         1.15864        0.869912         1.81634 
        2.03717         1.14827        0.857227         1.79636 
        2.04942         1.12454        0.844812         1.77585 
        2.06171         1.10976        0.832601         1.75769 
        2.07397         1.09522        0.820658         1.74198 
        2.08629         1.08361          0.8089         1.72575 
        2.09857         1.06659          0.7974         1.70829 
        2.11081         1.05276        0.786172         1.69024 
        2.12309         1.04129        0.775132         1.67597 
        2.13538         1.02804        0.764289         1.65752 
        2.14763         1.01874         0.75369         1.64198 
        2.15986         1.00476        0.743316         1.62832 
        2.17214        0.984271        0.733096         1.60879 
        2.18443        0.975865        0.723058         1.59664 
        2.19671        0.966022         0.71322         1.58175 
        2.20898        0.951858        0.703577          1.5668 
        2.22126        0.939429        0.694102         1.55242 
        2.23354        0.927232        0.684805          1.5378 
         2.2458        0.918845        0.675695         1.52284 
        2.25807        0.904779        0.666742         1.50858 
        2.27035        0.897332        0.657943         1.49614 
        2.28263        0.881223        0.649308         1.48357 
         2.2949        0.873386        0.640832         1.46977 
        2.30718        0.865011        0.632505         1.45743 
        2.31946        0.851835        0.624322         1.44445 
        2.33169        0.842107        0.616319         1.43209 
        2.34393        0.838325        0.608444         1.41974 
        2.35622        0.822989        0.600682         1.40742 
        2.36847        0.816841        0.593076         1.39527 
        2.38076        0.802723         0.58558         1.38316 
        2.39305        0.798988        0.578215         1.37121 
        2.40534        0.787546        0.570977         1.36014 
        2.41762        0.779598        0.563863         1.34785 
        2.42989         0.76967        0.556881         1.33845 
        2.44216        0.764208        0.550019         1.32693 
         2.4544        0.756848        0.543288         1.31622 
        2.46667        0.747152        0.536654         1.30534 
        2.47897        0.739368        0.530115         1.29434 
        2.49124        0.728793        0.523703         1.28389 
        2.50349        0.723371        0.517406          1.2732 
        2.51578        0.716412        0.511194         1.26239 
        2.52805        0.707171        0.505095         1.25309 
        2.54029        0.701552        0.499111         1.24297 
        2.55257        0.693175        0.493206         1.23366 
        2.56487        0.685652        0.487385         1.22461 
        2.57716        0.681214        0.481666         1.21409 
        2.58942        0.676432        0.476052         1.20565 
        2.60167        0.669816        0.470532         1.19599 
        2.61395        0.661868        0.465092         1.18682 
        2.62624        0.656604        0.459731         1.17847 
        2.63849        0.648944        0.454471         1.16913 
        2.65073        0.643153        0.449299         1.16017 
        2.66302        0.638751        0.444189         1.15109 
         2.6753        0.634767        0.439161         1.14311 
        2.68756         0.62767        0.434222          1.1355 
        2.69983        0.622312        0.429355         1.12695 
        2.71213        0.614428        0.424553         1.11886 
        2.72441        0.612127        0.419832         1.11051 
        2.73665        0.608034        0.415195         1.10348 
         2.7489        0.602283         0.41063           1.096 
        2.76118        0.597262        0.406121         1.08678 
        2.77349        0.593693        0.401668          1.0796 
        2.78576        0.590635        0.397299         1.07184 
        2.79802        0.584771        0.392998         1.06381 
        2.81031        0.581041         0.38875         1.05758 
        2.82259        0.577135        0.384567          1.0492 
        2.83483        0.573702        0.380461         1.04224 
         2.8471        0.569069        0.376407         1.03482 
         2.8594        0.566765          0.3724         1.02811 
         2.8717          0.5617        0.368453         1.02182 
        2.88396        0.558074        0.364577         1.01464 
        2.89619        0.555588        0.360765         1.00785 
        2.90847        0.552372        0.356992         1.00135 
        2.92072        0.551404         0.35328        0.994596 
        2.93299        0.545204        0.349618        0.987448 
        2.94526        0.544889        0.346006         0.98127 
        2.95753        0.542876        0.342445        0.975198 
        2.96982         0.54042        0.338929        0.968408 
        2.98209        0.538454        0.335469        0.962033 
        2.99436        0.535622        0.332054        0.955991 
        3.00666        0.535055        0.328681        0.950058 
        3.01894        0.534034        0.325362        0.944401 
        3.03119         0.53078        0.322093        0.937907 
        3.04345        0.528827        0.318869        0.931951 
        3.05573        0.528696        0.315682        0.926933 
          3.068        0.527082        0.312543        0.921139 
        3.08026        0.527354        0.309449        0.914968 
        3.09254        0.525679        0.306391        0.908879 
        3.10483        0.524055        0.303375        0.903586 
         3.1171        0.525262        0.300403        0.898517 
        3.12933        0.524747        0.297478        0.892917 
        3.14159        0.524911        0.294587        0.887442 
