# k  (h/Mpc)    P(k)  (Mpc/h)^3    P_linear(k)  (Mpc/h)^3     P_NL(k)  ShotnoiseSubtracted = false
      0.0156606         14515.9         14739.2         14639.4 
      0.0273761         12472.6         12724.4         12623.6 
      0.0384619          9446.6         9578.81         9496.08 
      0.0498308         7322.33         7530.69         7449.78 
      0.0625568         6180.72         6397.97         6323.89 
      0.0751274         5469.17         5434.58         5328.42 
      0.0867833         4258.49         4374.83          4344.5 
      0.0984825          3556.7         3461.77         3496.84 
       0.111151         3021.79         2890.28            2930 
       0.123864          2711.2         2604.57         2637.38 
       0.135742         2458.87         2342.05         2375.49 
        0.14762         2124.89          2002.5         2090.09 
       0.160083         1782.83         1669.15         1773.88 
       0.172465         1589.69         1456.82          1588.9 
       0.184281         1455.35         1342.99         1478.08 
       0.196406         1349.94         1240.23          1356.6 
       0.209011         1250.03         1103.47         1225.98 
       0.221538          1127.8         964.315         1132.27 
       0.233611         1061.48         862.804         1051.74 
       0.245665         973.064         796.329         968.466 
       0.258103         937.035         741.309         912.051 
       0.270422         844.711         681.172         852.355 
       0.282519         785.379         618.198         798.658 
       0.294636         778.047         563.244         752.049 
       0.306978         698.913         521.093         716.797 
       0.319417         676.662          487.19         674.678 
        0.33169         637.687         454.738         636.086 
       0.343948         607.991          421.34         613.142 
       0.356249         571.535         390.019         587.704 
       0.368458         554.375         363.784         556.812 
        0.38068         535.139         341.847          533.04 
       0.392856         504.177          321.82         512.029 
       0.405069         483.082         302.236         495.911 
       0.417459         463.096         283.276         472.594 
       0.429752         450.763         266.256          455.45 
       0.441978         436.022         251.317          442.27 
       0.454294         412.003         237.751         422.883 
        0.46658         405.232         225.023         412.377 
       0.478753         391.996         213.015         398.429 
       0.490964          378.01         201.735         385.157 
       0.503334         357.197         191.326         374.835 
       0.515665          355.63         181.833          366.62 
       0.527909         343.319         173.069         355.886 
       0.540159         334.581         164.777         345.815 
        0.55248         328.096          156.91         336.178 
       0.564743          322.43         149.626         329.661 
        0.57686           310.1         142.931         319.919 
       0.589077         299.018         136.611         312.909 
       0.601441          295.78         130.601          305.69 
        0.61382         291.139         124.935         299.456 
       0.626067         285.734         119.648         292.785 
       0.638306         272.916         114.669         287.179 
       0.650632         267.738         109.952         278.691 
       0.662899         266.106         105.531         274.928 
       0.675076         255.974         101.388         269.414 
       0.687267         249.632         97.4626         263.285 
       0.699615         245.633         93.6957          258.56 
       0.711937         241.305         90.1348         253.852 
       0.724148         234.798         86.7891         250.025 
       0.736433         229.786         83.5967         244.767 
       0.748747         225.641         80.5602         240.033 
       0.761037         221.915         77.6818         235.938 
       0.773197          218.53         74.9738         232.924 
       0.785376          215.79         72.3918          228.42 
       0.797761         210.683         69.8915         225.236 
       0.810096         207.592         67.5192         221.708 
       0.822371         199.836         65.2686         218.023 
       0.834626         199.094         63.1247         214.601 
       0.846916         195.473          61.072         211.485 
       0.859215         194.854         59.1099         208.352 
       0.871383         189.814          57.254         205.015 
        0.88363         187.891         55.4671         202.854 
       0.895928         183.645         53.7501         199.767 
       0.908253         178.632         52.1029         196.351 
       0.920535         178.096         50.5306         193.729 
       0.932774         172.178          49.029         190.942 
        0.94508         170.783         47.5811           188.9 
       0.957324         170.288         46.1991         186.033 
        0.96953         168.169         44.8764         183.237 
       0.981769         162.975         43.6025         181.591 
       0.994071         162.252         42.3722         179.166 
         1.0064         158.394         41.1874         176.434 
        1.01868         156.399         40.0516         174.492 
        1.03092         153.905          38.964         172.554 
         1.0432          150.95         37.9129         170.376 
        1.05553         148.391         36.8968         168.411 
        1.06777         148.233         35.9254         166.685 
           1.08         144.733         34.9901         164.469 
        1.09227         143.167         34.0852         162.824 
         1.1046         140.832         33.2091          160.92 
         1.1169         138.994         32.3654         158.739 
        1.12915         136.796         31.5554         157.168 
        1.14142         134.688         30.7714         155.127 
        1.15365         132.891         30.0166         153.494 
        1.16585          131.04         29.2892         151.513 
        1.17807         129.154          28.585          150.43 
        1.19037          128.56         27.8995         148.837 
        1.20276          125.94         27.2319         147.023 
        1.21504          124.45         26.5915         145.428 
        1.22728         121.994         25.9744           143.7 
        1.23954         121.293         25.3755         142.466 
        1.25184         118.793         24.7944         140.886 
        1.26414         117.258         24.2313         139.424 
        1.27632         116.632         23.6908         138.697 
         1.2886         114.473         23.1631         136.666 
        1.30093         111.794         22.6496         135.211 
        1.31316          111.46         22.1554         133.834 
        1.32541         109.836         21.6759         132.801 
        1.33772         108.655          21.208         131.376 
        1.35005         107.316         20.7537         129.933 
        1.36225         105.996         20.3173          128.77 
        1.37447         103.924         19.8926         127.361 
        1.38676         103.417         19.4782         126.018 
        1.39907         101.089         19.0749         124.946 
        1.41133         99.7678         18.6849         123.932 
        1.42358         98.4947         18.3061         122.678 
        1.43591         97.8779         17.9352         121.328 
        1.44818         96.8021         17.5767          120.33 
        1.46037         95.0118         17.2301         119.144 
        1.47263         93.6882          16.891         118.239 
        1.48494         92.9315         16.5597         116.976 
        1.49724         91.4247         16.2376         115.757 
        1.50952         90.0237         15.9248         114.753 
        1.52178         89.2353         15.6206         113.725 
        1.53409         88.2855         15.3232         112.732 
        1.54637         86.4552         15.0342         111.703 
        1.55858         85.5246         14.7542         110.638 
        1.57081         84.3372          14.481         109.687 
        1.58313         83.3213         14.2131         108.694 
        1.59544         82.4426         13.9521         107.715 
        1.60767         81.2285         13.6993         106.708 
        1.61994         80.1798         13.4519         106.025 
        1.63225         78.9977         13.2101         104.741 
        1.64452         77.9674         12.9749         103.924 
        1.65676         76.8772         12.7463         103.034 
          1.669         76.3495         12.5229         102.203 
        1.68133          75.389         12.3035         101.239 
        1.69363         74.4121           12.09         100.454 
        1.70585         73.5249          11.883         99.5101 
        1.71809         72.2406         11.6803         98.7578 
        1.73038         71.4925         11.4818         97.8009 
        1.74268         70.3924         11.2878         97.0089 
        1.75493         69.8359         11.0991         96.1328 
        1.76714          68.683         10.9153         95.3381 
        1.77942         68.2749         10.7346         94.5016 
        1.79173         67.0994         10.5577         93.7007 
        1.80402         66.3793          10.385         92.9944 
         1.8163         65.5686         10.2164         92.0572 
         1.8286         64.6211         10.0512          91.423 
         1.8409          63.709         9.88974         90.6095 
        1.85315         62.8217         9.73241         89.9621 
        1.86537         62.2175         9.57883         89.1549 
        1.87765         61.4768         9.42799         88.3009 
        1.88995         60.6508         9.28004         87.6744 
        1.90221         60.0283         9.13578         86.9301 
        1.91445         58.9509         8.99483          86.248 
        1.92674         58.4513         8.85637          85.549 
        1.93902         57.7342         8.72081          84.786 
        1.95124         57.3015         8.58882         84.2193 
         1.9635         56.2136         8.45923         83.3879 
        1.97583         55.6922         8.33149          82.845 
        1.98812         55.0052         8.20688         82.1026 
        2.00039         54.2407         8.08506           81.45 
        2.01264         53.6014         7.96584         80.7875 
        2.02492         52.8999         7.84884         80.1734 
        2.03717         52.2036          7.7344         79.4603 
        2.04942         51.5633         7.62238         78.9181 
        2.06171         50.8883          7.5122          78.225 
        2.07397         50.2538         7.40445         77.6727 
        2.08629         49.7357         7.29836         76.9904 
        2.09857          49.237          7.1946         76.4303 
        2.11081         48.1703         7.09329         75.7581 
        2.12309         47.8905         6.99369         75.2196 
        2.13538         47.2812         6.89585         74.6187 
        2.14763          46.796         6.80022         74.0466 
        2.15986          46.157         6.70662         73.4552 
        2.17214         45.5075         6.61441         72.9356 
        2.18443         45.2372         6.52384         72.3528 
        2.19671         44.3928         6.43508          71.749 
        2.20898         44.0755         6.34807         71.2015 
        2.22126         43.4957         6.26258         70.6303 
        2.23354         42.9206          6.1787         70.1426 
         2.2458         42.5219          6.0965         69.6183 
        2.25807         42.0918         6.01572         69.0342 
        2.27035         41.5132         5.93634         68.5163 
        2.28263         40.9523         5.85843         67.9856 
         2.2949         40.4364         5.78195         67.4904 
        2.30718         40.0323         5.70682         67.0004 
        2.31946         39.4607         5.63299         66.5162 
        2.33169          39.047         5.56078         65.9934 
        2.34393         38.4429         5.48973         65.4914 
        2.35622         38.1706         5.41969         65.0003 
        2.36847         37.6859         5.35107         64.5275 
        2.38076         37.3709         5.28343         64.0458 
        2.39305          36.896         5.21698         63.5802 
        2.40534         36.5126         5.15167         63.0496 
        2.41762         36.0949         5.08749         62.5776 
        2.42989         35.5326          5.0245         62.1703 
        2.44216         35.3105         4.96258         61.6929 
         2.4544         34.9583         4.90185         61.2485 
        2.46667         34.3948         4.84199         60.7595 
        2.47897         34.0939         4.78299         60.3378 
        2.49124         33.6561         4.72514          59.899 
        2.50349         33.2503         4.66833         59.4717 
        2.51578         32.9023         4.61228         59.0621 
        2.52805         32.7696         4.55726         58.6095 
        2.54029         32.3437         4.50326          58.187 
        2.55257         31.9176         4.44998         57.7822 
        2.56487         31.5896         4.39746         57.3757 
        2.57716         31.2771         4.34586         56.9935 
        2.58942         30.8904         4.29521         56.5625 
        2.60167         30.4968         4.24541         56.1298 
        2.61395         30.2737         4.19633         55.7518 
        2.62624         30.0294         4.14795         55.3549 
        2.63849         29.7264         4.10049         54.9673 
        2.65073         29.3821         4.05383         54.5519 
        2.66302         29.0962         4.00772         54.1897 
         2.6753         28.7697         3.96236         53.8122 
        2.68756         28.4216         3.91779         53.4177 
        2.69983         28.2037         3.87388         53.0614 
        2.71213         27.8474         3.83055         52.7067 
        2.72441         27.7366         3.78796         52.3147 
        2.73665         27.4451         3.74612         51.9505 
         2.7489         27.2503         3.70494         51.5989 
        2.76118         26.9439         3.66425         51.2323 
        2.77349         26.7284         3.62407         50.8969 
        2.78576         26.5419         3.58466         50.5318 
        2.79802         26.2164         3.54585         50.1905 
        2.81031         26.0012         3.50752         49.8591 
        2.82259          25.787         3.46978         49.4995 
        2.83483          25.543         3.43273         49.1603 
         2.8471         25.3362         3.39616         48.8358 
         2.8594         25.1272            3.36         48.5219 
         2.8717         24.8607         3.32439         48.1836 
        2.88396         24.7596         3.28942         47.8386 
        2.89619         24.5708         3.25502         47.5207 
        2.90847         24.3686         3.22098         47.2052 
        2.92072         24.2636         3.18749         46.8908 
        2.93299         24.1399         3.15445         46.5655 
        2.94526         23.9121         3.12186         46.2699 
        2.95753         23.7468         3.08973         45.9778 
        2.96982          23.726         3.05801         45.6671 
        2.98209         23.5078         3.02679         45.3654 
        2.99436         23.3297         2.99598         45.0615 
        3.00666         23.2854         2.96555         44.7648 
        3.01894          23.162          2.9356         44.4531 
        3.03119         22.9914          2.9061         44.1623 
        3.04345         22.8923         2.87701         43.8877 
        3.05573         22.8231         2.84826         43.6046 
          3.068         22.7646         2.81994         43.3162 
        3.08026          22.693         2.79202         43.0307 
        3.09254           22.57         2.76444         42.7581 
        3.10483         22.5923         2.73722         42.4869 
         3.1171         22.4801          2.7104         42.2111 
        3.12933         22.5065         2.68402         41.9389 
        3.14159         22.4208         2.65793         41.6656 
