# k  (h/Mpc)    P(k)  (Mpc/h)^3    P_linear(k)  (Mpc/h)^3     P_NL(k)  ShotnoiseSubtracted = false
      0.0156606         2121.28         2171.61          2161.1 
      0.0273761         1842.11         1876.84         1872.03 
      0.0384619         1398.92         1413.75         1412.46 
      0.0498308          1097.2         1111.91         1111.49 
      0.0625568         925.592         944.939         943.653 
      0.0751274         799.046         802.805         800.242 
      0.0867833         635.025         646.335         646.045 
      0.0984825         513.331         511.485          513.22 
       0.111151         429.635         427.078         428.741 
       0.123864         385.879          384.88         386.064 
       0.135742         346.523         346.102         347.243 
        0.14762         294.369         295.933         298.724 
       0.160083         244.527         246.676         249.891 
       0.172465         215.123         215.301         219.138 
       0.184281         199.389         198.482         202.542 
       0.196406         181.936         183.297         186.388 
       0.209011         163.636         163.087         166.624 
       0.221538         145.015         142.523         147.487 
       0.233611         130.434         127.521         133.029 
       0.245665         122.354         117.697         122.586 
       0.258103         110.289         109.565          114.43 
       0.270422          103.49         100.678         105.383 
       0.282519          93.873         91.3706         96.4205 
       0.294636         88.9017         83.2487         88.5726 
       0.306978         78.8744         77.0191         82.5125 
       0.319417         75.1404         72.0083         77.3275 
        0.33169         69.8271          67.212         72.3497 
       0.343948         66.0959         62.2759         67.4687 
       0.356249         60.5503         57.6466         63.3932 
       0.368458         57.6172         53.7691         59.0174 
        0.38068         53.8975         50.5269         55.7371 
       0.392856         50.4621         47.5667          52.825 
       0.405069         47.6994         44.6723          49.741 
       0.417459         44.4437           41.87         47.0265 
       0.429752         42.4918         39.3544         44.4963 
       0.441978         40.4137         37.1463         42.5031 
       0.454294         37.6326         35.1412         40.2165 
        0.46658          37.105         33.2599         38.2904 
       0.478753         34.5366         31.4851         36.5237 
       0.490964         33.2941         29.8179         34.9813 
       0.503334         31.8577         28.2794         33.2574 
       0.515665         30.1479         26.8762         32.0571 
       0.527909          28.847         25.5809         30.3804 
       0.540159         27.5506         24.3553         29.1425 
        0.55248         25.7507         23.1925         27.8672 
       0.564743          25.382         22.1159         26.9161 
        0.57686         24.4648         21.1263         25.8374 
       0.589077         23.0006         20.1922         24.9612 
       0.601441         22.1338         19.3039         24.0081 
        0.61382         21.3221         18.4665         23.0271 
       0.626067          20.456          17.685         22.2584 
       0.638306          19.739          16.949         21.4167 
       0.650632         19.2062         16.2518         20.7234 
       0.662899         18.3046         15.5984         19.9674 
       0.675076         17.4453          14.986         19.2986 
       0.687267         17.1135         14.4058         18.6275 
       0.699615         16.5491          13.849         18.0604 
       0.711937          15.684         13.3227         17.4822 
       0.724148         15.5668         12.8282         16.9806 
       0.736433         14.6711         12.3563         16.4121 
       0.748747         14.3401         11.9075         15.9546 
       0.761037         13.9912          11.482         15.4974 
       0.773197         13.4268         11.0818         15.0779 
       0.785376         12.9433         10.7002          14.643 
       0.797761         12.6064         10.3306         14.2131 
       0.810096         12.2837         9.97994         13.8723 
       0.822371         11.9527         9.64728         13.4416 
       0.834626         11.5595         9.33039         13.1164 
       0.846916         11.1749         9.02699         12.7692 
       0.859215         10.7593         8.73698         12.4546 
       0.871383         10.5235         8.46265         12.1642 
        0.88363         10.2495         8.19854         11.8484 
       0.895928         10.0414         7.94475         11.5359 
       0.908253         9.75404         7.70128         11.2737 
       0.920535         9.43648         7.46889         10.9901 
       0.932774         9.26961         7.24693         10.6909 
        0.94508         8.95312         7.03293         10.4851 
       0.957324         8.76218         6.82865         10.2706 
        0.96953         8.45217         6.63315         10.0262 
       0.981769         8.33979         6.44485         9.78925 
       0.994071         8.14034           6.263         9.58298 
         1.0064         7.85902         6.08788           9.382 
        1.01868         7.68907            5.92         9.18168 
        1.03092         7.54288         5.75923         8.97548 
         1.0432         7.26376         5.60388         8.79059 
        1.05553         7.14328         5.45369         8.63417 
        1.06777         6.92734          5.3101         8.45261 
           1.08         6.80861         5.17186         8.28254 
        1.09227         6.64826         5.03811         8.11542 
         1.1046         6.49974         4.90861         7.94713 
         1.1169         6.28921         4.78391         7.79855 
        1.12915         6.26708         4.66418         7.67948 
        1.14142          6.0298         4.54831         7.51013 
        1.15365          5.9299         4.43674         7.37435 
        1.16585         5.84672         4.32922         7.25733 
        1.17807         5.69102         4.22514         7.10413 
        1.19037         5.55195         4.12382         6.98104 
        1.20276         5.42599         4.02514         6.84892 
        1.21504         5.32462         3.93049         6.74584 
        1.22728         5.19335         3.83927         6.61364 
        1.23954         5.10751         3.75075         6.52351 
        1.25184         4.99413         3.66486         6.40099 
        1.26414          4.9279         3.58163         6.28258 
        1.27632         4.77501         3.50174         6.19408 
         1.2886         4.71721         3.42373         6.08963 
        1.30093         4.61196         3.34783         6.00729 
        1.31316         4.49054         3.27478         5.89995 
        1.32541         4.42815         3.20391         5.81997 
        1.33772         4.34673         3.13475         5.71612 
        1.35005          4.2734         3.06759         5.63479 
        1.36225          4.1879         3.00309         5.53832 
        1.37447          4.1061         2.94033         5.46864 
        1.38676         4.02066         2.87907         5.38233 
        1.39907         3.93979         2.81946         5.30917 
        1.41133         3.87917         2.76181         5.22849 
        1.42358         3.81182         2.70582         5.14759 
        1.43591         3.75663           2.651         5.08839 
        1.44818         3.65923         2.59801         5.01265 
        1.46037          3.5894         2.54678         4.93894 
        1.47263         3.53592         2.49666         4.87488 
        1.48494         3.48596         2.44769         4.80621 
        1.49724         3.41676         2.40008         4.73901 
        1.50952          3.3986         2.35384         4.67761 
        1.52178         3.30979         2.30888         4.61896 
        1.53409         3.24189         2.26492         4.54715 
        1.54637         3.19761          2.2222         4.49122 
        1.55858         3.14683         2.18082         4.42408 
        1.57081         3.08871         2.14044         4.38246 
        1.58313         3.03422         2.10083         4.32164 
        1.59544         2.98782         2.06225         4.27263 
        1.60767         2.94971         2.02489         4.21445 
        1.61994           2.889         1.98832         4.16798 
        1.63225         2.84257         1.95258         4.11522 
        1.64452         2.79697         1.91782         4.06182 
        1.65676         2.74627         1.88402         4.01566 
          1.669           2.716         1.85101         3.96794 
        1.68133         2.64634         1.81858         3.92391 
        1.69363         2.64029         1.78702         3.87892 
        1.70585          2.5955         1.75642         3.83037 
        1.71809         2.56259         1.72647         3.78936 
        1.73038         2.51603         1.69713         3.74301 
        1.74268         2.47023         1.66845         3.70286 
        1.75493         2.44145         1.64056         3.66198 
        1.76714         2.41249         1.61339          3.6159 
        1.77942         2.37265         1.58669         3.58014 
        1.79173         2.34029         1.56053         3.53676 
        1.80402         2.30472         1.53501         3.50069 
         1.8163         2.28389         1.51008         3.46534 
         1.8286         2.23892         1.48566         3.43306 
         1.8409         2.20645          1.4618         3.39599 
        1.85315         2.18122         1.43855         3.35137 
        1.86537         2.15254         1.41585         3.32437 
        1.87765         2.12206         1.39355         3.28897 
        1.88995         2.08777         1.37168         3.25614 
        1.90221         2.06094         1.35036         3.22129 
        1.91445         2.03793         1.32953         3.19551 
        1.92674         2.01658         1.30906         3.15622 
        1.93902         1.97856         1.28902         3.12139 
        1.95124         1.95084         1.26951         3.09665 
         1.9635         1.93498         1.25036         3.06431 
        1.97583         1.89834         1.23148         3.03533 
        1.98812         1.87684         1.21306         3.00708 
        2.00039         1.85279         1.19505         2.97589 
        2.01264         1.82342         1.17743         2.95452 
        2.02492         1.80691         1.16014         2.92574 
        2.03717         1.78822         1.14322         2.89552 
        2.04942         1.76068         1.12666          2.8674 
        2.06171         1.73595         1.11038         2.83992 
        2.07397         1.71711         1.09445           2.816 
        2.08629         1.70023         1.07877         2.79387 
        2.09857         1.67768         1.06343          2.7666 
        2.11081         1.65619         1.04846         2.74085 
        2.12309         1.64081         1.03374          2.7196 
        2.13538         1.61511         1.01928          2.6944 
        2.14763         1.60672         1.00514         2.67012 
        2.15986         1.58523        0.991307         2.64995 
        2.17214         1.55644        0.977676         2.62132 
        2.18443         1.54736         0.96429         2.60179 
        2.19671         1.52941         0.95117         2.58042 
        2.20898         1.51013         0.93831         2.55951 
        2.22126          1.4944        0.925674          2.5384 
        2.23354         1.47672        0.913275         2.51656 
         2.2458         1.46627        0.901125         2.49321 
        2.25807         1.44318        0.889185         2.47375 
        2.27035         1.42863        0.877451         2.45563 
        2.28263         1.40789        0.865935          2.4359 
         2.2949         1.40013        0.854631         2.41637 
        2.30718         1.38429        0.843526           2.398 
        2.31946         1.36439        0.832613         2.37843 
        2.33169         1.35397         0.82194          2.3599 
        2.34393         1.34666        0.811438         2.34219 
        2.35622         1.32554        0.801086         2.32389 
        2.36847          1.3151        0.790943         2.30469 
        2.38076         1.29548        0.780946         2.28675 
        2.39305         1.28526        0.771124         2.26755 
        2.40534         1.27405         0.76147         2.25311 
        2.41762         1.25791        0.751984         2.23598 
        2.42989         1.24715        0.742673         2.22041 
        2.44216          1.2379        0.733521         2.20301 
         2.4544         1.22714        0.724544         2.18836 
        2.46667         1.21082        0.715697          2.1719 
        2.47897         1.20158        0.706976         2.15414 
        2.49124         1.18724        0.698425         2.13985 
        2.50349         1.17767        0.690028          2.1232 
        2.51578         1.16725        0.681743         2.10621 
        2.52805         1.15259         0.67361         2.09279 
        2.54029         1.14651        0.665629         2.07771 
        2.55257         1.13247        0.657753          2.0629 
        2.56487         1.12238         0.64999         2.04959 
        2.57716         1.11734        0.642364         2.03418 
        2.58942         1.10887        0.634876         2.02063 
        2.60167         1.09858        0.627515          2.0062 
        2.61395          1.0855        0.620261          1.9939 
        2.62624         1.07864         0.61311         1.97969 
        2.63849          1.0699        0.606095         1.96574 
        2.65073         1.06074        0.599198         1.95243 
        2.66302         1.05224        0.592383         1.93937 
         2.6753         1.04968        0.585678         1.92695 
        2.68756         1.03758        0.579091         1.91495 
        2.69983         1.02971          0.5726         1.90176 
        2.71213         1.01997        0.566196          1.8897 
        2.72441         1.01346        0.559901         1.87715 
        2.73665         1.00723        0.553716         1.86656 
         2.7489        0.999696        0.547629         1.85552 
        2.76118         0.99159        0.541614         1.84153 
        2.77349        0.987926        0.535676         1.83018 
        2.78576        0.982523         0.52985         1.81882 
        2.79802        0.975969        0.524113         1.80647 
        2.81031        0.968115        0.518449         1.79583 
        2.82259        0.961292         0.51287         1.78385 
        2.83483         0.95815        0.507394         1.77343 
         2.8471        0.952684        0.501988         1.76216 
         2.8594        0.947093        0.496644         1.75161 
         2.8717        0.943442        0.491379         1.74192 
        2.88396        0.935875        0.486211         1.73109 
        2.89619        0.932061        0.481126         1.72017 
        2.90847        0.927133        0.476095         1.70987 
        2.92072        0.925171        0.471144         1.70008 
        2.93299        0.920069        0.466262         1.68935 
        2.94526        0.918978        0.461444         1.67969 
        2.95753        0.914413        0.456695         1.67018 
        2.96982        0.911002        0.452005         1.65996 
        2.98209        0.908488        0.447391          1.6505 
        2.99436        0.906376        0.442837         1.64096 
        3.00666        0.905334        0.438339          1.6313 
        3.01894        0.902222        0.433912         1.62236 
        3.03119        0.899879        0.429553         1.61287 
        3.04345        0.897179        0.425253         1.60381 
        3.05573        0.896217        0.421003         1.59554 
          3.068        0.894295        0.416816          1.5865 
        3.08026        0.894144        0.412691         1.57719 
        3.09254        0.894719        0.408613         1.56827 
        3.10483        0.894791         0.40459            1.56 
         3.1171         0.89546        0.400626         1.55156 
        3.12933         0.89498        0.396727         1.54263 
        3.14159        0.894381         0.39287         1.53425 
