# k  (h/Mpc)    Pcb(k)  (Mpc/h)^3    Pcb_linear(k) (Mpc/h)^3    Pcb_NL(k) (Mpc/h)^3   ShotnoiseSubtracted = false
      0.0156606           810.6          811.18         807.438 
      0.0273761         706.442         702.195         700.768 
      0.0384619         536.588         529.298         529.258 
      0.0498308         422.089         416.442          416.71 
      0.0625568         356.242         353.985         353.821 
      0.0751274          305.44         300.779          300.28 
      0.0867833         244.181         242.175         242.134 
      0.0984825         195.961         191.659         192.018 
       0.111151         163.748         160.037         160.359 
       0.123864         147.003         144.229         144.367 
       0.135742         131.892           129.7         129.792 
        0.14762         112.148         110.901         111.269 
       0.160083         93.3397         92.4435         92.9177 
       0.172465         81.7512         80.6861         81.2379 
       0.184281         75.6456         74.3835         74.9406 
       0.196406         69.2162         68.6933         69.0891 
       0.209011         61.9514         61.1198         61.5929 
       0.221538         54.5773         53.4132         54.1056 
       0.233611         48.8916         47.7911         48.5595 
       0.245665         45.6048         44.1095         44.7818 
       0.258103         41.3941         41.0622         41.7233 
       0.270422         38.6285         37.7315         38.3637 
       0.282519         35.0417         34.2435         34.9379 
       0.294636         32.6166         31.1997         31.9339 
       0.306978         29.2911          28.865         29.6191 
       0.319417         27.7409         26.9871         27.7174 
        0.33169         25.8101         25.1896         25.8918 
       0.343948         24.2064         23.3397         24.0385 
       0.356249          22.165         21.6047         22.4064 
       0.368458         20.9141         20.1516         20.8612 
        0.38068          19.512         18.9363         19.6424 
       0.392856         18.3473          17.827         18.5398 
       0.405069         17.3198         16.7423         17.4158 
       0.417459         15.9951          15.692         16.3998 
       0.429752          15.214         14.7492          15.446 
       0.441978         14.4425         13.9217         14.6589 
       0.454294         13.5114         13.1702         13.8664 
        0.46658         13.0809         12.4652         13.1457 
       0.478753         12.2533            11.8         12.4766 
       0.490964         11.7437         11.1753         11.8904 
       0.503334         11.1877         10.5986          11.269 
       0.515665         10.5258         10.0727         10.7784 
       0.527909         10.0935         9.58725         10.2376 
       0.540159         9.56526         9.12797         9.76812 
        0.55248         9.00569         8.69217         9.30612 
       0.564743         8.79524         8.28864         8.94441 
        0.57686           8.409         7.91777         8.54903 
       0.589077         7.91107         7.56768         8.21907 
       0.601441         7.59174         7.23478         7.87189 
        0.61382         7.27977         6.92091         7.53442 
       0.626067         6.95708         6.62802         7.23631 
       0.638306         6.70196         6.35221          6.9474 
       0.650632         6.50051         6.09089         6.69434 
       0.662899         6.20111         5.84601         6.42918 
       0.675076         5.89429         5.61651         6.19648 
       0.687267          5.6927         5.39905         5.95267 
       0.699615          5.5343         5.19038         5.73872 
       0.711937         5.26213         4.99312         5.55164 
       0.724148         5.15169         4.80779         5.35525 
       0.736433         4.89226         4.63094         5.15766 
       0.748747          4.7339         4.46273         5.00476 
       0.761037         4.58804         4.30328         4.83012 
       0.773197         4.39171         4.15327         4.68547 
       0.785376         4.23857         4.01024         4.52845 
       0.797761         4.10068         3.87174         4.37315 
       0.810096          3.9961         3.74032         4.25637 
       0.822371         3.88799         3.61564         4.11023 
       0.834626         3.75212         3.49688         3.98285 
       0.846916         3.61506         3.38317         3.87759 
       0.859215         3.47176         3.27448         3.76747 
       0.871383         3.36862         3.17167         3.65415 
        0.88363         3.27694         3.07268         3.54987 
       0.895928          3.1976         2.97757         3.44477 
       0.908253         3.09739         2.88632         3.35035 
       0.920535         3.00083         2.79922         3.25202 
       0.932774         2.91407         2.71604         3.15572 
        0.94508         2.83073         2.63583         3.07619 
       0.957324         2.75681         2.55927         3.00351 
        0.96953         2.66333           2.486         2.92237 
       0.981769         2.57991         2.41543         2.83729 
       0.994071         2.52681         2.34727         2.77625 
         1.0064         2.44741         2.28164          2.7018 
        1.01868          2.3667         2.21872         2.63374 
        1.03092         2.33423         2.15847         2.56292 
         1.0432         2.25444         2.10025         2.50292 
        1.05553         2.19829         2.04396         2.44691 
        1.06777         2.13157         1.99014            2.39 
           1.08         2.09061         1.93833         2.32971 
        1.09227         2.02128         1.88821         2.27321 
         1.1046          1.9753         1.83967         2.22447 
         1.1169         1.92152         1.79294         2.17247 
        1.12915         1.87908         1.74806         2.12411 
        1.14142          1.8333         1.70464         2.07485 
        1.15365         1.79133         1.66282         2.03176 
        1.16585         1.74911         1.62252         1.98543 
        1.17807         1.72052         1.58352         1.94421 
        1.19037         1.65307         1.54554         1.89944 
        1.20276         1.61919         1.50856         1.85555 
        1.21504         1.58771         1.47308         1.82499 
        1.22728         1.55434          1.4389         1.77966 
        1.23954         1.51891         1.40572         1.75078 
        1.25184         1.48809         1.37353         1.70898 
        1.26414         1.45337         1.34234         1.67312 
        1.27632         1.41032         1.31239         1.64284 
         1.2886         1.38658         1.28316         1.60638 
        1.30093         1.34572         1.25471         1.58034 
        1.31316         1.30812         1.22734         1.54714 
        1.32541         1.29088         1.20078          1.5195 
        1.33772         1.26886         1.17486         1.49016 
        1.35005         1.24409         1.14969         1.46283 
        1.36225         1.21486         1.12551         1.43295 
        1.37447         1.19044         1.10199         1.40965 
        1.38676         1.16409         1.07903         1.38022 
        1.39907         1.13874         1.05669         1.35778 
        1.41133         1.11105         1.03508         1.33281 
        1.42358         1.10062          1.0141         1.30527 
        1.43591         1.07496        0.993554         1.28877 
        1.44818         1.05325        0.973693          1.2653 
        1.46037         1.02786        0.954494         1.23996 
        1.47263         1.00661        0.935708         1.22079 
        1.48494        0.990849        0.917356         1.20025 
        1.49724        0.970403        0.899513         1.17989 
        1.50952        0.953028        0.882181         1.15657 
        1.52178        0.930532        0.865332         1.13926 
        1.53409        0.916897        0.848856         1.11977 
        1.54637        0.893053        0.832844         1.10012 
        1.55858        0.881772        0.817337         1.08284 
        1.57081        0.869457        0.802203         1.06414 
        1.58313        0.849937        0.787359         1.04997 
        1.59544        0.835387        0.772899         1.03143 
        1.60767        0.821303        0.758896         1.01538 
        1.61994        0.803103        0.745192         1.00073 
        1.63225        0.790091        0.731798         0.98561 
        1.64452         0.77774        0.718771        0.968833 
        1.65676         0.76259        0.706102        0.954667 
          1.669        0.750343         0.69373        0.938874 
        1.68133        0.735727        0.681576        0.926461 
        1.69363        0.727417        0.669749        0.911896 
        1.70585        0.711788        0.658278        0.898839 
        1.71809        0.700895        0.647054        0.885012 
        1.73038         0.68659        0.636056        0.872339 
        1.74268        0.673261        0.625307        0.858719 
        1.75493        0.668209        0.614856        0.848153 
        1.76714        0.653841        0.604671        0.834951 
        1.77942        0.640521        0.594666        0.823213 
        1.79173        0.633237        0.584861        0.810738 
        1.80402        0.622955        0.575298        0.799765 
         1.8163        0.612558        0.565954        0.787147 
         1.8286        0.598455        0.556802        0.779514 
         1.8409        0.593905         0.54786        0.767259 
        1.85315        0.585388        0.539145        0.756308 
        1.86537        0.571763        0.530637        0.746701 
        1.87765        0.564122        0.522281        0.735966 
        1.88995        0.556457        0.514085        0.727158 
        1.90221        0.546699        0.506093        0.716792 
        1.91445        0.539843        0.498285        0.707778 
        1.92674        0.529822        0.490615        0.698637 
        1.93902        0.520565        0.483106        0.688654 
        1.95124        0.513601        0.475794        0.679742 
         1.9635        0.507564        0.468615        0.670789 
        1.97583        0.498125        0.461538        0.661713 
        1.98812        0.491075        0.454635        0.655056 
        2.00039        0.484153        0.447887        0.645639 
        2.01264         0.47788        0.441282        0.637917 
        2.02492        0.470918        0.434801        0.630278 
        2.03717         0.46356        0.428461        0.622405 
        2.04942        0.456872        0.422256        0.614184 
        2.06171        0.450892        0.416153        0.606705 
        2.07397        0.443047        0.410183        0.599838 
        2.08629        0.439113        0.404306        0.592232 
        2.09857        0.431257        0.398558        0.585349 
        2.11081        0.424285        0.392946        0.577628 
        2.12309        0.419138        0.387428        0.571758 
        2.13538        0.412918        0.382009        0.564444 
        2.14763        0.408474        0.376711        0.558219 
        2.15986        0.402819        0.371526         0.55216 
        2.17214        0.396269        0.366417        0.545128 
        2.18443        0.392247          0.3614        0.538652 
        2.19671        0.386907        0.356483         0.53303 
        2.20898        0.381468        0.351663         0.52653 
        2.22126        0.375538        0.346928        0.520901 
        2.23354        0.371706        0.342281        0.515454 
         2.2458        0.368095        0.337727        0.508469 
        2.25807        0.362585        0.333252        0.503765 
        2.27035        0.357623        0.328855        0.497873 
        2.28263        0.352656        0.324539        0.492732 
         2.2949        0.348935        0.320302        0.486985 
        2.30718        0.344508         0.31614        0.481964 
        2.31946        0.341164         0.31205        0.476928 
        2.33169        0.335287         0.30805        0.471449 
        2.34393        0.331808        0.304114        0.466845 
        2.35622        0.327769        0.300234        0.461283 
        2.36847        0.324623        0.296433        0.456611 
        2.38076        0.320226        0.292686        0.451883 
        2.39305        0.315965        0.289005        0.447298 
        2.40534        0.312442        0.285387        0.442769 
        2.41762        0.309576        0.281831        0.437899 
        2.42989        0.304881        0.278342        0.433217 
        2.44216         0.30235        0.274912        0.429136 
         2.4544         0.29929        0.271547        0.424877 
        2.46667        0.296118        0.268231        0.420175 
        2.47897        0.292163        0.264963         0.41614 
        2.49124        0.288869        0.261758        0.411887 
        2.50349        0.284952        0.258611        0.407654 
        2.51578        0.282475        0.255506        0.403623 
        2.52805        0.280626        0.252458        0.399777 
        2.54029        0.277257        0.249467        0.395928 
        2.55257        0.273542        0.246515        0.392277 
        2.56487        0.271458        0.243606        0.388286 
        2.57716        0.268653        0.240747        0.384497 
        2.58942        0.266393        0.237941        0.380763 
        2.60167        0.263005        0.235183        0.376939 
        2.61395        0.260365        0.232463        0.373635 
        2.62624        0.257655        0.229784        0.370243 
        2.63849        0.256217        0.227155        0.366638 
        2.65073        0.252963        0.224569         0.36308 
        2.66302        0.251146        0.222015        0.359664 
         2.6753        0.248494        0.219502        0.356337 
        2.68756        0.246811        0.217034        0.353137 
        2.69983        0.243883        0.214601        0.349569 
        2.71213        0.241237        0.212201        0.346557 
        2.72441        0.239938        0.209841        0.343628 
        2.73665         0.23803        0.207524        0.340475 
         2.7489        0.236391        0.205242        0.337332 
        2.76118        0.234698        0.202988        0.334335 
        2.77349         0.23187        0.200762        0.331469 
        2.78576        0.230686        0.198579        0.328479 
        2.79802        0.228948        0.196429        0.325214 
        2.81031        0.227149        0.194306        0.322717 
        2.82259        0.225683        0.192215        0.319585 
        2.83483        0.223558        0.190163        0.316742 
         2.8471        0.222225        0.188137        0.314391 
         2.8594        0.220798        0.186134        0.311729 
         2.8717        0.219859        0.184161        0.308888 
        2.88396        0.218609        0.182224        0.306319 
        2.89619        0.216803        0.180318        0.303829 
        2.90847        0.215864        0.178432        0.301287 
        2.92072        0.213887        0.176577         0.29851 
        2.93299        0.213008        0.174747        0.295921 
        2.94526        0.211937        0.172941        0.293578 
        2.95753         0.21122        0.171162         0.29123 
        2.96982        0.209851        0.169404        0.288671 
        2.98209        0.209341        0.167675        0.286134 
        2.99436        0.207709        0.165968        0.283844 
        3.00666        0.207545        0.164282        0.281586 
        3.01894         0.20675        0.162623        0.279386 
        3.03119        0.206047        0.160989        0.277039 
        3.04345           0.205        0.159378        0.274859 
        3.05573        0.204873        0.157785        0.272799 
          3.068        0.203913        0.156216         0.27043 
        3.08026        0.203358        0.154669        0.268201 
        3.09254        0.203786        0.153141        0.266155 
        3.10483         0.20296        0.151633        0.264134 
         3.1171        0.202572        0.150148        0.261973 
        3.12933        0.202485        0.148686        0.259801 
        3.14159         0.20179        0.147241        0.257933 
