# k  (h/Mpc)    Pcb(k)  (Mpc/h)^3    Pcb_linear(k) (Mpc/h)^3    Pcb_NL(k) (Mpc/h)^3   ShotnoiseSubtracted = false
      0.0156606         8512.25          8531.2         8481.58 
      0.0273761         7355.83         7378.91         7340.14 
      0.0384619         5585.51         5560.13         5533.19 
      0.0498308         4351.37         4373.83         4349.31 
      0.0625568         3672.38         3717.44         3693.48 
      0.0751274         3223.28         3158.49         3122.56 
      0.0867833         2527.57         2542.99         2534.46 
      0.0984825         2084.62         2012.48         2028.07 
       0.111151         1759.17         1680.41         1696.73 
       0.123864         1580.08          1514.4         1528.13 
       0.135742         1426.58         1361.83         1375.96 
        0.14762         1222.03         1164.44         1199.33 
       0.160083            1017         970.629         1010.92 
       0.172465         904.283         847.176          897.11 
       0.184281         834.912         780.997         833.308 
       0.196406         764.909          721.25         763.922 
       0.209011         700.052          641.73         688.004 
       0.221538         629.487         560.812         625.382 
       0.233611         579.951         501.782         574.185 
       0.245665         540.322         463.126         528.156 
       0.258103         501.576         431.131          495.81 
       0.270422         462.195         396.159         460.402 
       0.282519         423.005         359.537         426.987 
       0.294636         416.745         327.578         398.582 
       0.306978         369.304         303.065         376.878 
       0.319417         354.493         283.349         354.181 
        0.33169         332.282         264.476          332.84 
       0.343948         317.025         245.052         317.002 
       0.356249         295.523         226.836         301.931 
       0.368458         285.664         211.579         283.888 
        0.38068         271.834          198.82         270.264 
       0.392856         254.007         187.172         258.583 
       0.405069         243.348         175.783         248.131 
       0.417459         232.003         164.756         234.845 
       0.429752         223.455         154.857         225.497 
       0.441978         215.495         146.169         217.963 
       0.454294         200.969         138.279         207.313 
        0.46658         201.024         130.876         200.637 
       0.478753         189.917         123.893         193.251 
       0.490964         184.002         117.333         186.012 
       0.503334         174.449         111.278         180.012 
       0.515665         170.686         105.757         175.443 
       0.527909         165.513          100.66         168.228 
       0.540159         160.116         95.8376         163.314 
        0.55248         155.633         91.2619         157.865 
       0.564743         151.074         87.0252         153.883 
        0.57686         146.195         83.1313         148.846 
       0.589077         139.855         79.4555         145.357 
       0.601441         136.976         75.9603         141.547 
        0.61382         135.013         72.6649         137.393 
       0.626067         130.061         69.5897         133.909 
       0.638306         125.156         66.6939         130.778 
       0.650632         120.868         63.9502         126.252 
       0.662899         120.807         61.3791         123.545 
       0.675076         116.496         58.9696         120.588 
       0.687267         113.733         56.6864         117.786 
       0.699615         110.531         54.4955         115.368 
       0.711937         107.371         52.4244         112.349 
       0.724148         106.219         50.4785         110.772 
       0.736433         102.396         48.6217         107.883 
       0.748747         100.325         46.8556         105.554 
       0.761037         98.3138         45.1815          103.09 
       0.773197         96.1643         43.6065         101.903 
       0.785376         94.1689         42.1048          99.342 
       0.797761         93.0733         40.6506         97.8886 
       0.810096         89.8636         39.2708         95.7141 
       0.822371         88.0446         37.9618         93.9444 
       0.834626         86.1597         36.7148         92.3411 
       0.846916         85.0903         35.5209         90.7633 
       0.859215         83.3657         34.3798         88.9791 
       0.871383         82.1981         33.3003         87.4876 
        0.88363         79.9825          32.261         86.3066 
       0.895928         78.4324         31.2624         84.8957 
       0.908253         76.4558         30.3043         83.3896 
       0.920535         76.0971         29.3899         82.1644 
       0.932774         74.4403         28.5165         80.7183 
        0.94508          73.511         27.6744         79.3748 
       0.957324         71.7678         26.8706         78.3502 
        0.96953         71.8364         26.1013         76.9681 
       0.981769         69.4225         25.3603         76.1185 
       0.994071         68.6712         24.6447         74.9942 
         1.0064         67.1637         23.9557         73.8746 
        1.01868          66.337         23.2951         72.9077 
        1.03092         65.1577         22.6624         71.8697 
         1.0432         64.0502         22.0511         70.7867 
        1.05553         62.4091         21.4601         70.1952 
        1.06777         62.0973         20.8951         69.1887 
           1.08         60.7267         20.3511         68.2281 
        1.09227         59.8932         19.8248         67.2379 
         1.1046         58.9736         19.3153         66.4021 
         1.1169          58.307         18.8246         65.4401 
        1.12915          57.426         18.3534         64.7733 
        1.14142          56.323         17.8975          63.975 
        1.15365         55.4006         17.4584         63.2432 
        1.16585          54.608         17.0354         62.3756 
        1.17807         53.7546         16.6258         61.6451 
        1.19037          53.641         16.2271         61.0591 
        1.20276         52.6197         15.8388         60.3373 
        1.21504         52.0969         15.4663         59.6298 
        1.22728         51.0166         15.1074         58.9854 
        1.23954         50.4507         14.7591         58.1986 
        1.25184         49.6283         14.4211         57.6918 
        1.26414         48.8576         14.0936         56.9747 
        1.27632         48.4661         13.7792         56.4283 
         1.2886         47.9563         13.4723         55.7816 
        1.30093         47.2309         13.1736         55.0648 
        1.31316         46.4946         12.8862         54.6764 
        1.32541         46.2164         12.6073         54.0477 
        1.33772         45.3531         12.3352         53.4832 
        1.35005         44.8792         12.0709         52.9737 
        1.36225         44.1128         11.8171          52.445 
        1.37447         43.0739         11.5701         51.8873 
        1.38676         43.2532         11.3291         51.4019 
        1.39907         42.5654         11.0945         50.9664 
        1.41133         41.6843         10.8676         50.4939 
        1.42358         41.2332         10.6473         49.9233 
        1.43591         40.8497         10.4316         49.5162 
        1.44818          40.371         10.2231         48.9273 
        1.46037         39.8385         10.0215         48.5424 
        1.47263         39.5439         9.82428         48.1522 
        1.48494         38.7542          9.6316         47.6386 
        1.49724         38.5493         9.44425         47.2027 
        1.50952         38.1119         9.26228         46.7942 
        1.52178         37.5207         9.08537          46.393 
        1.53409         37.2288         8.91239         45.9799 
        1.54637         36.6425         8.74428         45.5306 
        1.55858         35.8636         8.58146         45.1142 
        1.57081         35.9157         8.42257          44.796 
        1.58313         35.4944         8.26672         44.3986 
        1.59544         34.8596          8.1149         43.9934 
        1.60767         34.4301         7.96788         43.5874 
        1.61994         34.0162         7.82399         43.2369 
        1.63225         33.8048         7.68336         42.8792 
        1.64452         33.3885         7.54659         42.5409 
        1.65676          32.978         7.41357         42.1571 
          1.669         32.6672         7.28367         41.8678 
        1.68133         32.3419         7.15607         41.4673 
        1.69363         31.8059         7.03189         41.1157 
        1.70585         31.5958         6.91146         40.8718 
        1.71809         31.0514         6.79361         40.4349 
        1.73038         30.8872         6.67814         40.1959 
        1.74268          30.436         6.56528         39.7886 
        1.75493         30.1191         6.45556          39.508 
        1.76714         29.8644         6.34862         39.2236 
        1.77942         29.5486         6.24357         38.9047 
        1.79173         29.1303         6.14063         38.5851 
        1.80402         28.8122         6.04022         38.3769 
         1.8163         28.6275         5.94212         37.9327 
         1.8286         28.1332         5.84603         37.7139 
         1.8409          27.899         5.75215         37.4039 
        1.85315         27.5882         5.66064         37.1665 
        1.86537         27.2303         5.57131         36.8867 
        1.87765         27.0993         5.48358         36.5909 
        1.88995         26.6924         5.39753         36.2552 
        1.90221         26.4297         5.31362         35.9977 
        1.91445         26.0617         5.23164          35.756 
        1.92674         25.8311         5.15111         35.4713 
        1.93902         25.5408         5.07227          35.235 
        1.95124          25.116          4.9955         35.0218 
         1.9635         24.9763         4.92012         34.7241 
        1.97583         24.7134         4.84583         34.4988 
        1.98812         24.4989         4.77335         34.2434 
        2.00039         24.2082          4.7025         33.9895 
        2.01264         23.9182         4.63315          33.769 
        2.02492         23.7478         4.56511         33.4966 
        2.03717         23.3745         4.49854         33.2661 
        2.04942         23.1814         4.43339           33.01 
        2.06171         23.0149         4.36931         32.8013 
        2.07397          22.761         4.30663         32.5378 
        2.08629         22.5279         4.24493         32.3044 
        2.09857         22.2733         4.18458         32.0975 
        2.11081          22.021         4.12566         31.8655 
        2.12309         21.8668         4.06772         31.6393 
        2.13538           21.54         4.01082         31.4452 
        2.14763         21.4055          3.9552         31.2155 
        2.15986         21.1553         3.90076         30.9936 
        2.17214         20.9471         3.84713         30.8009 
        2.18443         20.7476         3.79445         30.5571 
        2.19671          20.491         3.74282         30.3514 
        2.20898         20.3104         3.69222         30.1338 
        2.22126         20.1875          3.6425         29.9413 
        2.23354         20.0084         3.59371         29.7586 
         2.2458         19.8121          3.5459         29.5646 
        2.25807         19.5244         3.49891         29.3274 
        2.27035         19.3412         3.45274          29.154 
        2.28263         19.1893         3.40743         28.9642 
         2.2949         19.0293         3.36295         28.7751 
        2.30718         18.8456         3.31925         28.5727 
        2.31946         18.7195          3.2763         28.3801 
        2.33169         18.4908         3.23431          28.194 
        2.34393         18.3214         3.19298         28.0228 
        2.35622         18.1313         3.15224         27.8426 
        2.36847         17.9372         3.11233         27.6381 
        2.38076          17.783         3.07299         27.4871 
        2.39305         17.6453         3.03435         27.3104 
        2.40534          17.454         2.99636         27.0936 
        2.41762         17.2774         2.95903         26.9663 
        2.42989         17.1577         2.92239         26.7504 
        2.44216         16.9456         2.88638          26.601 
         2.4544         16.9368         2.85105         26.4153 
        2.46667         16.7056         2.81624          26.256 
        2.47897         16.5004         2.78193         26.0767 
        2.49124         16.4348         2.74828         25.9125 
        2.50349         16.2158         2.71523         25.7396 
        2.51578         16.1205         2.68263         25.6019 
        2.52805         15.9663         2.65063         25.4295 
        2.54029         15.8404         2.61922         25.2684 
        2.55257         15.7297         2.58824         25.1034 
        2.56487         15.5448         2.55769          24.956 
        2.57716          15.437         2.52768         24.7785 
        2.58942         15.3545         2.49821         24.6483 
        2.60167         15.1263         2.46925         24.4897 
        2.61395         15.0818          2.4407         24.3362 
        2.62624         14.9869         2.41257         24.1769 
        2.63849         14.8177         2.38496         24.0518 
        2.65073         14.6962         2.35782          23.888 
        2.66302         14.6074           2.331         23.7545 
         2.6753         14.5455         2.30462         23.5995 
        2.68756         14.3977          2.2787         23.4655 
        2.69983         14.2734         2.25316         23.3074 
        2.71213         14.1472         2.22796          23.155 
        2.72441         14.0763         2.20319         23.0217 
        2.73665         13.9622         2.17885         22.8844 
         2.7489         13.9274          2.1549         22.7443 
        2.76118           13.77         2.13123         22.6094 
        2.77349         13.6948         2.10786         22.4758 
        2.78576         13.5881         2.08494         22.3499 
        2.79802         13.5336         2.06236         22.2032 
        2.81031         13.4374         2.04007         22.0655 
        2.82259         13.3088         2.01812         21.9488 
        2.83483         13.3017         1.99658         21.8174 
         2.8471         13.2289          1.9753         21.6736 
         2.8594         13.1286         1.95427         21.5387 
         2.8717         13.0682         1.93356         21.4207 
        2.88396         12.9868         1.91322         21.2913 
        2.89619         12.9585         1.89321         21.1631 
        2.90847         12.8724         1.87341         21.0534 
        2.92072         12.8288         1.85393         20.9056 
        2.93299         12.7216         1.83472         20.7994 
        2.94526         12.6836         1.81576         20.6862 
        2.95753         12.6492         1.79708         20.5543 
        2.96982         12.5862         1.77862         20.4357 
        2.98209         12.5618         1.76047           20.32 
        2.99436         12.5081         1.74255         20.1938 
        3.00666           12.49         1.72485         20.0746 
        3.01894          12.441         1.70743         19.9733 
        3.03119         12.4202         1.69027         19.8554 
        3.04345         12.3455         1.67335         19.7293 
        3.05573         12.3445         1.65663         19.6186 
          3.068         12.3046         1.64015         19.5128 
        3.08026         12.2993         1.62392         19.3875 
        3.09254         12.2588         1.60787         19.2835 
        3.10483         12.2685         1.59204         19.1833 
         3.1171         12.2983         1.57645         19.0704 
        3.12933         12.2569          1.5611         18.9601 
        3.14159         12.2145         1.54593         18.8455 
