# k  (h/Mpc)    Pcb(k)  (Mpc/h)^3    Pcb_linear(k) (Mpc/h)^3    Pcb_NL(k) (Mpc/h)^3   ShotnoiseSubtracted = false
      0.0156606         23249.7         23386.1         23195.7 
      0.0273761         19910.9           20218         19984.5 
      0.0384619         15047.9         15231.2         15021.9 
      0.0498308         11612.9         11979.9         11768.7 
      0.0625568         9814.23         10181.2         9994.17 
      0.0751274         8751.77         8649.87         8387.96 
      0.0867833         6773.37         6964.02         6882.27 
      0.0984825         5739.91         5511.08          5581.4 
       0.111151         4918.48         4601.62         4691.14 
       0.123864         4405.44         4146.97         4219.16 
       0.135742         4022.24         3729.14         3801.29 
        0.14762            3507         3188.59         3378.95 
       0.160083         2990.42         2657.87         2893.99 
       0.172465         2667.19         2319.81          2620.8 
       0.184281         2412.76         2138.58         2439.33 
       0.196406         2285.93         1974.97         2249.33 
       0.209011         2144.23         1757.22         2040.81 
       0.221538         1929.22         1535.64         1909.79 
       0.233611         1856.23            1374         1793.19 
       0.245665         1680.77         1268.15          1657.8 
       0.258103         1671.85         1180.54         1566.53 
       0.270422         1491.48         1084.77         1473.68 
       0.282519         1413.26         984.493         1398.81 
       0.294636         1384.14         896.982         1326.82 
       0.306978         1269.57         829.858         1273.22 
       0.319417         1248.61         775.869         1201.05 
        0.33169         1172.83          724.19         1139.09 
       0.343948          1128.6         671.004         1105.03 
       0.356249         1072.71         621.125         1065.31 
       0.368458         1027.66         579.347         1020.35 
        0.38068         1015.01         544.409          982.88 
       0.392856         965.764         512.516         950.011 
       0.405069         914.643         481.331         918.645 
       0.417459         880.132         451.135         888.841 
       0.429752          879.92         424.029         858.168 
       0.441978         849.189         400.239         837.204 
       0.454294         813.468         378.635         804.006 
        0.46658         790.805         358.365          788.13 
       0.478753          777.26         339.243         765.136 
       0.490964         748.241          321.28           742.3 
       0.503334         717.435         304.701         726.694 
       0.515665         714.436         289.582         710.147 
       0.527909         684.517         275.626         696.321 
       0.540159         669.118         262.422         679.569 
        0.55248         655.581         249.893          662.36 
       0.564743         649.967         238.292          651.23 
        0.57686         630.112          227.63         634.547 
       0.589077         621.175         217.565         621.012 
       0.601441         605.042         207.994         609.407 
        0.61382         587.832         198.971          598.68 
       0.626067         582.475          190.55         588.115 
       0.638306         561.674         182.621         576.133 
       0.650632         556.619         175.108         563.277 
       0.662899         552.423         168.068         556.274 
       0.675076         536.033          161.47         549.232 
       0.687267         520.472         155.218         536.521 
       0.699615         520.231         149.219         528.069 
       0.711937         508.336         143.548         518.049 
       0.724148         492.588          138.22         511.515 
       0.736433         481.454         133.136         502.711 
       0.748747         475.586           128.3         494.049 
       0.761037         467.529         123.716         488.328 
       0.773197         459.874         119.403         480.042 
       0.785376         455.004         115.291         473.306 
       0.797761         441.555         111.309         466.729 
       0.810096         435.736         107.531         460.688 
       0.822371         425.485         103.947         453.346 
       0.834626          420.98         100.532         448.316 
       0.846916         415.552         97.2631         441.318 
       0.859215         409.681         94.1383         434.823 
       0.871383         401.116         91.1826         429.228 
        0.88363         395.851         88.3368         424.931 
       0.895928          391.03         85.6023          418.43 
       0.908253         381.635          82.979         411.505 
       0.920535         373.216          80.475         407.378 
       0.932774         368.476         78.0836         401.095 
        0.94508         362.989         75.7777         397.216 
       0.957324         358.488         73.5767         391.949 
        0.96953         354.133         71.4702         387.226 
       0.981769         346.096         69.4413         382.905 
       0.994071         344.912          67.482         378.321 
         1.0064         338.784         65.5951         372.845 
        1.01868         334.781         63.7863          368.18 
        1.03092         325.219          62.054         364.996 
         1.0432         322.273         60.3802         360.593 
        1.05553         319.218         58.7618         355.606 
        1.06777         314.551         57.2148          351.52 
           1.08         307.581         55.7252         347.677 
        1.09227         307.336         54.2841         343.533 
         1.1046         300.998         52.8888         340.368 
         1.1169         295.146         51.5452         335.899 
        1.12915         290.799         50.2551         332.375 
        1.14142         285.046         49.0067         328.549 
        1.15365         281.958         47.8045          325.12 
        1.16585         277.508          46.646         321.533 
        1.17807         274.883         45.5246         317.913 
        1.19037         269.618         44.4329         315.232 
        1.20276         266.904         43.3696         311.145 
        1.21504         261.573         42.3498         307.642 
        1.22728         257.818          41.367          304.49 
        1.23954         256.279         40.4132         301.227 
        1.25184         250.463         39.4877         298.089 
        1.26414         245.772         38.5909         295.287 
        1.27632          243.33         37.7301         292.529 
         1.2886         240.885         36.8896         289.263 
        1.30093         235.967         36.0718         285.541 
        1.31316          231.15         35.2848          282.95 
        1.32541         230.041         34.5212         279.804 
        1.33772         225.735          33.776         277.345 
        1.35005         223.235         33.0524         274.203 
        1.36225         219.122         32.3574         271.647 
        1.37447         215.631         31.6811         268.409 
        1.38676         213.665         31.0211         266.514 
        1.39907         210.614         30.3788         263.229 
        1.41133         206.624         29.7576         260.452 
        1.42358         204.097         29.1543         258.014 
        1.43591         201.375         28.5637         255.751 
        1.44818         197.579         27.9927         252.997 
        1.46037         196.078         27.4408          250.29 
        1.47263         192.377         26.9007         247.831 
        1.48494         191.014         26.3731          244.91 
        1.49724         187.396         25.8601         243.416 
        1.50952         184.325         25.3619         240.479 
        1.52178         181.949         24.8775         238.232 
        1.53409         179.024         24.4038         235.971 
        1.54637         176.184         23.9435         234.026 
        1.55858         174.341         23.4976         231.574 
        1.57081         171.408         23.0626         229.248 
        1.58313         169.338         22.6358         226.931 
        1.59544         166.204         22.2201          224.92 
        1.60767         164.795         21.8175         222.932 
        1.61994         161.982         21.4235         220.636 
        1.63225         159.387         21.0385         218.416 
        1.64452          156.91          20.664         216.486 
        1.65676         155.043         20.2998         214.651 
          1.669         153.223         19.9441         212.447 
        1.68133         150.249         19.5946         210.505 
        1.69363         147.728         19.2546         208.796 
        1.70585          145.53         18.9249         206.804 
        1.71809         143.657         18.6022         204.614 
        1.73038         141.692          18.286         202.875 
        1.74268         140.504          17.977         200.897 
        1.75493         137.589         17.6765         199.289 
        1.76714         136.782         17.3837         197.523 
        1.77942         134.032         17.0961         195.735 
        1.79173         132.243         16.8142         193.829 
        1.80402         130.309         16.5393         192.111 
         1.8163         128.137         16.2706         190.597 
         1.8286         126.338         16.0075         188.721 
         1.8409         124.719         15.7505         186.975 
        1.85315          122.51         15.4999         185.434 
        1.86537         121.182         15.2553         183.853 
        1.87765         119.724         15.0151         182.276 
        1.88995         117.685         14.7794         180.533 
        1.90221          116.21         14.5497         179.133 
        1.91445         114.434         14.3252         177.434 
        1.92674         112.574         14.1047         175.839 
        1.93902         111.308         13.8888         174.254 
        1.95124         109.777         13.6786         172.799 
         1.9635         108.006         13.4722         171.298 
        1.97583         106.396         13.2688         169.756 
        1.98812         104.895         13.0703         168.587 
        2.00039         103.744         12.8763         166.945 
        2.01264         102.487         12.6864         165.569 
        2.02492         100.865         12.5001         164.047 
        2.03717         99.4812         12.3178          162.77 
        2.04942         98.2008         12.1394         161.352 
        2.06171         96.5748          11.964         159.902 
        2.07397           95.33         11.7924         158.709 
        2.08629         93.9187         11.6234         157.324 
        2.09857         92.8618         11.4582         156.073 
        2.11081         91.4021         11.2968         154.635 
        2.12309         90.2559         11.1382         153.438 
        2.13538         88.8091         10.9824         152.112 
        2.14763          87.532         10.8301         150.864 
        2.15986         86.6765          10.681         149.515 
        2.17214         85.4456         10.5341         148.399 
        2.18443         84.4761         10.3899         147.302 
        2.19671         83.4038         10.2485         146.011 
        2.20898         82.2083           10.11           144.7 
        2.22126         81.0903         9.97383         143.646 
        2.23354          80.053         9.84024          142.52 
         2.2458         78.5028         9.70933         141.284 
        2.25807         77.8788         9.58068         140.171 
        2.27035         76.7539         9.45425         139.043 
        2.28263          75.818         9.33017         137.985 
         2.2949         74.4288         9.20837         136.895 
        2.30718          73.365         9.08872         135.761 
        2.31946         72.6523         8.97113         134.602 
        2.33169         71.5336         8.85614         133.598 
        2.34393         70.8537         8.74298         132.671 
        2.35622         69.7602         8.63143          131.52 
        2.36847         68.9494         8.52215         130.599 
        2.38076          67.753         8.41443         129.481 
        2.39305         67.1642          8.3086         128.568 
        2.40534         66.1047         8.20459         127.496 
        2.41762         65.5194         8.10237         126.494 
        2.42989         64.4282         8.00205         125.561 
        2.44216         63.8652         7.90344          124.52 
         2.4544         62.9632         7.80672         123.632 
        2.46667         61.9816         7.71139         122.689 
        2.47897         61.4905         7.61743         121.662 
        2.49124         60.6854         7.52529         120.751 
        2.50349         59.6134         7.43482         119.866 
        2.51578         59.2378         7.34555         119.037 
        2.52805         58.2479         7.25792          118.06 
        2.54029         57.6996         7.17193         117.172 
        2.55257         56.9946         7.08707          116.35 
        2.56487         56.5466         7.00343         115.481 
        2.57716         55.9245         6.92125         114.618 
        2.58942         55.0427         6.84058          113.78 
        2.60167         54.4319         6.76127         112.962 
        2.61395         54.0249          6.6831         112.099 
        2.62624         53.1962         6.60606         111.214 
        2.63849         52.6003         6.53047         110.452 
        2.65073         51.8736         6.45615         109.623 
        2.66302           51.46         6.38272         108.844 
         2.6753          50.724         6.31048         108.069 
        2.68756         50.3967         6.23951         107.255 
        2.69983         49.7995         6.16957         106.482 
        2.71213         49.2354         6.10057         105.725 
        2.72441         48.7745         6.03274         104.947 
        2.73665         48.2222          5.9661         104.227 
         2.7489         47.7376         5.90051         103.498 
        2.76118         47.2934         5.83571         102.725 
        2.77349         46.8138         5.77172          102.02 
        2.78576         46.3425         5.70895          101.28 
        2.79802         45.9468         5.64714         100.622 
        2.81031         45.4133          5.5861         99.8967 
        2.82259         44.9263         5.52599         99.1511 
        2.83483         44.4809         5.46699         98.5028 
         2.8471         43.9952         5.40874         97.7907 
         2.8594         43.6086         5.35117         97.1042 
         2.8717         43.3153         5.29444         96.4755 
        2.88396         42.8675         5.23876         95.8057 
        2.89619         42.5593         5.18397         95.1039 
        2.90847         42.1465         5.12976         94.4083 
        2.92072         41.8008         5.07642         93.8313 
        2.93299         41.5843         5.02381         93.2037 
        2.94526         41.2201         4.97189         92.5387 
        2.95753         40.9417         4.92073         91.9048 
        2.96982         40.5087          4.8702         91.3014 
        2.98209         40.2949         4.82048         90.6782 
        2.99436         40.0795         4.77142         90.0379 
        3.00666         39.8538         4.72295         89.4337 
        3.01894         39.6262         4.67525         88.8431 
        3.03119         39.3405         4.62828         88.2766 
        3.04345          39.075         4.58195          87.698 
        3.05573         39.0627         4.53616          87.102 
          3.068         38.7516         4.49105         86.5312 
        3.08026         38.5376         4.44659         85.9544 
        3.09254          38.515         4.40266         85.3954 
        3.10483         38.4066         4.35931         84.8385 
         3.1171         38.2456          4.3166         84.2708 
        3.12933         38.0028         4.27459         83.7113 
        3.14159         37.9797         4.23304         83.1585 
