# k  (h/Mpc)    Pcb(k)  (Mpc/h)^3    Pcb_linear(k) (Mpc/h)^3    Pcb_NL(k) (Mpc/h)^3   ShotnoiseSubtracted = false
      0.0156606         4100.75         4105.07         4083.91 
      0.0273761         3557.35         3551.67         3539.68 
      0.0384619         2703.19         2676.61         2670.91 
      0.0498308         2115.14         2105.69         2101.56 
      0.0625568         1784.61         1789.77         1784.66 
      0.0751274         1551.25          1520.7         1512.15 
      0.0867833         1226.13         1224.38         1222.97 
      0.0984825         998.818         968.968         973.929 
       0.111151         838.206         809.088         814.013 
       0.123864         753.051         729.163         733.145 
       0.135742         677.463         655.706         659.751 
        0.14762         576.477         560.666         570.173 
       0.160083          478.57         467.351         478.134 
       0.172465         423.047          407.91         420.989 
       0.184281           392.1         376.046         389.942 
       0.196406         357.595         347.279         358.144 
       0.209011         323.648         308.991         321.161 
       0.221538         288.648         270.029          287.04 
       0.233611         261.467         241.607         260.561 
       0.245665          245.64         222.994          239.89 
       0.258103         222.271         207.589         224.422 
       0.270422         208.238          190.75         207.217 
       0.282519         189.156         173.117         190.564 
       0.294636         182.372         157.729         176.137 
       0.306978         160.964         145.926         165.003 
       0.319417         153.885         136.432         154.831 
        0.33169          143.25         127.345         145.125 
       0.343948         136.454         117.993         136.292 
       0.356249         125.755         109.222         128.889 
       0.368458         120.489         101.875         120.324 
        0.38068          113.46         95.7316          113.99 
       0.392856         105.846         90.1235         108.503 
       0.405069         100.415         84.6398         102.751 
       0.417459         94.7464           79.33         97.2597 
       0.429752         90.9143         74.5636         92.5978 
       0.441978         86.8137         70.3803         88.9496 
       0.454294         80.7456         66.5814         84.2432 
        0.46658          80.543          63.017         80.7183 
       0.478753         74.9621         59.6544         77.3959 
       0.490964         72.5887         56.4958         74.2888 
       0.503334         69.5556         53.5804          71.117 
       0.515665         66.5667         50.9219         68.9489 
       0.527909          63.864         48.4677         65.3993 
       0.540159         61.4841         46.1459         63.1641 
        0.55248         57.8766         43.9427         60.6753 
       0.564743         56.9037         41.9027         58.7608 
        0.57686         55.1143         40.0278         56.6776 
       0.589077         52.1353         38.2579         54.9767 
       0.601441         50.5797          36.575           53.15 
        0.61382         48.9973         34.9882         51.1896 
       0.626067         46.9838         33.5075         49.7606 
       0.638306         45.5595         32.1132         48.0867 
       0.650632          44.148         30.7921         46.4894 
       0.662899         42.8295         29.5541          45.054 
       0.675076         40.9862         28.3939         43.7526 
       0.687267         40.4711         27.2946         42.4653 
       0.699615         39.0178         26.2396         41.4547 
       0.711937         37.2875         25.2424         40.0487 
       0.724148         37.1155         24.3055         39.2482 
       0.736433         35.0208         23.4114         38.0679 
       0.748747         34.5532         22.5611         37.0632 
       0.761037         33.6028          21.755         36.1833 
       0.773197         32.7178         20.9966         35.3799 
       0.785376         31.4829         20.2735         34.4657 
       0.797761         31.0041         19.5733         33.6991 
       0.810096         30.2867         18.9089         32.8663 
       0.822371         29.5119         18.2786         32.0112 
       0.834626         28.6421         17.6782         31.4335 
       0.846916          27.886         17.1034         30.6689 
       0.859215         26.9567         16.5539         29.9867 
       0.871383         26.5596         16.0342         29.4176 
        0.88363         25.8856         15.5337         28.8311 
       0.895928         25.3247         15.0529         28.1248 
       0.908253         24.7855         14.5916         27.6537 
       0.920535         24.2109         14.1513         27.0525 
       0.932774         23.8162         13.7307         26.4865 
        0.94508         23.2052         13.3253         25.9564 
       0.957324          22.757         12.9382         25.4929 
        0.96953         22.1262         12.5678         24.9727 
       0.981769         21.8498          12.211         24.5731 
       0.994071         21.2721         11.8665         24.0855 
         1.0064         20.7598         11.5347         23.6722 
        1.01868         20.3416         11.2166         23.2774 
        1.03092         20.1623          10.912         22.8368 
         1.0432         19.5227         10.6177          22.396 
        1.05553         19.1947         10.3331         22.1478 
        1.06777         18.6553          10.061         21.6624 
           1.08         18.3043          9.7991         21.3274 
        1.09227         18.0055         9.54569         21.0323 
         1.1046         17.7406         9.30033         20.6353 
         1.1169         17.3504         9.06406         20.3092 
        1.12915         17.2225          8.8372         20.0277 
        1.14142         16.6208         8.61767         19.6905 
        1.15365         16.5028         8.40627         19.3969 
        1.16585         16.2991         8.20255         19.1412 
        1.17807         15.8424         8.00536         18.7808 
        1.19037         15.6726         7.81338         18.5885 
        1.20276         15.3926         7.62641         18.2837 
        1.21504         15.1384         7.44707          18.059 
        1.22728         14.7882         7.27425         17.7774 
        1.23954         14.5921         7.10653         17.5279 
        1.25184         14.3247         6.94379         17.3007 
        1.26414         14.1306         6.78609          17.036 
        1.27632          13.862         6.63472         16.8069 
         1.2886         13.7144         6.48691         16.6034 
        1.30093         13.4021         6.34311          16.435 
        1.31316         13.2285         6.20471         16.1733 
        1.32541          13.042         6.07044         16.0152 
        1.33772          12.798          5.9394         15.7876 
        1.35005         12.6473         5.81216         15.6097 
        1.36225         12.4423         5.68994         15.3953 
        1.37447         12.2161         5.57102         15.2092 
        1.38676         12.0448         5.45496         15.0426 
        1.39907          11.844         5.34203         14.8551 
        1.41133         11.6806         5.23278         14.6837 
        1.42358         11.4946          5.1267         14.4952 
        1.43591         11.3494         5.02284         14.3656 
        1.44818         11.1461         4.92244         14.2016 
        1.46037          11.061         4.82538         14.0115 
        1.47263         10.8564         4.73041         13.8917 
        1.48494         10.7705         4.63763         13.6962 
        1.49724         10.5657         4.54742         13.5812 
        1.50952         10.4872          4.4598         13.4389 
        1.52178         10.3029         4.37462         13.2755 
        1.53409         10.1118         4.29133         13.1361 
        1.54637         10.0646         4.21038         12.9713 
        1.55858         9.93739         4.13199         12.8577 
        1.57081         9.71605         4.05548         12.7402 
        1.58313         9.65692         3.98044          12.608 
        1.59544         9.47293         3.90734         12.4899 
        1.60767         9.37799         3.83655         12.3501 
        1.61994         9.22838         3.76726         12.2429 
        1.63225         9.14487         3.69955         12.1293 
        1.64452         9.01933          3.6337         12.0163 
        1.65676         8.89451         3.56965         11.8901 
          1.669         8.82813          3.5071         11.7696 
        1.68133         8.64508         3.44566         11.6563 
        1.69363          8.5511         3.38587         11.5457 
        1.70585         8.44558         3.32788          11.455 
        1.71809         8.35275         3.27114         11.3472 
        1.73038         8.27714         3.21554         11.2537 
        1.74268         8.16938          3.1612         11.1461 
        1.75493         8.03754         3.10836         11.0291 
        1.76714         8.02773         3.05687         10.9496 
        1.77942         7.90896         3.00629         10.8351 
        1.79173          7.7758         2.95672         10.7506 
        1.80402         7.73074         2.90838           10.66 
         1.8163         7.63048         2.86114         10.5748 
         1.8286         7.51013         2.81487          10.485 
         1.8409         7.43869         2.76967         10.4017 
        1.85315         7.35066         2.72561         10.3026 
        1.86537         7.29449          2.6826         10.2227 
        1.87765         7.21397         2.64035          10.138 
        1.88995         7.08245         2.59892         10.0607 
        1.90221         7.05362         2.55852         9.96221 
        1.91445         6.95687         2.51905         9.90452 
        1.92674          6.8861         2.48027         9.80971 
        1.93902         6.83334         2.44231         9.74495 
        1.95124         6.74048         2.40534         9.65355 
         1.9635         6.68035         2.36905          9.5888 
        1.97583         6.62427         2.33328         9.50305 
        1.98812         6.55148         2.29838         9.41843 
        2.00039         6.47443         2.26426         9.36878 
        2.01264          6.4185         2.23087         9.29725 
        2.02492         6.35924         2.19811         9.21786 
        2.03717         6.27915         2.16606         9.15091 
        2.04942         6.19419         2.13469         9.08883 
        2.06171         6.17031         2.10383         9.02197 
        2.07397         6.09714         2.07365          8.9561 
        2.08629         6.03388         2.04394         8.89437 
        2.09857         5.97184         2.01488         8.82506 
        2.11081         5.93008         1.98651         8.77381 
        2.12309         5.85562         1.95862         8.69163 
        2.13538         5.80582         1.93122         8.64191 
        2.14763         5.74072         1.90444         8.58052 
        2.15986         5.70545         1.87822         8.52121 
        2.17214         5.65136          1.8524         8.45099 
        2.18443         5.59265         1.82703         8.40053 
        2.19671          5.5436         1.80218         8.34466 
        2.20898         5.47826         1.77781         8.28825 
        2.22126         5.43645         1.75387         8.22731 
        2.23354         5.39407         1.73038         8.16597 
         2.2458         5.33619         1.70736         8.11439 
        2.25807         5.29883         1.68473         8.06083 
        2.27035         5.24978          1.6625         8.01062 
        2.28263         5.21103         1.64068         7.95475 
         2.2949         5.15969         1.61926         7.90803 
        2.30718         5.11551         1.59822         7.86665 
        2.31946         5.08416         1.57755         7.81255 
        2.33169         5.02844         1.55732          7.7582 
        2.34393         5.00557         1.53743         7.70723 
        2.35622         4.96605         1.51781         7.65792 
        2.36847         4.92055         1.49859         7.60928 
        2.38076         4.88443         1.47965         7.56155 
        2.39305         4.82727         1.46104         7.50683 
        2.40534         4.80103         1.44275         7.45982 
        2.41762         4.74942         1.42478         7.42354 
        2.42989         4.73284         1.40714         7.38024 
        2.44216          4.7035          1.3898         7.33154 
         2.4544         4.64907         1.37279         7.28396 
        2.46667         4.63656         1.35603         7.24084 
        2.47897          4.5903          1.3395         7.19268 
        2.49124         4.54638          1.3233         7.14969 
        2.50349         4.52937         1.30739         7.11592 
        2.51578         4.47524         1.29169         7.07277 
        2.52805         4.45673         1.27628         7.02981 
        2.54029         4.42428         1.26116         6.98887 
        2.55257         4.41267         1.24624         6.95061 
        2.56487         4.36708         1.23153         6.90197 
        2.57716         4.34465         1.21708         6.86495 
        2.58942          4.3089         1.20289         6.82603 
        2.60167         4.28524         1.18895         6.78455 
        2.61395         4.23818          1.1752         6.74859 
        2.62624         4.24462         1.16165          6.7117 
        2.63849         4.21179         1.14836         6.67076 
        2.65073         4.17884         1.13529         6.62997 
        2.66302         4.16287         1.12238         6.59239 
         2.6753         4.13083         1.10968         6.55664 
        2.68756         4.10514          1.0972         6.52451 
        2.69983         4.08701          1.0849         6.48256 
        2.71213         4.06359         1.07277         6.44667 
        2.72441         4.04071         1.06084           6.413 
        2.73665          4.0256         1.04912         6.37492 
         2.7489          3.9963         1.03759         6.34345 
        2.76118         3.97176         1.02619         6.31609 
        2.77349         3.96666         1.01494         6.27447 
        2.78576         3.94672          1.0039         6.24092 
        2.79802         3.93323        0.993032         6.20961 
        2.81031         3.90543          0.9823         6.17765 
        2.82259         3.89149        0.971729          6.1446 
        2.83483         3.88749        0.961355         6.11124 
         2.8471         3.86819        0.951111          6.0801 
         2.8594         3.85683        0.940986         6.04965 
         2.8717         3.83181        0.931012         6.01367 
        2.88396          3.8287        0.921219         5.98269 
        2.89619         3.79629        0.911585         5.95552 
        2.90847          3.7943        0.902053         5.91975 
        2.92072         3.79646        0.892672         5.88996 
        2.93299         3.78936        0.883421          5.8618 
        2.94526         3.78239        0.874292         5.83008 
        2.95753         3.76409        0.865295         5.79977 
        2.96982         3.74257         0.85641         5.77167 
        2.98209         3.74672        0.847667         5.74075 
        2.99436         3.73953        0.839039          5.7118 
        3.00666         3.74728        0.830517         5.68508 
        3.01894          3.7374        0.822129         5.65138 
        3.03119          3.7378        0.813869         5.62496 
        3.04345         3.72712        0.805722         5.59896 
        3.05573         3.73055         0.79767         5.56854 
          3.068         3.71798        0.789737         5.54402 
        3.08026         3.73392         0.78192         5.51764 
        3.09254         3.73519        0.774194         5.48892 
        3.10483         3.73808        0.766572         5.46369 
         3.1171         3.74386        0.759062         5.43855 
        3.12933         3.75481        0.751673           5.409 
        3.14159         3.74671        0.744367         5.38113 
