# k  (h/Mpc)    P(k)  (Mpc/h)^3    P_linear(k)  (Mpc/h)^3     P_NL(k)  ShotnoiseSubtracted = false
      0.0156606         17581.5         17781.8         17652.7 
      0.0273761           15079         15349.5         15207.9 
      0.0384619         11408.8         11554.3         11433.1 
      0.0498308         8826.19         9083.34         8963.01 
      0.0625568         7451.99          7716.8         7608.26 
      0.0751274         6614.35         6554.66         6400.79 
      0.0867833         5136.88         5276.41         5230.42 
      0.0984825         4313.83         4175.12          4221.4 
       0.111151         3676.51         3485.83         3540.48 
       0.123864         3296.58         3141.22         3185.89 
       0.135742         2996.79          2824.6          2869.8 
        0.14762         2599.17         2415.08         2534.92 
       0.160083         2192.38         2013.04         2158.52 
       0.172465         1955.59         1756.95         1941.42 
       0.184281         1782.28         1619.67          1806.5 
       0.196406         1665.47         1495.73         1660.41 
       0.209011         1549.88          1330.8         1502.58 
       0.221538          1397.9         1162.97         1395.51 
       0.233611         1327.69         1040.55         1302.07 
       0.245665         1209.56         960.378         1200.37 
       0.258103          1181.6         894.022         1131.85 
       0.270422         1058.23         821.496         1060.49 
       0.282519         991.539         745.548         998.532 
       0.294636         979.658         679.273         943.122 
       0.306978         886.793         628.439         901.387 
       0.319417         863.329         587.551         849.095 
        0.33169         813.294         548.414         802.077 
       0.343948         777.259         508.135          775.61 
       0.356249         733.301         470.362         745.182 
       0.368458         709.176         438.723         708.739 
        0.38068         690.686         412.267         680.041 
       0.392856         653.239         388.113         654.589 
       0.405069         623.363         364.495          634.34 
       0.417459         598.946          341.63         607.833 
       0.429752          588.54         321.103         586.236 
       0.441978         568.614         303.087         570.295 
       0.454294         540.663         286.727         546.179 
        0.46658         527.706         271.376         533.898 
       0.478753         514.488         256.894         516.677 
       0.490964         495.175         243.291         500.234 
       0.503334         470.477         230.738          487.88 
       0.515665         469.523         219.289          477.28 
       0.527909         451.612          208.72         465.244 
       0.540159         440.266          198.72         452.518 
        0.55248         431.709         189.232         440.433 
       0.564743         427.262         180.448         432.603 
        0.57686         410.949         172.374         420.493 
       0.589077         399.065         164.752          411.09 
       0.601441         393.927         157.504         402.269 
        0.61382         385.224         150.671         394.992 
       0.626067         379.863         144.295          386.78 
       0.638306         364.523          138.29         379.324 
       0.650632         359.746         132.601          368.99 
       0.662899         356.663          127.27         364.618 
       0.675076         343.151         122.273         358.357 
       0.687267         334.599         117.539         349.868 
       0.699615         330.531         112.996         344.151 
       0.711937          325.61         108.702         337.953 
       0.724148         314.971         104.667         332.961 
       0.736433         307.982         100.817         326.495 
       0.748747         303.687         97.1548         320.449 
       0.761037         298.022         93.6835         315.845 
       0.773197         294.489         90.4177         311.314 
       0.785376         290.004         87.3039         306.185 
       0.797761          282.65         84.2885         301.399 
       0.810096         280.033         81.4276         297.426 
       0.822371         269.982         78.7133         292.506 
       0.834626         269.085         76.1278         288.459 
       0.846916          263.25         73.6522         284.158 
       0.859215         263.231          71.286         280.093 
       0.871383         256.215         69.0477          276.01 
        0.88363         254.711         66.8928         273.165 
       0.895928           249.1         64.8221         268.818 
       0.908253         242.607         62.8356         264.495 
       0.920535          241.12         60.9394         261.026 
       0.932774         234.295         59.1285         257.407 
        0.94508         231.862         57.3824         254.724 
       0.957324         231.094         55.7157         251.061 
        0.96953         227.774         54.1206         247.676 
       0.981769         221.009         52.5842         245.243 
       0.994071         220.151         51.1004         242.101 
         1.0064         215.351         49.6716         238.495 
        1.01868          212.56         48.3019         235.616 
        1.03092         207.877         46.9901         233.295 
         1.0432         204.321         45.7226         230.437 
        1.05553         201.643         44.4971         227.473 
        1.06777         201.205         43.3256         225.142 
           1.08         196.256         42.1977         222.376 
        1.09227         193.906         41.1064         219.892 
         1.1046         191.093         40.0498         217.629 
         1.1169         187.393         39.0323         214.643 
        1.12915         184.785         38.0554         212.703 
        1.14142         181.868           37.11         209.953 
        1.15365         179.374         36.1997         207.744 
        1.16585         176.818         35.3224         205.097 
        1.17807         174.588         34.4733         203.459 
        1.19037         172.976         33.6465          201.48 
        1.20276         170.347         32.8414         198.939 
        1.21504          167.04         32.0691         196.796 
        1.22728         163.966         31.3249         194.279 
        1.23954         163.485         30.6026         192.881 
        1.25184         160.404         29.9018          190.68 
        1.26414         157.766         29.2227          188.71 
        1.27632          157.22         28.5709         187.438 
         1.2886         155.157         27.9344          184.96 
        1.30093         150.668         27.3151         182.914 
        1.31316         149.065         26.7192         180.846 
        1.32541         147.524         26.1409         179.439 
        1.33772         146.149         25.5766         177.525 
        1.35005         143.894         25.0287         175.532 
        1.36225         141.906         24.5024         173.944 
        1.37447         139.829         23.9903         171.885 
        1.38676         138.154         23.4905         170.363 
        1.39907         135.708         23.0042         168.606 
        1.41133         133.754         22.5337         167.123 
        1.42358         131.947         22.0769         165.555 
        1.43591         130.525         21.6297         163.744 
        1.44818         129.084         21.1973          162.31 
        1.46037         126.891         20.7794         160.618 
        1.47263         125.616         20.3704         159.381 
        1.48494          123.66         19.9709         157.489 
        1.49724         122.012         19.5824         156.116 
        1.50952         119.789         19.2051         154.643 
        1.52178         119.323         18.8383         153.022 
        1.53409         116.899         18.4796         151.762 
        1.54637         115.494          18.131         150.466 
        1.55858         113.445         17.7934         148.882 
        1.57081         112.006          17.464         147.626 
        1.58313         110.673         17.1408         146.152 
        1.59544         109.298          16.826         144.889 
        1.60767         108.021         16.5212         143.498 
        1.61994         106.192         16.2228         142.438 
        1.63225         104.894         15.9312         140.772 
        1.64452         103.006         15.6476         139.526 
        1.65676         101.541         15.3718         138.391 
          1.669         100.969         15.1025         137.249 
        1.68133         98.9097         14.8379         135.967 
        1.69363         97.9633         14.5804         134.777 
        1.70585         96.1836         14.3307         133.565 
        1.71809         95.0227         14.0864         132.248 
        1.73038         94.3138         13.8469         131.155 
        1.74268         93.0392         13.6129         129.947 
        1.75493         91.4847         13.3854         128.799 
        1.76714         90.2298         13.1637         127.767 
        1.77942          89.192         12.9459         126.499 
        1.79173         87.8457         12.7324         125.517 
        1.80402         87.1877         12.5242         124.447 
         1.8163         85.4796         12.3208         123.246 
         1.8286         84.3164         12.1216         122.205 
         1.8409         83.6701         11.9269          121.13 
        1.85315          82.332         11.7372         120.168 
        1.86537         81.3627          11.552         119.155 
        1.87765         80.6641         11.3701          118.09 
        1.88995         79.3187         11.1916         117.132 
        1.90221         78.2898         11.0177         116.124 
        1.91445         77.1079         10.8477         115.078 
        1.92674         75.9568         10.6807         114.147 
        1.93902         75.0466         10.5172         113.122 
        1.95124         74.3747          10.358         112.242 
         1.9635         73.2401         10.2017         111.168 
        1.97583         72.1865         10.0477         110.373 
        1.98812         71.2684         9.89741         109.427 
        2.00039         70.2897          9.7505         108.495 
        2.01264         69.6979         9.60671         107.585 
        2.02492         68.6914         9.46562         106.686 
        2.03717          67.563          9.3276         105.754 
        2.04942         67.2621         9.19251         105.003 
        2.06171         65.7983         9.05964         104.085 
        2.07397          65.106         8.92969         103.273 
        2.08629         64.3846         8.80174         102.371 
        2.09857         63.4077         8.67661         101.562 
        2.11081         62.4406         8.55443         100.633 
        2.12309         61.9006         8.43431         99.9529 
        2.13538         61.0076         8.31632         99.0928 
        2.14763         60.1897         8.20099         98.2989 
        2.15986         59.1053         8.08811         97.4761 
        2.17214         58.6986          7.9769         96.6707 
        2.18443         57.9967         7.86768         96.0271 
        2.19671         56.9553         7.76063         95.2015 
        2.20898         56.7391         7.65571         94.4207 
        2.22126         55.8383         7.55261         93.6444 
        2.23354         55.1245         7.45145         92.9428 
         2.2458         54.4149         7.35231         92.2365 
        2.25807         53.6941         7.25489          91.452 
        2.27035         53.1721         7.15916         90.7214 
        2.28263         52.3243          7.0652         90.0032 
         2.2949         51.8885         6.97297         89.3054 
        2.30718         50.9045         6.88236         88.6423 
        2.31946         50.4959         6.79332         87.9413 
        2.33169         49.7166         6.70624         87.2625 
        2.34393         49.0588         6.62055         86.6051 
        2.35622         48.6533         6.53609         85.9249 
        2.36847         48.0666         6.45333         85.3359 
        2.38076         47.3114         6.37176         84.5853 
        2.39305         46.7788         6.29163         83.9971 
        2.40534         46.2961         6.21286          83.307 
        2.41762         45.7997         6.13546         82.6297 
        2.42989         45.2561         6.05949         82.0831 
        2.44216         44.7537         5.98482         81.4214 
         2.4544         44.1966         5.91158         80.7989 
        2.46667          43.707         5.83939         80.1625 
        2.47897         43.2166         5.76824         79.5719 
        2.49124         42.6357         5.69847         78.9987 
        2.50349          42.217         5.62996         78.3746 
        2.51578         41.6307         5.56236         77.8672 
        2.52805         41.2456           5.496          77.241 
        2.54029         40.7681         5.43088         76.6232 
        2.55257         40.1643         5.36663         76.0984 
        2.56487         39.8458         5.30329         75.5714 
        2.57716         39.3312         5.24106         75.0266 
        2.58942         38.8133         5.17997           74.45 
        2.60167         38.4836         5.11992         73.9057 
        2.61395         37.9659         5.06072         73.3712 
        2.62624         37.7523         5.00238         72.8014 
        2.63849         37.3168         4.94515         72.2958 
        2.65073          36.934         4.88887         71.7531 
        2.66302         36.4025         4.83327          71.229 
         2.6753         35.9901         4.77856         70.7273 
        2.68756         35.5656         4.72482         70.1897 
        2.69983         35.3311         4.67186         69.7309 
        2.71213          34.962         4.61961          69.247 
        2.72441         34.5931         4.56824         68.7335 
        2.73665         34.1522         4.51779         68.2352 
         2.7489          34.076         4.46812         67.7567 
        2.76118         33.5477         4.41904         67.2919 
        2.77349         33.3586         4.37059         66.8091 
        2.78576         33.0945         4.32306          66.314 
        2.79802         32.6498         4.27625         65.9022 
        2.81031         32.3103         4.23003         65.4228 
        2.82259         32.2235         4.18452         64.9407 
        2.83483          31.792         4.13984         64.5156 
         2.8471         31.4426         4.09573         64.0712 
         2.8594         31.3075         4.05213         63.6121 
         2.8717         31.0695         4.00918         63.1808 
        2.88396         30.7523         3.96701          62.731 
        2.89619         30.5446         3.92552          62.274 
        2.90847         30.3125         3.88447         61.8587 
        2.92072         30.0592         3.84408         61.4464 
        2.93299         29.8867         3.80424         61.0243 
        2.94526         29.6232         3.76493         60.6212 
        2.95753         29.4592         3.72618         60.2105 
        2.96982         29.3615         3.68792         59.7979 
        2.98209         29.0481         3.65027            59.4 
        2.99436         28.9019         3.61312         58.9768 
        3.00666         28.7837         3.57642         58.5935 
        3.01894         28.5585          3.5403         58.1856 
        3.03119          28.427         3.50473         57.8064 
        3.04345         28.2494         3.46965         57.4448 
        3.05573         28.1456         3.43497         57.0631 
          3.068         28.0906         3.40081         56.6789 
        3.08026         27.8976         3.36715         56.2973 
        3.09254         27.7887         3.33388         55.9256 
        3.10483         27.7966         3.30105         55.5659 
         3.1171         27.6475         3.26872         55.2036 
        3.12933         27.6117          3.2369         54.8317 
        3.14159         27.4668         3.20544         54.4643 
