# k  (h/Mpc)    Pcb(k)  (Mpc/h)^3    Pcb_linear(k) (Mpc/h)^3    Pcb_NL(k) (Mpc/h)^3   ShotnoiseSubtracted = false
      0.0156606         16652.9         16724.4         16605.7 
      0.0273761         14313.3         14461.1         14333.9 
      0.0384619         10842.8         10895.1         10787.4 
      0.0498308         8397.71         8569.82         8463.29 
      0.0625568         7092.35         7283.33         7186.78 
      0.0751274         6290.86            6188         6050.67 
      0.0867833         4890.18         4982.03          4941.5 
      0.0984825         4100.06         3942.64         3985.13 
       0.111151         3491.14         3292.04         3341.53 
       0.123864          3131.2         2966.79         3007.38 
       0.135742         2844.39         2667.88         2709.06 
        0.14762         2464.31         2281.17         2390.05 
       0.160083         2074.94         1901.49         2033.04 
       0.172465         1850.77         1659.63         1826.19 
       0.184281         1689.21         1529.99          1699.2 
       0.196406         1574.64         1412.94         1561.01 
       0.209011         1463.07         1257.15         1412.03 
       0.221538         1319.89         1098.63          1309.2 
       0.233611         1250.06         982.991         1219.86 
       0.245665         1140.91         907.264         1124.12 
       0.258103         1109.74         844.584         1059.54 
       0.270422         995.615         776.075         991.938 
       0.282519         930.621         704.331         932.526 
       0.294636         920.489         641.724         879.963 
       0.306978         831.134         593.702         840.318 
       0.319417         807.639         555.077         791.364 
        0.33169         761.051         518.105         747.047 
       0.343948         726.641         480.054         721.756 
       0.356249         684.698          444.37         692.941 
       0.368458         663.009         414.481         658.206 
        0.38068         643.815         389.485         631.088 
       0.392856         608.197         366.668         607.045 
       0.405069         581.188         344.357         588.288 
       0.417459          558.05         322.755         562.664 
       0.429752         546.547         303.362         542.548 
       0.441978         528.272         286.342         527.491 
       0.454294         501.355         270.886          504.94 
        0.46658         490.367         256.385         493.231 
       0.478753         476.982         242.704         477.062 
       0.490964         459.347         229.853         461.669 
       0.503334         435.519         217.992         449.944 
       0.515665         434.484         207.176         440.185 
       0.527909         418.339         197.191          428.53 
       0.540159         407.854         187.744         416.643 
        0.55248         399.912         178.781         405.393 
       0.564743         395.039         170.481         398.009 
        0.57686         379.779         162.853         386.672 
       0.589077         367.854         155.652         378.066 
       0.601441         363.621         148.805         369.739 
        0.61382         356.275         142.349         362.845 
       0.626067         350.877         136.325         355.115 
       0.638306         336.165         130.652         348.322 
       0.650632         331.187         125.277         338.553 
       0.662899         328.467         120.241         334.434 
       0.675076         315.882          115.52         328.365 
       0.687267         308.078         111.048         320.666 
       0.699615         303.864         106.756         315.292 
       0.711937         299.258         102.698         309.632 
       0.724148         289.851         98.8864         305.002 
       0.736433          283.54         95.2491         298.924 
       0.748747         279.274         91.7893         293.314 
       0.761037         274.171         88.5097         288.866 
       0.773197         270.763         85.4243         284.873 
       0.785376          266.78         82.4825         279.939 
       0.797761         260.243         79.6337         275.681 
       0.810096         257.433         76.9307         271.875 
       0.822371         247.878         74.3664          267.37 
       0.834626         247.247         71.9237         263.507 
       0.846916         241.936         69.5849         259.629 
       0.859215         241.967         67.3493         255.894 
       0.871383          235.46         65.2347         252.039 
        0.88363         233.896         63.1988         249.435 
       0.895928         228.562         61.2424         245.492 
       0.908253         222.446         59.3656         241.494 
       0.920535         221.488         57.5742         238.265 
       0.932774         214.652         55.8633         234.978 
        0.94508         212.598         54.2136         232.527 
       0.957324         212.054         52.6389           229.1 
        0.96953         209.068         51.1319         225.891 
       0.981769          202.68         49.6804          223.75 
       0.994071         201.816         48.2786         220.849 
         1.0064          197.33         46.9287         217.522 
        1.01868         194.678         45.6346         214.985 
        1.03092         190.914         44.3953         212.776 
         1.0432          187.35         43.1978         210.151 
        1.05553          184.71         42.0399         207.526 
        1.06777         184.475         40.9331         205.423 
           1.08         179.922         39.8675         202.817 
        1.09227         177.725         38.8365         200.647 
         1.1046         175.095         37.8382         198.504 
         1.1169         172.088          36.877         195.784 
        1.12915         169.585          35.954         193.983 
        1.14142         166.907         35.0608         191.454 
        1.15365         164.676         34.2007         189.444 
        1.16585         162.412         33.3719         186.986 
        1.17807         160.262         32.5697          185.58 
        1.19037         159.009         31.7886          183.71 
        1.20276         156.351         31.0279         181.426 
        1.21504         153.657         30.2983         179.478 
        1.22728         150.716         29.5952         177.205 
        1.23954         150.189         28.9128         175.906 
        1.25184         147.344         28.2507         173.889 
        1.26414         145.061         27.6091         172.068 
        1.27632         144.553         26.9932         171.027 
         1.2886         142.271         26.3919         168.678 
        1.30093         138.264         25.8068         166.853 
        1.31316         137.345         25.2438         164.988 
        1.32541         135.592         24.6975         163.747 
        1.33772         134.335         24.1643         161.976 
        1.35005         132.398         23.6466          160.16 
        1.36225         130.735         23.1494         158.727 
        1.37447         128.593         22.6656         156.898 
        1.38676         127.231         22.1934         155.415 
        1.39907         124.761         21.7339         153.896 
        1.41133         123.058         21.2895         152.591 
        1.42358         121.312         20.8579         151.151 
        1.43591         120.191         20.4353         149.456 
        1.44818         119.053         20.0268         148.199 
        1.46037           116.8          19.632         146.665 
        1.47263         115.669         19.2456         145.555 
        1.48494         114.001         18.8681         143.879 
        1.49724         112.438         18.5011         142.526 
        1.50952         110.393         18.1446         141.234 
        1.52178          109.87         17.7981         139.816 
        1.53409         107.928         17.4592         138.647 
        1.54637         106.434         17.1299          137.44 
        1.55858         104.704         16.8109         136.038 
        1.57081         103.339         16.4996         134.881 
        1.58313         102.161         16.1943          133.57 
        1.59544         101.016         15.8969         132.412 
        1.60767         99.6365         15.6089         131.129 
        1.61994          98.036          15.327         130.227 
        1.63225         96.7766         15.0516         128.667 
        1.64452         95.1497         14.7836         127.559 
        1.65676         93.8691          14.523         126.525 
          1.669         93.2696         14.2686         125.497 
        1.68133         91.6104         14.0186         124.311 
        1.69363         90.7163         13.7753         123.258 
        1.70585         89.1642         13.5394         122.132 
        1.71809         87.9777         13.3085         121.011 
        1.73038          87.263         13.0823         119.963 
        1.74268         85.9485         12.8613         118.893 
        1.75493         84.8996         12.6463          117.83 
        1.76714         83.5613         12.4368         116.884 
        1.77942         82.7746          12.231         115.762 
        1.79173         81.4145         12.0294         114.855 
        1.80402         80.7831         11.8327         113.908 
         1.8163         79.3862         11.6405         112.772 
         1.8286           78.29         11.4523         111.872 
         1.8409         77.5855         11.2683         110.904 
        1.85315         76.3622         11.0891         110.031 
        1.86537         75.5145         10.9141         109.089 
        1.87765         74.8267         10.7422         108.085 
        1.88995         73.5964         10.5736         107.258 
        1.90221         72.6725         10.4093         106.329 
        1.91445         71.4113         10.2487         105.412 
        1.92674         70.5608         10.0909         104.565 
        1.93902         69.6808         9.93647         103.623 
        1.95124         69.1291         9.78608         102.858 
         1.9635         68.0153         9.63842          101.84 
        1.97583         67.1536         9.49288         101.148 
        1.98812         66.3261          9.3509         100.265 
        2.00039         65.2774          9.2121         99.4325 
        2.01264          64.786         9.07625         98.5941 
        2.02492         63.8091         8.94295         97.7967 
        2.03717         62.8197         8.81255         96.9336 
        2.04942         62.3903         8.68492         96.2557 
        2.06171         61.1865         8.55939          95.417 
        2.07397          60.575         8.43661         94.6915 
        2.08629         59.9836         8.31573         93.8653 
        2.09857         59.0889         8.19751         93.1297 
        2.11081          58.047         8.08208         92.2901 
        2.12309         57.7082         7.96859         91.6625 
        2.13538         56.7923         7.85712         90.8878 
        2.14763         56.1174         7.74815         90.1654 
        2.15986         55.0785         7.64151         89.4268 
        2.17214         54.6728         7.53644         88.7042 
        2.18443         54.0554         7.43325         88.0936 
        2.19671         53.1215         7.33211          87.335 
        2.20898         52.9292         7.23298         86.6423 
        2.22126         52.0584         7.13557         85.9252 
        2.23354          51.365            7.04         85.2931 
         2.2458         50.7765         6.94634         84.6575 
        2.25807         50.1844          6.8543         83.9333 
        2.27035         49.6395         6.76385         83.2757 
        2.28263          48.799         6.67508         82.6138 
         2.2949         48.4257         6.58794         81.9821 
        2.30718         47.5925         6.50234         81.3807 
        2.31946         47.0747         6.41821         80.7631 
        2.33169         46.4717         6.33594         80.1339 
        2.34393         45.7345         6.25498         79.5265 
        2.35622         45.4741         6.17518         78.9051 
        2.36847         44.8749           6.097         78.3572 
        2.38076         44.2779         6.01993         77.6935 
        2.39305         43.7437         5.94422         77.1458 
        2.40534         43.2916         5.86981         76.5112 
        2.41762         42.8771         5.79668         75.8988 
        2.42989         42.2485         5.72491         75.4006 
        2.44216         41.8767         5.65436         74.8048 
         2.4544         41.3623         5.58516         74.2342 
        2.46667         40.9296         5.51696         73.6497 
        2.47897         40.4411         5.44974          73.119 
        2.49124         39.8971         5.38382         72.5872 
        2.50349         39.3843         5.31909         72.0232 
        2.51578          38.903         5.25523         71.5519 
        2.52805         38.6932         5.19253          70.991 
        2.54029         38.1537         5.13101         70.4339 
        2.55257          37.588          5.0703         69.9455 
        2.56487         37.3282         5.01046         69.4624 
        2.57716         36.8376         4.95167         68.9716 
        2.58942           36.39         4.89395         68.4424 
        2.60167         35.9561         4.83721         67.9368 
        2.61395         35.5911         4.78129         67.4505 
        2.62624         35.3351         4.72617         66.9445 
        2.63849         34.9987         4.67209         66.4822 
        2.65073         34.6239         4.61892         65.9753 
        2.66302         34.1465         4.56639         65.5025 
         2.6753         33.7701         4.51471         65.0436 
        2.68756         33.2982         4.46393         64.5466 
        2.69983         33.1186          4.4139         64.1286 
        2.71213         32.7916         4.36453         63.6909 
        2.72441         32.4987           4.316         63.2182 
        2.73665         32.1392         4.26833         62.7607 
         2.7489         31.9875          4.2214         62.3232 
        2.76118         31.4916         4.17504         61.8961 
        2.77349         31.3641         4.12926         61.4605 
        2.78576         31.1242         4.08435         61.0074 
        2.79802         30.6625         4.04013         60.6184 
        2.81031         30.3929         3.99646         60.1902 
        2.82259         30.2327         3.95346         59.7479 
        2.83483         29.8844         3.91125         59.3467 
         2.8471         29.5531         3.86958         58.9453 
         2.8594         29.4497         3.82838         58.5395 
         2.8717         29.1531          3.7878         58.1358 
        2.88396         28.9035         3.74796         57.7156 
        2.89619         28.6491         3.70876         57.3098 
        2.90847         28.4774         3.66998          56.937 
        2.92072         28.2414         3.63182         56.5444 
        2.93299         28.1032         3.59418         56.1554 
        2.94526         27.8388         3.55704          55.793 
        2.95753         27.6925         3.52044         55.4202 
        2.96982         27.6111         3.48429         55.0408 
        2.98209         27.3266         3.44872         54.6766 
        2.99436         27.1434         3.41361         54.2925 
        3.00666         27.0712         3.37894         53.9388 
        3.01894         26.8422         3.34481         53.5594 
        3.03119         26.7553         3.31121         53.2113 
        3.04345         26.5786         3.27806         52.8815 
        3.05573         26.5365          3.2453         52.5318 
          3.068         26.3989         3.21303         52.1795 
        3.08026         26.2246         3.18122         51.8286 
        3.09254         26.1489         3.14979         51.4887 
        3.10483         26.1584         3.11878         51.1591 
         3.1171         26.0964         3.08823         50.8261 
        3.12933          26.003         3.05817         50.4878 
        3.14159         25.8725         3.02844         50.1544 
