# k  (h/Mpc)    Pcb(k)  (Mpc/h)^3    Pcb_linear(k) (Mpc/h)^3    Pcb_NL(k) (Mpc/h)^3   ShotnoiseSubtracted = false
      0.0156606         8478.91         8497.71         8448.29 
      0.0273761         7327.22         7349.96         7311.34 
      0.0384619         5563.85         5538.33         5511.49 
      0.0498308         4334.63         4356.68         4332.26 
      0.0625568         3658.26         3702.87            3679 
      0.0751274         3210.71         3146.11         3110.32 
      0.0867833         2517.84         2533.02         2524.53 
      0.0984825         2076.44         2004.59         2020.13 
       0.111151          1752.2         1673.82         1690.08 
       0.123864         1573.84         1508.46         1522.14 
       0.135742         1420.92         1356.49         1370.57 
        0.14762         1217.12         1159.87         1194.63 
       0.160083         1012.88         966.825         1006.95 
       0.172465         900.602         843.856         893.595 
       0.184281         831.549         777.937         830.042 
       0.196406         761.792         718.424         760.928 
       0.209011         697.152         639.215         685.308 
       0.221538         626.859         558.615         622.931 
       0.233611          577.46         499.815         571.935 
       0.245665         538.049         461.311         526.086 
       0.258103         499.361         429.441         493.867 
       0.270422         460.222         394.607         458.598 
       0.282519          421.17         358.128         425.314 
       0.294636         414.901         326.295         397.021 
       0.306978         367.648         301.878         375.401 
       0.319417         352.894         282.238         352.793 
        0.33169         330.769         263.439         331.536 
       0.343948         315.586         244.092          315.76 
       0.356249         294.165         225.947         300.747 
       0.368458         284.338          210.75         282.776 
        0.38068         270.557          198.04         269.205 
       0.392856         252.805         186.439          257.57 
       0.405069         242.186         175.095         247.159 
       0.417459         230.888          164.11         233.925 
       0.429752         222.376          154.25         224.614 
       0.441978         214.444         145.596         217.109 
       0.454294          199.98         137.737           206.5 
        0.46658         200.045         130.363         199.851 
       0.478753         188.967         123.407         192.494 
       0.490964         183.086         116.873         185.283 
       0.503334         173.596         110.842         179.307 
       0.515665         169.827         105.342         174.755 
       0.527909         164.678         100.265         167.569 
       0.540159         159.303          95.462         162.674 
        0.55248         154.819         90.9043         157.246 
       0.564743         150.287         86.6842          153.28 
        0.57686         145.438         82.8055         148.263 
       0.589077         139.125         79.1442         144.788 
       0.601441         136.255         75.6627         140.992 
        0.61382          134.29         72.3801         136.855 
       0.626067         129.352          69.317         133.385 
       0.638306         124.489         66.4325         130.266 
       0.650632         120.217         63.6996         125.757 
       0.662899         120.148         61.1386         123.061 
       0.675076         115.862         58.7385         120.115 
       0.687267          113.12         56.4642         117.324 
       0.699615         109.924         54.2819         114.916 
       0.711937         106.777          52.219         111.908 
       0.724148         105.639         50.2807         110.338 
       0.736433         101.819         48.4312          107.46 
       0.748747          99.767          46.672          105.14 
       0.761037         97.7596         45.0045         102.686 
       0.773197         95.6231         43.4356         101.504 
       0.785376         93.6282         41.9398         98.9527 
       0.797761         92.5477         40.4913         97.5051 
       0.810096         89.3524         39.1169         95.3391 
       0.822371         87.5508          37.813         93.5763 
       0.834626         85.6716          36.571         91.9793 
       0.846916         84.6017         35.3818         90.4077 
       0.859215         82.8823          34.245         88.6304 
       0.871383         81.7244         33.1698         87.1448 
        0.88363         79.5188         32.1346         85.9684 
       0.895928         77.9753         31.1399         84.5631 
       0.908253         76.0134         30.1856         83.0629 
       0.920535         75.6564         29.2747         81.8425 
       0.932774         74.0141         28.4048          80.402 
        0.94508         73.0867          27.566         79.0637 
       0.957324         71.3484         26.7653         78.0432 
        0.96953         71.4152          25.999         76.6665 
       0.981769         69.0159         25.2609         75.8202 
       0.994071         68.2675         24.5482         74.7003 
         1.0064           66.77         23.8618         73.5852 
        1.01868          65.942         23.2038          72.622 
        1.03092         64.7751         22.5736         71.5881 
         1.0432         63.6744         21.9647         70.5094 
        1.05553         62.0451          21.376         69.9202 
        1.06777         61.7276         20.8132         68.9176 
           1.08         60.3627         20.2714         67.9607 
        1.09227         59.5386         19.7472         66.9745 
         1.1046         58.6258         19.2396         66.1419 
         1.1169         57.9637         18.7508         65.1837 
        1.12915         57.0843         18.2815         64.5195 
        1.14142         55.9887         17.8274         63.7243 
        1.15365         55.0759           17.39         62.9954 
        1.16585          54.286         16.9686         62.1312 
        1.17807          53.437         16.5607         61.4035 
        1.19037         53.3235         16.1635         60.8199 
        1.20276         52.3115         15.7767         60.1009 
        1.21504         51.7867         15.4057         59.3961 
        1.22728         50.7152         15.0482         58.7542 
        1.23954         50.1524         14.7013         57.9705 
        1.25184         49.3351         14.3646         57.4657 
        1.26414         48.5715         14.0384         56.7514 
        1.27632         48.1834         13.7252         56.2072 
         1.2886         47.6773         13.4195         55.5631 
        1.30093         46.9538          13.122         54.8491 
        1.31316         46.2222         12.8357         54.4621 
        1.32541         45.9457         12.5579          53.836 
        1.33772         45.0858         12.2868         53.2736 
        1.35005         44.6138         12.0236         52.7661 
        1.36225         43.8532         11.7708         52.2395 
        1.37447         42.8205         11.5248          51.684 
        1.38676              43         11.2847         51.2005 
        1.39907         42.3165          11.051         50.7667 
        1.41133         41.4401          10.825          50.296 
        1.42358         40.9933         10.6056         49.7277 
        1.43591         40.6096         10.3907         49.3222 
        1.44818         40.1364          10.183         48.7356 
        1.46037         39.6064         9.98225         48.3522 
        1.47263         39.3162         9.78578         47.9635 
        1.48494           38.53         9.59386         47.4519 
        1.49724          38.331         9.40724         47.0177 
        1.50952         37.8917         9.22599         46.6109 
        1.52178         37.3041         9.04977         46.2112 
        1.53409          37.015         8.87747         45.7998 
        1.54637         36.4359         8.71001         45.3522 
        1.55858         35.6583         8.54784         44.9374 
        1.57081         35.7143         8.38957         44.6205 
        1.58313         35.2946         8.23432         44.2246 
        1.59544         34.6624          8.0831         43.8211 
        1.60767         34.2367         7.93665         43.4166 
        1.61994         33.8265         7.79333         43.0675 
        1.63225         33.6172         7.65326         42.7112 
        1.64452         33.2012         7.51702         42.3742 
        1.65676         32.7954         7.38453         41.9919 
          1.669         32.4853         7.25513         41.7038 
        1.68133         32.1602         7.12803         41.3048 
        1.69363         31.6292         7.00434         40.9546 
        1.70585         31.4198         6.88438         40.7117 
        1.71809         30.8792         6.76699         40.2765 
        1.73038          30.717         6.65197         40.0384 
        1.74268         30.2706         6.53956         39.6327 
        1.75493         29.9538         6.43026         39.3532 
        1.76714          29.704         6.32375         39.0699 
        1.77942         29.3889         6.21911         38.7522 
        1.79173         28.9698         6.11657         38.4339 
        1.80402          28.655         6.01655         38.2265 
         1.8163         28.4741         5.91883         37.7841 
         1.8286         27.9807         5.82312         37.5662 
         1.8409          27.749         5.72961         37.2573 
        1.85315         27.4405         5.63846         37.0208 
        1.86537         27.0845         5.54948         36.7422 
        1.87765         26.9541         5.46209         36.4475 
        1.88995          26.551         5.37638         36.1131 
        1.90221         26.2887          5.2928         35.8567 
        1.91445         25.9247         5.21114         35.6159 
        1.92674         25.6955         5.13093         35.3324 
        1.93902         25.4064         5.05239         35.0969 
        1.95124          24.985         4.97593         34.8846 
         1.9635         24.8474         4.90084         34.5881 
        1.97583         24.5861         4.82684         34.3636 
        1.98812          24.374         4.75465         34.1093 
        2.00039         24.0859         4.68407         33.8563 
        2.01264         23.7972           4.615         33.6367 
        2.02492          23.628         4.54722         33.3653 
        2.03717         23.2556         4.48091         33.1357 
        2.04942         23.0647         4.41602         32.8807 
        2.06171         22.9005         4.35219         32.6728 
        2.07397         22.6479         4.28976         32.4103 
        2.08629         22.4169          4.2283         32.1779 
        2.09857         22.1645         4.16819         31.9717 
        2.11081         21.9129         4.10949         31.7406 
        2.12309         21.7605         4.05178         31.5153 
        2.13538         21.4375         3.99511          31.322 
        2.14763         21.3013          3.9397         31.0932 
        2.15986         21.0546         3.88548         30.8722 
        2.17214         20.8473         3.83205         30.6802 
        2.18443         20.6498         3.77958         30.4373 
        2.19671         20.3949         3.72816         30.2325 
        2.20898         20.2153         3.67775         30.0157 
        2.22126         20.0922         3.62822          29.824 
        2.23354         19.9173         3.57963          29.642 
         2.2458           19.72           3.532         29.4487 
        2.25807         19.4349          3.4852         29.2125 
        2.27035         19.2535         3.43921         29.0398 
        2.28263         19.1013         3.39407         28.8507 
         2.2949          18.944         3.34977         28.6623 
        2.30718         18.7613         3.30624         28.4607 
        2.31946          18.636         3.26347         28.2689 
        2.33169         18.4092         3.22163         28.0836 
        2.34393         18.2408         3.18047          27.913 
        2.35622         18.0502         3.13989         27.7335 
        2.36847         17.8589         3.10014         27.5298 
        2.38076         17.7044         3.06095         27.3794 
        2.39305         17.5698         3.02246         27.2034 
        2.40534         17.3781         2.98462         26.9874 
        2.41762         17.2028         2.94743         26.8607 
        2.42989         17.0826         2.91094         26.6456 
        2.44216          16.874         2.87507         26.4968 
         2.4544         16.8655         2.83988         26.3118 
        2.46667          16.635         2.80521         26.1531 
        2.47897         16.4309         2.77102         25.9745 
        2.49124         16.3657         2.73751          25.811 
        2.50349         16.1482          2.7046         25.6387 
        2.51578         16.0537         2.67212         25.5016 
        2.52805         15.9011         2.64024         25.3299 
        2.54029         15.7762         2.60896         25.1694 
        2.55257         15.6653         2.57809          25.005 
        2.56487         15.4815         2.54767         24.8583 
        2.57716         15.3737         2.51777         24.6814 
        2.58942         15.2923         2.48843         24.5518 
        2.60167         15.0649         2.45957         24.3938 
        2.61395         15.0233         2.43114         24.2408 
        2.62624         14.9276         2.40311         24.0821 
        2.63849         14.7593         2.37562         23.9575 
        2.65073         14.6392         2.34858         23.7943 
        2.66302         14.5514         2.32187         23.6614 
         2.6753         14.4899         2.29559          23.507 
        2.68756         14.3424         2.26977         23.3736 
        2.69983         14.2195         2.24433          23.216 
        2.71213         14.0939         2.21923         23.0643 
        2.72441         14.0252         2.19455         22.9315 
        2.73665         13.9108         2.17031         22.7947 
         2.7489         13.8768         2.14645         22.6552 
        2.76118         13.7191         2.12288         22.5208 
        2.77349         13.6446          2.0996         22.3878 
        2.78576         13.5376         2.07677         22.2623 
        2.79802          13.485         2.05428         22.1162 
        2.81031         13.3889         2.03208          21.979 
        2.82259         13.2621         2.01021         21.8628 
        2.83483          13.254         1.98875         21.7319 
         2.8471          13.182         1.96756         21.5887 
         2.8594         13.0839         1.94662         21.4543 
         2.8717         13.0225         1.92598         21.3368 
        2.88396         12.9413         1.90572         21.2079 
        2.89619         12.9133         1.88579         21.0801 
        2.90847         12.8295         1.86607         20.9709 
        2.92072         12.7854         1.84667         20.8236 
        2.93299          12.678         1.82753         20.7179 
        2.94526         12.6413         1.80865         20.6052 
        2.95753         12.6058         1.79003         20.4738 
        2.96982         12.5441         1.77165         20.3556 
        2.98209         12.5212         1.75357         20.2404 
        2.99436         12.4674         1.73572         20.1147 
        3.00666         12.4494         1.71809         19.9959 
        3.01894         12.4014         1.70074         19.8951 
        3.03119         12.3796         1.68365         19.7776 
        3.04345         12.3054          1.6668          19.652 
        3.05573         12.3048         1.65014         19.5418 
          3.068          12.266         1.63373         19.4363 
        3.08026         12.2601         1.61756         19.3116 
        3.09254         12.2219         1.60157         19.2079 
        3.10483         12.2304          1.5858         19.1081 
         3.1171         12.2601         1.57027         18.9957 
        3.12933         12.2188         1.55498         18.8858 
        3.14159         12.1768         1.53987         18.7717 
