# k  (h/Mpc)    P(k)  (Mpc/h)^3    P_linear(k)  (Mpc/h)^3     P_NL(k)  ShotnoiseSubtracted = false
      0.0156606         7616.51         7632.65         7589.38 
      0.0273761         6576.17         6591.69         6559.81 
      0.0384619         4990.51         4963.29         4942.22 
      0.0498308         3889.05         3902.66         3883.93 
      0.0625568         3280.96         3316.02         3297.31 
      0.0751274          2874.7         2816.93         2788.49 
      0.0867833         2256.85         2267.74         2261.33 
      0.0984825         1857.22         1794.51         1807.56 
       0.111151         1565.54         1498.31         1511.81 
       0.123864         1406.21         1350.23         1361.58 
       0.135742         1268.73         1214.16         1225.84 
        0.14762          1085.3         1038.15         1066.62 
       0.160083         902.461         865.341         898.042 
       0.172465         801.804         755.267         795.642 
       0.184281         741.006         696.259         738.713 
       0.196406         677.987         642.988         677.308 
       0.209011         619.276          572.09         609.536 
       0.221538         556.229         499.949         552.261 
       0.233611         510.755         447.322         505.924 
       0.245665         476.911         412.859         465.389 
       0.258103         440.255         384.335         436.606 
       0.270422          407.16         353.158          404.95 
       0.282519         371.933         320.509         374.921 
       0.294636         365.438         292.019         349.342 
       0.306978         323.364         270.166         329.756 
       0.319417         310.108         252.589         309.812 
        0.33169         290.298         235.764         290.999 
       0.343948         277.038         218.449           276.4 
       0.356249         257.793          202.21         262.937 
       0.368458         248.845         188.609         246.876 
        0.38068         236.383         177.236         234.799 
       0.392856         220.687         166.852         224.469 
       0.405069         211.103         156.699         214.846 
       0.417459         201.058         146.869         203.295 
       0.429752          193.51         138.045         194.958 
       0.441978         186.325         130.299          188.25 
       0.454294         173.581         123.266         178.868 
        0.46658          173.78         116.667         172.806 
       0.478753         163.579         110.441         166.351 
       0.490964         158.547         104.593         160.004 
       0.503334         150.658         99.1962         154.595 
       0.515665         146.841         94.2744          150.54 
       0.527909         142.246         89.7307         143.972 
       0.540159         137.479         85.4317         139.714 
        0.55248         133.002         81.3528         134.892 
       0.564743         129.208         77.5763         131.308 
        0.57686         125.116         74.1051         126.968 
       0.589077         119.522         70.8285         123.851 
       0.601441         116.902         67.7127         120.483 
        0.61382         114.889         64.7751          116.76 
       0.626067         110.408         62.0338         113.755 
       0.638306         106.564         59.4524         110.905 
       0.650632         102.785         57.0065         107.004 
       0.662899         102.462         54.7146         104.549 
       0.675076         98.7657         52.5667         101.991 
       0.687267         96.5824         50.5314          99.515 
       0.699615         93.6193         48.5784         97.4777 
       0.711937         90.7822         46.7321         94.6906 
       0.724148         89.9597         44.9975         93.3548 
       0.736433         86.3046         43.3423         90.8187 
       0.748747          84.714          41.768         88.8022 
       0.761037           82.82         40.2756         86.6923 
       0.773197         81.0152         38.8716         85.6116 
       0.785376         79.0698          37.533         83.4143 
       0.797761         78.2953         36.2367         82.0975 
       0.810096         75.5718         35.0067         80.2226 
       0.822371         74.1448         33.8398         78.6438 
       0.834626         72.4346         32.7283         77.3217 
       0.846916          71.345          31.664         75.9121 
       0.859215          69.767         30.6467         74.3516 
       0.871383         68.8334         29.6845         73.0991 
        0.88363         66.9382          28.758         72.0625 
       0.895928         65.5566         27.8678         70.7693 
       0.908253         63.9723         27.0138         69.5599 
       0.920535         63.6245         26.1986         68.4365 
       0.932774         62.3254         25.4201         67.2579 
        0.94508         61.4537         24.6694         66.0389 
       0.957324         59.8994         23.9529          65.169 
        0.96953          59.843         23.2671         63.9873 
       0.981769         57.8577         22.6066         63.2242 
       0.994071         57.1874         21.9687           62.28 
         1.0064         55.9407         21.3545         61.3123 
        1.01868         55.0957         20.7656         60.4799 
        1.03092         54.2335         20.2017         59.5744 
         1.0432         53.3079         19.6567         58.6082 
        1.05553         51.9899         19.1299         58.1428 
        1.06777         51.5182         18.6262         57.2271 
           1.08         50.3137         18.1413         56.3986 
        1.09227         49.7137         17.6722         55.6156 
         1.1046         48.9745         17.2179         54.8598 
         1.1169         48.4088         16.7805         54.0737 
        1.12915         47.5865         16.3605         53.4864 
        1.14142         46.6753         15.9541         52.8108 
        1.15365         45.9833         15.5627         52.1991 
        1.16585         45.2877         15.1856         51.4511 
        1.17807          44.559         14.8205         50.7864 
        1.19037         44.4285         14.4651         50.3322 
        1.20276         43.6408          14.119         49.7052 
        1.21504         43.0592          13.787         49.1508 
        1.22728          42.228          13.467         48.5661 
        1.23954         41.7562         13.1565         47.8903 
        1.25184         41.0506         12.8552         47.4545 
        1.26414         40.4686         12.5633         46.8401 
        1.27632         40.1417          12.283          46.361 
         1.2886         39.7178         12.0094         45.8593 
        1.30093         39.0361         11.7432         45.2686 
        1.31316         38.4408         11.4869         44.8975 
        1.32541         38.1831         11.2383         44.3878 
        1.33772         37.4475         10.9958         43.9216 
        1.35005         37.0253         10.7602         43.4904 
        1.36225         36.4252         10.5339         43.0685 
        1.37447         35.5715         10.3138         42.5832 
        1.38676         35.6972         10.0989         42.2091 
        1.39907         35.1221         9.88982         41.8213 
        1.41133         34.3996         9.68757         41.3806 
        1.42358         34.0511         9.49118         40.9487 
        1.43591          33.653          9.2989         40.5979 
        1.44818         33.3097         9.11302         40.1298 
        1.46037         32.8768         8.93334         39.7652 
        1.47263         32.6418         8.75751         39.4489 
        1.48494          32.003         8.58575         39.0317 
        1.49724         31.9125         8.41875         38.6697 
        1.50952         31.4255         8.25654         38.3583 
        1.52178         30.9574         8.09884          37.988 
        1.53409         30.7081         7.94464         37.6538 
        1.54637         30.2992         7.79478         37.2732 
        1.55858         29.6074         7.64964         36.9549 
        1.57081         29.6968           7.508         36.6683 
        1.58313         29.3273         7.36907         36.3186 
        1.59544         28.7799         7.23374          36.017 
        1.60767         28.4539         7.10268         35.6602 
        1.61994         28.1123         6.97442         35.3833 
        1.63225         27.9726         6.84906         35.1196 
        1.64452         27.5525         6.72714         34.8243 
        1.65676         27.2624         6.60857         34.5083 
          1.669         26.9966         6.49277         34.2604 
        1.68133         26.6569         6.37902         33.9479 
        1.69363          26.277         6.26833         33.6172 
        1.70585         26.0715         6.16098         33.4404 
        1.71809         25.6461         6.05593         33.0913 
        1.73038         25.5153         5.95299         32.8843 
        1.74268          25.191         5.85239         32.5537 
        1.75493         24.8762         5.75458         32.3272 
        1.76714         24.7372         5.65926          32.091 
        1.77942         24.4592         5.56561         31.8215 
        1.79173         24.0217         5.47385         31.5719 
        1.80402         23.7822         5.38434         31.4062 
         1.8163         23.6798         5.29689         31.0345 
         1.8286         23.2598         5.21124          30.856 
         1.8409         23.0615         5.12755         30.6247 
        1.85315         22.8308         5.04598         30.4094 
        1.86537         22.5238         4.96635         30.1786 
        1.87765         22.3968         4.88814         29.9433 
        1.88995          22.088         4.81144         29.6798 
        1.90221         21.8684         4.73664         29.4685 
        1.91445         21.5942         4.66356         29.2544 
        1.92674          21.404         4.59178          29.037 
        1.93902         21.1517          4.5215         28.8522 
        1.95124         20.8351         4.45306         28.6898 
         1.9635         20.7164         4.38587         28.4314 
        1.97583         20.5002         4.31964         28.2313 
        1.98812         20.3299         4.25503         28.0474 
        2.00039         20.1076         4.19188         27.8378 
        2.01264         19.8736         4.13006         27.6575 
        2.02492         19.7176          4.0694         27.4253 
        2.03717         19.4149         4.01007          27.248 
        2.04942         19.2625         3.95199         27.0424 
        2.06171         19.1246         3.89487         26.8655 
        2.07397         18.9297           3.839         26.6557 
        2.08629         18.7471         3.78399         26.4661 
        2.09857         18.5621          3.7302         26.3016 
        2.11081         18.3261         3.67767         26.1181 
        2.12309         18.2007         3.62603         25.9357 
        2.13538         17.9694          3.5753         25.7629 
        2.14763          17.799         3.52572          25.591 
        2.15986         17.6753         3.47719         25.4258 
        2.17214          17.472         3.42938         25.2584 
        2.18443         17.3038         3.38243         25.0701 
        2.19671         17.1217         3.33641         24.8929 
        2.20898         16.9588          3.2913         24.7293 
        2.22126         16.8322         3.24697         24.5779 
        2.23354         16.7402         3.20348         24.4119 
         2.2458         16.5308         3.16086         24.2765 
        2.25807         16.3201         3.11898         24.0706 
        2.27035         16.1913         3.07782         23.9307 
        2.28263         16.0287         3.03743         23.7752 
         2.2949         15.9389         2.99778         23.6325 
        2.30718         15.7912         2.95883         23.4834 
        2.31946         15.6691         2.92055         23.3177 
        2.33169         15.4993         2.88311         23.1674 
        2.34393         15.3568         2.84627         23.0385 
        2.35622         15.1576         2.80996         22.8837 
        2.36847         15.0476         2.77438         22.7267 
        2.38076         14.8879         2.73931         22.5989 
        2.39305         14.7907         2.70486         22.4515 
        2.40534         14.6344           2.671         22.2823 
        2.41762         14.4937         2.63772         22.1787 
        2.42989         14.3784         2.60506         22.0159 
        2.44216         14.2418         2.57296         21.8825 
         2.4544         14.2248         2.54147         21.7326 
        2.46667         14.0342         2.51044         21.6113 
        2.47897         13.8609         2.47985         21.4661 
        2.49124         13.8076         2.44985         21.3347 
        2.50349          13.643          2.4204         21.1921 
        2.51578         13.5473         2.39134         21.0901 
        2.52805         13.4413         2.36281         20.9513 
        2.54029         13.3524         2.33482          20.822 
        2.55257         13.2567         2.30719         20.6913 
        2.56487         13.0777         2.27996         20.5683 
        2.57716         13.0018         2.25321         20.4252 
        2.58942         12.9285         2.22695         20.3251 
        2.60167         12.7644         2.20113         20.2006 
        2.61395          12.756         2.17568         20.0758 
        2.62624         12.6496          2.1506         19.9522 
        2.63849         12.5151         2.12599         19.8505 
        2.65073         12.4191          2.1018          19.718 
        2.66302         12.3472         2.07789         19.6107 
         2.6753         12.2894         2.05437         19.4847 
        2.68756         12.1844         2.03127         19.3783 
        2.69983         12.0856          2.0085         19.2567 
        2.71213         11.9849         1.98604         19.1296 
        2.72441         11.9452         1.96395         19.0283 
        2.73665         11.8635         1.94226         18.9164 
         2.7489         11.8089         1.92091         18.7985 
        2.76118         11.6809         1.89981         18.6953 
        2.77349         11.6197         1.87898         18.5856 
        2.78576         11.5232         1.85854         18.4849 
        2.79802         11.4902         1.83842         18.3698 
        2.81031         11.4146         1.81855         18.2598 
        2.82259         11.3603         1.79898         18.1615 
        2.83483         11.3013         1.77978         18.0595 
         2.8471         11.2381         1.76081         17.9492 
         2.8594         11.1963         1.74207         17.8402 
         2.8717         11.1349          1.7236         17.7441 
        2.88396         11.0612         1.70547         17.6422 
        2.89619         11.0287         1.68764          17.539 
        2.90847         10.9824         1.66999         17.4478 
        2.92072         10.9423         1.65262         17.3326 
        2.93299         10.8545          1.6355         17.2442 
        2.94526         10.8407          1.6186         17.1534 
        2.95753         10.7925         1.60194         17.0499 
        2.96982         10.7475         1.58549         16.9527 
        2.98209         10.7424         1.56931         16.8581 
        2.99436         10.7148         1.55333         16.7578 
        3.00666         10.6856         1.53755         16.6653 
        3.01894         10.6597         1.52203          16.586 
        3.03119         10.6219         1.50673         16.4879 
        3.04345         10.5582         1.49165         16.3834 
        3.05573         10.5794         1.47674         16.2967 
          3.068         10.5577         1.46206         16.2147 
        3.08026         10.5351         1.44759         16.1115 
        3.09254         10.5379         1.43328         16.0303 
        3.10483         10.5285         1.41917         15.9519 
         3.1171         10.5514         1.40527         15.8584 
        3.12933         10.5213         1.39159         15.7694 
        3.14159         10.4873         1.37806         15.6794 
