# k  (h/Mpc)    P(k)  (Mpc/h)^3    P_linear(k)  (Mpc/h)^3     P_NL(k)  ShotnoiseSubtracted = false
      0.0156606         12784.8         12665.9         12584.3 
      0.0273761           10997         10935.4         10858.6 
      0.0384619         8333.11         8232.49         8171.89 
      0.0498308         6466.44         6472.48         6414.13 
      0.0625568         5457.09         5499.08         5444.89 
      0.0751274         4818.72         4671.13         4592.68 
      0.0867833         3758.23          3760.3         3738.86 
      0.0984825         3128.05         2975.53         3003.56 
       0.111151         2652.38         2484.33         2515.22 
       0.123864          2380.3         2238.76         2264.47 
       0.135742         2155.88         2013.13         2039.44 
        0.14762         1858.57         1721.27         1789.17 
       0.160083         1554.88         1434.74         1515.01 
       0.172465          1385.7         1252.23         1352.99 
       0.184281         1271.79         1154.39         1258.23 
       0.196406         1174.84         1066.06         1153.97 
       0.209011         1084.38         948.507         1041.82 
       0.221538         977.898         828.897          957.79 
       0.233611         915.072         741.641         886.551 
       0.245665         842.448         684.502         815.877 
       0.258103         803.402         637.209          767.63 
       0.270422         727.893         585.517         715.983 
       0.282519         673.531         531.387         668.588 
       0.294636         667.362          484.15          628.01 
       0.306978          596.89         447.919         597.225 
       0.319417         576.147         418.777         561.839 
        0.33169         542.528         390.882         529.085 
       0.343948          516.97         362.173         508.417 
       0.356249         484.907         335.251         486.401 
       0.368458         470.429           312.7         459.687 
        0.38068         451.919         293.844         439.307 
       0.392856         424.667         276.629         421.439 
       0.405069         407.485         259.795         407.454 
       0.417459         389.956         243.498         387.052 
       0.429752         377.899         228.868         372.739 
       0.441978         365.593         216.026         361.477 
       0.454294         343.977         204.366         345.132 
        0.46658         340.189         193.425         335.868 
       0.478753         327.131         183.103         324.167 
       0.490964           315.8         173.407          312.96 
       0.503334         297.988          164.46         304.117 
       0.515665         295.696         156.299         297.235 
       0.527909         286.056         148.766         287.565 
       0.540159         278.348         141.639         279.335 
        0.55248         272.859         134.876         271.167 
       0.564743         266.784         128.615         265.492 
        0.57686         256.903          122.86         257.334 
       0.589077         247.017         117.428         251.757 
       0.601441          243.78         112.262         245.728 
        0.61382         240.791         107.392         240.082 
       0.626067         235.262         102.847         234.493 
       0.638306         224.423         98.5671         229.861 
       0.650632          219.21         94.5122         222.723 
       0.662899         218.461         90.7123         219.206 
       0.675076         210.322         87.1512         214.448 
       0.687267         204.957         83.7768         209.714 
       0.699615         201.261         80.5389         205.653 
       0.711937          196.95          77.478         201.678 
       0.724148         192.601         74.6021          198.68 
       0.736433         188.261          71.858         194.244 
       0.748747         184.334         69.2478         190.351 
       0.761037         181.515         66.7736         186.686 
       0.773197         178.079         64.4459         184.482 
       0.785376          176.06         62.2265         180.505 
       0.797761         172.032         60.0773         178.178 
       0.810096         168.707         58.0381         174.955 
       0.822371          162.79         56.1035         172.031 
       0.834626         161.417         54.2607         169.151 
       0.846916         159.187         52.4962         166.655 
       0.859215         157.764         50.8096         164.024 
       0.871383         154.111         49.2143         161.292 
        0.88363         151.779         47.6784         159.481 
       0.895928         148.603         46.2025          157.18 
       0.908253         144.554         44.7866         154.331 
       0.920535         143.979         43.4351         152.351 
       0.932774         139.398         42.1443         149.914 
        0.94508         138.354         40.8998          148.15 
       0.957324         137.338         39.7118         145.964 
        0.96953         136.097         38.5749         143.646 
       0.981769         131.834         37.4798          142.36 
       0.994071         131.119         36.4222         140.372 
         1.0064         127.894         35.4039         138.271 
        1.01868         126.526         34.4276          136.74 
        1.03092         124.416         33.4926          135.11 
         1.0432         122.172         32.5892         133.352 
        1.05553         119.646         31.7157         131.964 
        1.06777         119.401         30.8807         130.513 
           1.08         116.879         30.0768         128.762 
        1.09227         115.474         29.2989         127.377 
         1.1046         113.455         28.5458         125.799 
         1.1169         112.101         27.8207         124.102 
        1.12915         110.322         27.1244         122.806 
        1.14142         108.623         26.4505          121.25 
        1.15365         106.746         25.8017         119.929 
        1.16585         105.385         25.1764         118.464 
        1.17807         103.714         24.5711         117.519 
        1.19037         103.432         23.9819         116.269 
        1.20276         101.139          23.408         114.868 
        1.21504         100.284         22.8576         113.552 
        1.22728         98.1523         22.3271         112.347 
        1.23954         97.4455         21.8123         111.167 
        1.25184          95.367         21.3128         110.047 
        1.26414         94.2527         20.8288         108.937 
        1.27632         93.4107         20.3642         108.282 
         1.2886         91.7382         19.9105         106.682 
        1.30093          90.157         19.4691          105.52 
        1.31316         89.5097         19.0443         104.629 
        1.32541         88.4153         18.6322         103.692 
        1.33772         87.1899           18.23         102.612 
        1.35005         86.2899         17.8394          101.55 
        1.36225         85.0597         17.4643          100.59 
        1.37447         83.2466         17.0993           99.51 
        1.38676         83.1426         16.7431         98.4211 
        1.39907         81.3599         16.3964         97.6925 
        1.41133          80.076         16.0611          96.923 
        1.42358         79.2005         15.7355         95.7887 
        1.43591         78.6241         15.4168         94.8625 
        1.44818         77.5579         15.1086         93.9883 
        1.46037         76.3987         14.8107         93.1912 
        1.47263         75.1454         14.5192         92.4483 
        1.48494         74.6098         14.2344         91.5133 
        1.49724         73.2963         13.9575         90.5506 
        1.50952         72.5207         13.6886         89.7237 
        1.52178         71.6218         13.4272         89.0076 
        1.53409         71.0402         13.1715         88.2321 
        1.54637         69.2812         12.9231         87.3803 
        1.55858         68.6758         12.6824         86.5601 
        1.57081         67.9438         12.4476          85.883 
        1.58313         66.8817         12.2173          85.153 
        1.59544         66.1288         11.9929         84.3322 
        1.60767         65.3869         11.7756         83.6139 
        1.61994         64.4756          11.563         83.0414 
        1.63225         63.5098         11.3551         82.0872 
        1.64452         62.8072          11.153         81.5007 
        1.65676         61.8535         10.9564         80.7416 
          1.669         61.4286         10.7644         80.1026 
        1.68133         60.7522         10.5759          79.373 
        1.69363         59.7208         10.3923         78.8061 
        1.70585          59.284         10.2144         78.0881 
        1.71809         58.0274         10.0402         77.5276 
        1.73038         57.4655         9.86953         76.7876 
        1.74268         56.6992         9.70275         76.1801 
        1.75493         56.1261         9.54058         75.5125 
        1.76714         55.3772         9.38255         74.8666 
        1.77942         55.0553         9.22729          74.274 
        1.79173          54.069         9.07515         73.5928 
        1.80402         53.5188         8.92676         73.0877 
         1.8163         52.8443         8.78178         72.3925 
         1.8286         52.0409         8.63977         71.9493 
         1.8409         51.3105         8.50102         71.2547 
        1.85315         50.7077         8.36579          70.822 
        1.86537         50.1661         8.23377         70.1937 
        1.87765         49.5926         8.10411         69.5258 
        1.88995         48.9681         7.97693         69.0025 
        1.90221         48.5605         7.85293         68.4464 
        1.91445         47.7769         7.73178         67.9695 
        1.92674         47.2899         7.61276         67.3921 
        1.93902         46.7094         7.49624         66.8223 
        1.95124         46.3289         7.38278         66.4024 
         1.9635         45.4683         7.27138         65.7904 
        1.97583         45.0307         7.16158         65.3615 
        1.98812         44.3422         7.05447          64.787 
        2.00039         44.0359         6.94976         64.2728 
        2.01264         43.2876         6.84727         63.8133 
        2.02492         42.8886         6.74671         63.3345 
        2.03717          42.273         6.64833         62.7859 
        2.04942         41.7557         6.55205         62.3509 
        2.06171         41.3125         6.45734         61.7989 
        2.07397         40.7096         6.36472         61.3969 
        2.08629         40.2733         6.27352         60.8755 
        2.09857         39.9522         6.18434         60.4724 
        2.11081         39.2602         6.09725         59.9571 
        2.12309         38.8934         6.01163         59.5089 
        2.13538         38.4234         5.92754         59.0929 
        2.14763         38.0735         5.84533         58.6427 
        2.15986         37.8296         5.76488         58.1767 
        2.17214         37.0866         5.68561         57.8256 
        2.18443         36.8987         5.60776          57.312 
        2.19671         36.2335         5.53146         56.8722 
        2.20898         35.8159         5.45668         56.4416 
        2.22126         35.5136         5.38319         56.0177 
        2.23354         35.0419         5.31109         55.6644 
         2.2458         34.7618         5.24043         55.2315 
        2.25807         34.1849         5.17099         54.7944 
        2.27035           33.83         5.10276         54.4081 
        2.28263         33.4067         5.03579         54.0175 
         2.2949         33.0142         4.97005         53.6314 
        2.30718          32.732         4.90547         53.2361 
        2.31946            32.3           4.842         52.8587 
        2.33169         32.0133         4.77994         52.4502 
        2.34393         31.5326         4.71886         52.0485 
        2.35622         31.1976         4.65866         51.7149 
        2.36847         30.8279         4.59967         51.3024 
        2.38076         30.6296         4.54153           50.98 
        2.39305         30.2407         4.48442         50.6165 
        2.40534         29.9255         4.42828         50.1818 
        2.41762          29.548         4.37311         49.8423 
        2.42989         29.2074         4.31896          49.514 
        2.44216         28.9396         4.26574         49.1539 
         2.4544         28.6462         4.21353         48.8222 
        2.46667         28.1651         4.16208         48.4459 
        2.47897          27.985         4.11137         48.1278 
        2.49124         27.6911         4.06164         47.7708 
        2.50349         27.3449         4.01281         47.4716 
        2.51578         26.9942         3.96463         47.1412 
        2.52805         26.7807         3.91733         46.7849 
        2.54029         26.6071         3.87091          46.469 
        2.55257         26.2589         3.82512         46.1495 
        2.56487         26.0407         3.77997         45.8271 
        2.57716         25.7539         3.73562         45.5125 
        2.58942         25.4371         3.69208         45.2117 
        2.60167         25.1511         3.64927         44.8654 
        2.61395         24.9306         3.60708         44.5673 
        2.62624         24.6785          3.5655         44.2763 
        2.63849         24.4928          3.5247         43.9669 
        2.65073         24.2192         3.48459         43.6451 
        2.66302          23.897         3.44496         43.3755 
         2.6753         23.7089         3.40597         43.0782 
        2.68756         23.4748         3.36766         42.7965 
        2.69983         23.3081         3.32991         42.4924 
        2.71213         23.0456         3.29267         42.2153 
        2.72441         22.8972         3.25606         41.9086 
        2.73665         22.6329          3.2201         41.6313 
         2.7489         22.4531         3.18469         41.3583 
        2.76118         22.2748         3.14972         41.0529 
        2.77349         22.1146         3.11518         40.8063 
        2.78576         21.9434          3.0813         40.5338 
        2.79802         21.6287         3.04794         40.2598 
        2.81031         21.5248           3.015          40.012 
        2.82259         21.3836         2.98255         39.7334 
        2.83483         21.1517         2.95071          39.459 
         2.8471         21.0864         2.91927         39.1971 
         2.8594         20.8483         2.88819         38.9534 
         2.8717         20.6493         2.85758         38.6876 
        2.88396         20.5159         2.82752         38.4225 
        2.89619         20.4449         2.79795         38.1787 
        2.90847         20.2752         2.76869         37.9237 
        2.92072         20.1011          2.7399         37.6971 
        2.93299         20.0445         2.71151         37.4481 
        2.94526         19.9135         2.68349         37.2026 
        2.95753         19.7614         2.65587         36.9671 
        2.96982         19.7284          2.6286         36.7292 
        2.98209          19.542         2.60177         36.4969 
        2.99436         19.5169         2.57528         36.2638 
        3.00666         19.3584         2.54913         36.0248 
        3.01894         19.3142         2.52338         35.7817 
        3.03119         19.1558         2.49803         35.5481 
        3.04345         19.1129         2.47303         35.3316 
        3.05573          19.038         2.44831         35.1122 
          3.068          19.012         2.42396          34.874 
        3.08026         18.9972         2.39997         34.6548 
        3.09254         18.8852         2.37626         34.4466 
        3.10483          18.854         2.35286          34.234 
         3.1171         18.8113         2.32981         34.0173 
        3.12933         18.7728         2.30713         33.8011 
        3.14159         18.7494         2.28471         33.5839 
