# k  (h/Mpc)    P(k)  (Mpc/h)^3    P_linear(k)  (Mpc/h)^3     P_NL(k)  ShotnoiseSubtracted = false
      0.0156606         11715.5         11630.2         11557.1 
      0.0273761         10084.5         10041.6         9975.68 
      0.0384619         7644.22         7559.89         7509.07 
      0.0498308         5936.66         5943.79         5895.36 
      0.0625568         5009.69         5049.98         5004.59 
      0.0751274         4417.65         4289.69         4223.56 
      0.0867833         3449.45         3453.27         3435.68 
      0.0984825         2864.97         2732.58         2757.28 
       0.111151         2426.47          2281.5         2308.34 
       0.123864         2178.07         2055.99         2078.42 
       0.135742         1971.16         1848.78         1871.78 
        0.14762         1696.79         1580.75         1639.54 
       0.160083         1417.41         1317.61          1386.7 
       0.172465         1262.69            1150         1236.48 
       0.184281         1160.74         1060.15         1149.64 
       0.196406         1069.83         979.034          1054.1 
       0.209011         985.532         871.079         951.143 
       0.221538           888.4         761.233          872.18 
       0.233611         828.303         681.101         805.773 
       0.245665         764.753         628.626         741.377 
       0.258103         724.724         585.194         697.176 
       0.270422         659.084         537.722         649.585 
       0.282519          608.12          488.01         605.541 
       0.294636         602.313         444.629         567.996 
       0.306978         537.359         411.356         539.465 
       0.319417         517.893         384.593         507.371 
        0.33169         487.311         358.975         477.532 
       0.343948         464.392          332.61         458.009 
       0.356249          435.03         307.885          437.72 
       0.368458         421.913         287.175         413.169 
        0.38068         404.269         269.858         394.488 
       0.392856         379.314         254.048         378.204 
       0.405069         364.154         238.589         365.144 
       0.417459         348.173         223.622         346.404 
       0.429752         336.723         210.186         333.429 
       0.441978         325.698         198.393         323.124 
       0.454294         305.682         187.684         308.247 
        0.46658          303.37         177.636         299.619 
       0.478753         290.561         168.157          289.03 
       0.490964         280.773         159.253         278.835 
       0.503334          264.95         151.035         270.736 
       0.515665         262.212         143.541         264.462 
       0.527909         254.005         136.623         255.366 
       0.540159         246.844         130.077         248.028 
        0.55248         241.846         123.867         240.553 
       0.564743         235.811         118.117         235.301 
        0.57686         227.347         112.832         227.931 
       0.589077         218.321         107.843         222.974 
       0.601441         215.071         103.099          217.54 
        0.61382         212.704         98.6258          212.21 
       0.626067          207.18         94.4519         207.155 
       0.638306         197.738         90.5215         202.948 
       0.650632           192.6         86.7975         196.474 
       0.662899         192.329         83.3078           193.1 
       0.675076         185.299         80.0374         188.779 
       0.687267         180.537         76.9384         184.638 
       0.699615         176.994         73.9648         180.952 
       0.711937         172.824         71.1538          177.26 
       0.724148         169.557         68.5126         174.659 
       0.736433         165.467         65.9925         170.625 
       0.748747         161.836         63.5954         167.142 
       0.761037         159.386         61.3232         163.732 
       0.773197         156.121         59.1855         161.861 
       0.785376         154.265         57.1472         158.199 
       0.797761         151.009         55.1735         156.179 
       0.810096         147.514         53.3007         153.158 
       0.822371         142.784          51.524          150.58 
       0.834626         141.092         49.8316         148.008 
       0.846916          139.48         48.2112         145.778 
       0.859215         137.744         46.6623         143.362 
       0.871383         134.909         45.1972         140.956 
        0.88363         132.438         43.7866         139.299 
       0.895928         129.818         42.4311         137.311 
       0.908253         126.337         41.1308         134.779 
       0.920535         125.753         39.8897         133.067 
       0.932774         122.048         38.7042         130.819 
        0.94508         121.094         37.5613         129.159 
       0.957324         119.721         36.4703         127.324 
        0.96953         119.043         35.4262         125.251 
       0.981769         115.243         34.4205         124.103 
       0.994071         114.488         33.4493         122.326 
         1.0064         111.722          32.514         120.526 
        1.01868         110.672         31.6174         119.148 
        1.03092         108.701         30.7588         117.672 
         1.0432         106.832         29.9291         116.112 
        1.05553         104.354         29.1269         114.966 
        1.06777         104.172         28.3601         113.632 
           1.08         102.107         27.6217         112.116 
        1.09227         100.695         26.9074         110.784 
         1.1046         98.9263         26.2158         109.419 
         1.1169         97.7705         25.5498         107.923 
        1.12915         96.3539         24.9103         106.798 
        1.14142         94.7655         24.2915         105.466 
        1.15365         92.9512         23.6956         104.287 
        1.16585         91.8492         23.1214         103.034 
        1.17807         90.3997         22.5655         102.126 
        1.19037         90.2238         22.0244         101.056 
        1.20276         88.2321         21.4973         99.8533 
        1.21504         87.6007         20.9918         98.6718 
        1.22728         85.6768         20.5047         97.6767 
        1.23954         85.0306         20.0319         96.5651 
        1.25184         83.3246         19.5731         95.6526 
        1.26414         82.2525         19.1286         94.6712 
        1.27632         81.4525         18.7019         94.0081 
         1.2886         80.1018         18.2853          92.663 
        1.30093         78.9501         17.8799         91.6233 
        1.31316         78.1604         17.4898         90.9351 
        1.32541         77.3798         17.1113         90.0407 
        1.33772          76.175          16.742         89.1085 
        1.35005         75.4724         16.3833         88.2253 
        1.36225         74.3037         16.0388          87.354 
        1.37447         72.6833         15.7036         86.4235 
        1.38676          72.717         15.3764         85.4897 
        1.39907         71.2811         15.0581         84.8749 
        1.41133         70.0492         14.7501         84.2135 
        1.42358         69.2781         14.4511         83.1705 
        1.43591         68.7778         14.1584         82.4351 
        1.44818         67.7871         13.8753          81.601 
        1.46037         66.9325         13.6018         80.9749 
        1.47263         65.9088          13.334          80.318 
        1.48494         65.2346         13.0725         79.5011 
        1.49724         64.1766         12.8183         78.6946 
        1.50952         63.6925         12.5713          77.949 
        1.52178         62.8522         12.3312         77.3514 
        1.53409         62.3086         12.0964         76.6838 
        1.54637         60.8099         11.8682         75.9339 
        1.55858          60.222         11.6472         75.2073 
        1.57081         59.7372         11.4316         74.6662 
        1.58313         58.7577           11.22         74.0487 
        1.59544         58.0151          11.014         73.3121 
        1.60767         57.4388         10.8144         72.7064 
        1.61994         56.5638         10.6191         72.1779 
        1.63225         55.8459         10.4283          71.388 
        1.64452         55.2415         10.2426          70.887 
        1.65676         54.4166         10.0621         70.2106 
          1.669          54.044         9.88579         69.6842 
        1.68133         53.4689          9.7126         69.0419 
        1.69363          52.534         9.54406         68.5562 
        1.70585         52.2301         9.38061         67.9695 
        1.71809         51.1227         9.22066          67.433 
        1.73038         50.7396         9.06393          66.852 
        1.74268         50.0314         8.91076         66.2869 
        1.75493         49.5055         8.76183         65.7324 
        1.76714         48.8921         8.61669         65.1782 
        1.77942         48.5957         8.47411         64.6794 
        1.79173         47.7441         8.33439         64.0812 
        1.80402         47.3064         8.19811         63.6632 
         1.8163         46.6806         8.06496         63.0576 
         1.8286         46.0189         7.93454          62.688 
         1.8409         45.4539         7.80712         62.0651 
        1.85315         44.9616         7.68293         61.7111 
        1.86537         44.4333         7.56168         61.1883 
        1.87765         44.0064         7.44261         60.6202 
        1.88995         43.4018         7.32581         60.1311 
        1.90221         43.0417         7.21194         59.6624 
        1.91445         42.3612         7.10067         59.2697 
        1.92674         41.9374         6.99136         58.7544 
        1.93902         41.4753         6.88436         58.2823 
        1.95124          41.069         6.78016         57.9134 
         1.9635           40.39         6.67785         57.4061 
        1.97583         40.0293         6.57702         57.0389 
        1.98812         39.3655         6.47865         56.5428 
        2.00039         39.1421         6.38248         56.0982 
        2.01264          38.509         6.28836         55.7248 
        2.02492         38.1832         6.19601         55.3043 
        2.03717         37.6243         6.10566         54.8381 
        2.04942         37.1801         6.01723         54.4436 
        2.06171         36.8414         5.93026         53.9843 
        2.07397         36.3223         5.84519          53.635 
        2.08629         35.9353         5.76145          53.203 
        2.09857         35.6139         5.67954         52.8508 
        2.11081         35.0987         5.59956         52.4171 
        2.12309         34.7799         5.52093          52.019 
        2.13538         34.2956          5.4437         51.6856 
        2.14763         33.9858         5.36821         51.2855 
        2.15986         33.7824         5.29432          50.881 
        2.17214         33.1622         5.22152          50.584 
        2.18443         32.9107         5.15003         50.1299 
        2.19671          32.401         5.07996         49.7713 
        2.20898         31.9776         5.01127         49.3961 
        2.22126         31.8224         4.94379         49.0295 
        2.23354          31.408         4.87757         48.7345 
         2.2458         31.0844         4.81268         48.3547 
        2.25807         30.5629         4.74891          47.984 
        2.27035          30.269         4.68624         47.6598 
        2.28263         29.9191         4.62474         47.3285 
         2.2949         29.6625         4.56437         46.9933 
        2.30718         29.3485         4.50506          46.639 
        2.31946         29.0308         4.44677         46.3127 
        2.33169         28.7382         4.38977         45.9706 
        2.34393         28.3448         4.33368         45.6182 
        2.35622         28.0225         4.27839         45.3533 
        2.36847         27.7058         4.22422          44.983 
        2.38076         27.4697         4.17083         44.7153 
        2.39305         27.1428         4.11837          44.405 
        2.40534         26.8862         4.06682         44.0291 
        2.41762         26.5143         4.01615         43.7514 
        2.42989           26.33         3.96642         43.4457 
        2.44216         26.0101         3.91755         43.1511 
         2.4544          25.748          3.8696         42.8631 
        2.46667         25.3927         3.82235         42.5477 
        2.47897         25.1966         3.77578         42.2692 
        2.49124          24.972         3.73011         41.9662 
        2.50349         24.6502         3.68526         41.7056 
        2.51578         24.3115         3.64101         41.4221 
        2.52805         24.1513         3.59757         41.1176 
        2.54029         23.9542         3.55495         40.8399 
        2.55257         23.6989         3.51289         40.5598 
        2.56487         23.4845         3.47143         40.2859 
        2.57716         23.2158          3.4307          39.999 
        2.58942         22.9767         3.39071         39.7601 
        2.60167         22.7478          3.3514          39.467 
        2.61395         22.5382         3.31265          39.201 
        2.62624         22.3431         3.27446         38.9527 
        2.63849         22.1706           3.237         38.6871 
        2.65073         21.8978         3.20016         38.4102 
        2.66302         21.6207         3.16376         38.1767 
         2.6753         21.5053         3.12795         37.9255 
        2.68756         21.3388         3.09277         37.6924 
        2.69983         21.1482         3.05811         37.4134 
        2.71213         20.9552          3.0239         37.1737 
        2.72441          20.788         2.99028         36.9103 
        2.73665         20.5684         2.95725         36.6679 
         2.7489         20.3644         2.92474         36.4328 
        2.76118           20.24         2.89262         36.1694 
        2.77349         20.1293          2.8609         35.9564 
        2.78576         19.9021         2.82979         35.7305 
        2.79802         19.6968         2.79915         35.4896 
        2.81031         19.5967          2.7689         35.2764 
        2.82259          19.496          2.7391         35.0414 
        2.83483         19.2461         2.70986         34.7981 
         2.8471         19.1927         2.68099          34.565 
         2.8594         19.0266         2.65244         34.3531 
         2.8717         18.8476         2.62433          34.123 
        2.88396         18.6853         2.59673         33.8943 
        2.89619         18.6523         2.56957         33.6871 
        2.90847         18.5079          2.5427         33.4689 
        2.92072         18.3551         2.51626         33.2674 
        2.93299         18.2985         2.49018         33.0616 
        2.94526         18.2058         2.46445         32.8455 
        2.95753         18.1093         2.43909         32.6338 
        2.96982          18.046         2.41404         32.4323 
        2.98209         17.8949          2.3894         32.2315 
        2.99436         17.8689         2.36508         32.0274 
        3.00666         17.7435         2.34105         31.8191 
        3.01894         17.6849         2.31741         31.6098 
        3.03119         17.5391         2.29413         31.4114 
        3.04345         17.5744         2.27116         31.2234 
        3.05573         17.4867         2.24847         31.0288 
          3.068         17.4152         2.22611         30.8226 
        3.08026          17.404         2.20407         30.6338 
        3.09254         17.3265         2.18229         30.4506 
        3.10483         17.2914         2.16081         30.2651 
         3.1171         17.2981         2.13964         30.0801 
        3.12933         17.2409         2.11881         29.8932 
        3.14159         17.1759         2.09822         29.7025 
