# k  (h/Mpc)    Pcb(k)  (Mpc/h)^3    Pcb_linear(k) (Mpc/h)^3    Pcb_NL(k) (Mpc/h)^3   ShotnoiseSubtracted = false
      0.0156606         4107.18         4111.52         4090.33 
      0.0273761         3562.91         3557.25         3545.24 
      0.0384619         2707.42         2680.81          2675.1 
      0.0498308         2118.43         2108.99         2104.86 
      0.0625568         1787.39         1792.58         1787.46 
      0.0751274         1553.69         1523.09         1514.52 
      0.0867833         1228.04          1226.3         1224.89 
      0.0984825         1000.39         970.489         975.458 
       0.111151         839.536         810.358         815.291 
       0.123864         754.245         730.308         734.295 
       0.135742         678.542         656.735         660.787 
        0.14762           577.4         561.546         571.068 
       0.160083         479.336         468.084         478.885 
       0.172465         423.729          408.55          421.65 
       0.184281         392.732         376.637         390.553 
       0.196406         358.172         347.824         358.706 
       0.209011         324.176         309.475         321.665 
       0.221538         289.124         270.453         287.491 
       0.233611         261.904         241.986          260.97 
       0.245665          246.05         223.344         240.267 
       0.258103         222.647         207.914         224.774 
       0.270422         208.587          191.05         207.542 
       0.282519         189.475         173.388         190.863 
       0.294636         182.688         157.976         176.414 
       0.306978         161.242         146.155         165.262 
       0.319417         154.152         136.646         155.074 
        0.33169           143.5         127.545         145.353 
       0.343948         136.694         118.178         136.506 
       0.356249         125.979         109.393         129.091 
       0.368458         120.706         102.035         120.513 
        0.38068         113.666         95.8819         114.169 
       0.392856         106.038         90.2649         108.673 
       0.405069         100.598         84.7726         102.913 
       0.417459         94.9224         79.4545         97.4124 
       0.429752         91.0838         74.6806         92.7431 
       0.441978          86.977         70.4907         89.0892 
       0.454294         80.8974         66.6859         84.3754 
        0.46658         80.6961         63.1159         80.8449 
       0.478753         75.1055          59.748         77.5174 
       0.490964         72.7282         56.5845         74.4054 
       0.503334         69.6888         53.6645         71.2285 
       0.515665         66.6967         51.0018         69.0571 
       0.527909         63.9899         48.5438         65.5019 
       0.540159         61.6062         46.2183         63.2632 
        0.55248         57.9943         44.0117         60.7705 
       0.564743         57.0181         41.9685          58.853 
        0.57686         55.2254         40.0906         56.7665 
       0.589077         52.2416          38.318          55.063 
       0.601441          50.684         36.6324         53.2334 
        0.61382         49.0994         35.0431         51.2699 
       0.626067         47.0815         33.5601         49.8387 
       0.638306         45.6547         32.1636         48.1622 
       0.650632         44.2395         30.8404         46.5624 
       0.662899         42.9212         29.6005         45.1247 
       0.675076         41.0746         28.4385         43.8213 
       0.687267         40.5581         27.3374          42.532 
       0.699615         39.1017         26.2808         41.5197 
       0.711937         37.3689          25.282         40.1115 
       0.724148         37.1964         24.3436         39.3098 
       0.736433         35.0979         23.4482         38.1276 
       0.748747         34.6296         22.5965         37.1214 
       0.761037         33.6769         21.7891         36.2401 
       0.773197         32.7909         21.0295         35.4355 
       0.785376         31.5538         20.3053         34.5198 
       0.797761         31.0747          19.604          33.752 
       0.810096         30.3554         18.9386         32.9179 
       0.822371         29.5794         18.3073         32.0614 
       0.834626         28.7079          17.706         31.4829 
       0.846916         27.9507         17.1302          30.717 
       0.859215         27.0197         16.5799         30.0338 
       0.871383          26.622         16.0593         29.4638 
        0.88363         25.9465         15.5581         28.8764 
       0.895928          25.384         15.0765          28.169 
       0.908253         24.8438         14.6145         27.6971 
       0.920535         24.2689         14.1735         27.0949 
       0.932774         23.8731         13.7523         26.5281 
        0.94508         23.2616         13.3462         25.9972 
       0.957324          22.812         12.9585         25.5329 
        0.96953         22.1809         12.5875         25.0119 
       0.981769         21.9027         12.2302         24.6117 
       0.994071         21.3242         11.8851         24.1233 
         1.0064         20.8111         11.5528         23.7093 
        1.01868         20.3918         11.2342         23.3139 
        1.03092         20.2125         10.9291         22.8726 
         1.0432         19.5721         10.6343         22.4311 
        1.05553         19.2429         10.3493         22.1825 
        1.06777         18.7025         10.0768         21.6964 
           1.08         18.3503         9.81448         21.3609 
        1.09227         18.0512         9.56067         21.0653 
         1.1046         17.7858         9.31492         20.6677 
         1.1169         17.3954         9.07829         20.3411 
        1.12915         17.2667         8.85107         20.0592 
        1.14142          16.664         8.63119         19.7214 
        1.15365         16.5456         8.41946         19.4273 
        1.16585         16.3413         8.21542         19.1712 
        1.17807         15.8839         8.01792         18.8102 
        1.19037          15.714         7.82564         18.6176 
        1.20276         15.4338         7.63838         18.3124 
        1.21504         15.1784         7.45876         18.0874 
        1.22728         14.8276         7.28567         17.8053 
        1.23954         14.6312         7.11768         17.5554 
        1.25184          14.363         6.95469         17.3278 
        1.26414         14.1685         6.79674         17.0628 
        1.27632         13.8998         6.64513         16.8333 
         1.2886         13.7518         6.49709         16.6295 
        1.30093         13.4384         6.35306         16.4608 
        1.31316         13.2647         6.21445         16.1986 
        1.32541         13.0779         6.07996         16.0403 
        1.33772         12.8333         5.94872         15.8123 
        1.35005         12.6821         5.82128         15.6342 
        1.36225         12.4768         5.69887         15.4195 
        1.37447         12.2498         5.57976         15.2331 
        1.38676         12.0783         5.46352         15.0662 
        1.39907         11.8771         5.35041         14.8784 
        1.41133         11.7132         5.24099         14.7068 
        1.42358         11.5271         5.13475         14.5179 
        1.43591         11.3813         5.03072         14.3881 
        1.44818         11.1777         4.93016         14.2239 
        1.46037         11.0927         4.83295         14.0335 
        1.47263         10.8874         4.73783         13.9135 
        1.48494         10.8013         4.64491         13.7177 
        1.49724         10.5962         4.55456         13.6025 
        1.50952         10.5169          4.4668           13.46 
        1.52178         10.3326         4.38149         13.2964 
        1.53409         10.1408         4.29807         13.1567 
        1.54637         10.0939         4.21699         12.9916 
        1.55858         9.96604         4.13847         12.8779 
        1.57081         9.74437         4.06185         12.7601 
        1.58313         9.68506         3.98668         12.6278 
        1.59544         9.50074         3.91347         12.5095 
        1.60767         9.40554         3.84257         12.3695 
        1.61994         9.25526         3.77318         12.2621 
        1.63225         9.17191         3.70536         12.1483 
        1.64452         9.04613          3.6394         12.0352 
        1.65676         8.92092         3.57525         11.9088 
          1.669         8.85432          3.5126         11.7881 
        1.68133         8.67086         3.45106         11.6746 
        1.69363         8.57647         3.39118         11.5638 
        1.70585         8.47076          3.3331          11.473 
        1.71809         8.37767         3.27627          11.365 
        1.73038          8.3018         3.22058         11.2714 
        1.74268         8.19388         3.16616         11.1636 
        1.75493         8.06155         3.11324         11.0464 
        1.76714         8.05194         3.06167         10.9668 
        1.77942         7.93293         3.01101         10.8521 
        1.79173         7.79911         2.96136         10.7674 
        1.80402         7.75408         2.91294         10.6767 
         1.8163         7.65349         2.86563         10.5914 
         1.8286         7.53279         2.81929         10.5015 
         1.8409         7.46126         2.77401          10.418 
        1.85315         7.37301         2.72989         10.3188 
        1.86537         7.31661         2.68681         10.2388 
        1.87765         7.23606          2.6445         10.1539 
        1.88995         7.10401           2.603         10.0765 
        1.90221         7.07525         2.56253         9.97784 
        1.91445          6.9782           2.523         9.92006 
        1.92674         6.90706         2.48416         9.82511 
        1.93902         6.85429         2.44614         9.76024 
        1.95124         6.76115         2.40912          9.6687 
         1.9635         6.70077         2.37277         9.60384 
        1.97583          6.6446         2.33694         9.51796 
        1.98812         6.57179         2.30198         9.43321 
        2.00039         6.49454         2.26781         9.38348 
        2.01264         6.43837         2.23437         9.31184 
        2.02492           6.379         2.20156         9.23232 
        2.03717         6.29849         2.16945         9.16527 
        2.04942         6.21344         2.13803         9.10309 
        2.06171         6.18964         2.10713         9.03612 
        2.07397         6.11608         2.07691         8.97016 
        2.08629         6.05267         2.04715         8.90832 
        2.09857         5.99052         2.01805         8.83891 
        2.11081         5.94865         1.98963         8.78758 
        2.12309         5.87391         1.96169         8.70527 
        2.13538         5.82402         1.93425         8.65547 
        2.14763         5.75863         1.90742         8.59398 
        2.15986         5.72336         1.88117         8.53458 
        2.17214         5.66914          1.8553         8.46425 
        2.18443         5.61014          1.8299         8.41371 
        2.19671         5.56119           1.805         8.35775 
        2.20898         5.49543          1.7806         8.30125 
        2.22126          5.4535         1.75662         8.24022 
        2.23354         5.41114         1.73309         8.17878 
         2.2458         5.35294         1.71003         8.12713 
        2.25807         5.31551         1.68738         8.07348 
        2.27035         5.26635         1.66511         8.02319 
        2.28263         5.22749         1.64326         7.96723 
         2.2949         5.17594         1.62181         7.92044 
        2.30718         5.13163         1.60073           7.879 
        2.31946         5.10016         1.58002         7.82481 
        2.33169         5.04435         1.55977         7.77037 
        2.34393         5.02132         1.53984         7.71932 
        2.35622         4.98171         1.52019         7.66994 
        2.36847         4.93614         1.50095         7.62123 
        2.38076         4.89977         1.48197         7.57341 
        2.39305         4.84247         1.46334         7.51861 
        2.40534         4.81618         1.44502         7.47152 
        2.41762         4.76453         1.42701         7.43519 
        2.42989         4.74783         1.40934         7.39182 
        2.44216         4.71833         1.39198         7.34304 
         2.4544         4.66376         1.37494         7.29539 
        2.46667         4.65129         1.35815          7.2522 
        2.47897         4.60497          1.3416         7.20397 
        2.49124         4.56083         1.32538         7.16091 
        2.50349         4.54373         1.30944         7.12709 
        2.51578         4.48946         1.29372         7.08387 
        2.52805         4.47089         1.27829         7.04084 
        2.54029         4.43825         1.26314         6.99983 
        2.55257          4.4267          1.2482         6.96152 
        2.56487         4.38096         1.23346          6.9128 
        2.57716         4.35834         1.21899         6.87572 
        2.58942         4.32268         1.20478         6.83674 
        2.60167         4.29885         1.19081         6.79519 
        2.61395         4.25166         1.17705         6.75918 
        2.62624         4.25807         1.16348         6.72223 
        2.63849         4.22532         1.15017         6.68123 
        2.65073         4.19216         1.13708         6.64038 
        2.66302         4.17617         1.12414         6.60274 
         2.6753         4.14395         1.11142         6.56693 
        2.68756         4.11827         1.09892         6.53475 
        2.69983         4.10007          1.0866         6.49274 
        2.71213         4.07648         1.07445         6.45679 
        2.72441         4.05352          1.0625         6.42307 
        2.73665          4.0384         1.05077         6.38492 
         2.7489         4.00913         1.03922          6.3534 
        2.76118         3.98443          1.0278           6.326 
        2.77349         3.97923         1.01653         6.28432 
        2.78576         3.95928         1.00548         6.25072 
        2.79802         3.94566        0.994591         6.21935 
        2.81031         3.91786        0.983841         6.18734 
        2.82259         3.90391        0.973254         6.15424 
        2.83483          3.8998        0.962863         6.12083 
         2.8471         3.88045        0.952604         6.08964 
         2.8594         3.86907        0.942463         6.05914 
         2.8717         3.84391        0.932473         6.02311 
        2.88396          3.8408        0.922665         5.99208 
        2.89619         3.80837        0.913016         5.96487 
        2.90847         3.80636        0.903468         5.92904 
        2.92072          3.8085        0.894073          5.8992 
        2.93299         3.80145        0.884807           5.871 
        2.94526         3.79434        0.875664         5.83923 
        2.95753         3.77609        0.866653         5.80887 
        2.96982         3.75451        0.857754         5.78073 
        2.98209         3.75858        0.848997         5.74976 
        2.99436         3.75142        0.840356         5.72076 
        3.00666         3.75922         0.83182           5.694 
        3.01894         3.74925        0.823419         5.66025 
        3.03119         3.74969        0.815146         5.63379 
        3.04345         3.73898        0.806987         5.60774 
        3.05573         3.74236        0.798922         5.57728 
          3.068         3.72976        0.790977         5.55272 
        3.08026         3.74576        0.783147          5.5263 
        3.09254         3.74704        0.775409         5.49753 
        3.10483         3.74992        0.767774         5.47227 
         3.1171         3.75572        0.760253         5.44709 
        3.12933         3.76667        0.752853         5.41748 
        3.14159         3.75857        0.745535         5.38957 
