# k  (h/Mpc)    Pcb(k)  (Mpc/h)^3    Pcb_linear(k) (Mpc/h)^3    Pcb_NL(k) (Mpc/h)^3   ShotnoiseSubtracted = false
      0.0156606         10622.2         10651.7         10586.5 
      0.0273761         9164.99         9212.08         9155.68 
      0.0384619         6955.44         6941.13         6898.88 
      0.0498308         5409.19         5460.04         5420.26 
      0.0625568         4565.86         4640.56         4602.85 
      0.0751274         4020.85         3942.76         3887.37 
      0.0867833         3144.24         3174.41         3160.14 
      0.0984825          2605.6         2512.16         2533.85 
       0.111151         2204.17         2097.63         2120.89 
       0.123864         1979.11          1890.4          1909.9 
       0.135742         1789.68         1699.95         1719.98 
        0.14762         1538.05         1453.54          1504.2 
       0.160083         1282.98         1211.62         1270.79 
       0.172465         1142.36         1057.51         1131.37 
       0.184281         1051.87         974.901         1051.65 
       0.196406         967.284         900.319         964.098 
       0.209011         889.155         801.055         869.436 
       0.221538         801.034         700.048         795.074 
       0.233611         743.836         626.361          733.08 
       0.245665         688.963         578.108         674.391 
       0.258103         648.312         538.169         633.841 
       0.270422           592.2         494.515         589.928 
       0.282519         544.788           448.8         548.987 
       0.294636         539.005         408.907         514.177 
       0.306978         479.654         378.308         487.678 
       0.319417         461.583         353.696         458.549 
        0.33169         433.864         330.137         431.354 
       0.343948         413.592         305.891         412.844 
       0.356249          386.86         283.153         394.125 
       0.368458         374.911         264.108         371.554 
        0.38068          358.32         248.181         354.415 
       0.392856         335.685         233.642          339.57 
       0.405069         322.255         219.425         327.277 
       0.417459         307.822          205.66          310.15 
       0.429752         297.175         193.303         298.346 
       0.441978         287.287         182.458         288.901 
       0.454294          268.95          172.61          275.34 
        0.46658         267.832         163.369         267.284 
       0.478753         255.344         154.651         257.706 
       0.490964         247.007         146.463         248.431 
       0.503334         233.282         138.905         240.993 
       0.515665         230.084         132.013         235.249 
       0.527909         223.124         125.651         226.676 
       0.540159         216.479         119.631         220.138 
        0.55248         211.806          113.92          213.28 
       0.564743          206.01         108.631         208.408 
        0.57686         198.893          103.77         201.765 
       0.589077         190.767          99.182          197.32 
       0.601441         187.529          94.819         192.415 
        0.61382         185.506         90.7054         187.391 
       0.626067         180.007         86.8667         182.825 
       0.638306         172.125          83.252         178.974 
       0.650632         167.112         79.8271         173.099 
       0.662899         167.167         76.6177          169.88 
       0.675076         161.153         73.6099         165.982 
       0.687267         157.032         70.7599         162.322 
       0.699615         153.565         68.0251         159.015 
       0.711937         149.648         65.4398         155.531 
       0.724148         147.297         63.0108         153.285 
       0.736433         143.329          60.693         149.608 
       0.748747         140.137         58.4885         146.501 
       0.761037         137.892         56.3987         143.346 
       0.773197         134.942         54.4327         141.744 
       0.785376         133.054         52.5581           138.4 
       0.797761         130.641         50.7429         136.597 
       0.810096         126.999         49.0205         133.798 
       0.822371         123.482         47.3865         131.509 
       0.834626         121.557           45.83         129.241 
       0.846916         120.333         44.3397         127.233 
       0.859215          118.44         42.9152         125.001 
       0.871383         116.344         41.5678         122.901 
        0.88363         113.804         40.2705         121.385 
       0.895928         111.651         39.0239         119.627 
       0.908253          108.71          37.828         117.416 
       0.920535         108.182         36.6865           115.9 
       0.932774          105.31         35.5963         113.866 
        0.94508         104.354         34.5451         112.289 
       0.957324         102.691         33.5417         110.765 
        0.96953         102.481         32.5814         108.914 
       0.981769          99.134         31.6565          107.87 
       0.994071         98.3157         30.7633         106.296 
         1.0064         96.0303         29.9031         104.752 
        1.01868         95.1967         29.0785         103.499 
        1.03092         93.3799         28.2888          102.16 
         1.0432         91.8177         27.5258         100.771 
        1.05553         89.4954          26.788         99.8268 
        1.06777         89.3774         26.0828         98.5952 
           1.08          87.625         25.4037         97.2813 
        1.09227         86.2797         24.7467         95.9971 
         1.1046         84.8138         24.1107         94.8391 
         1.1169          83.838         23.4981         93.5111 
        1.12915         82.7529           22.91          92.554 
        1.14142         81.2417         22.3409         91.4139 
        1.15365         79.6588         21.7928         90.3728 
        1.16585         78.7216         21.2647         89.2705 
        1.17807         77.5167         20.7535         88.3991 
        1.19037         77.4098         20.2558         87.4945 
        1.20276         75.7375         19.7711         86.4702 
        1.21504         75.2316         19.3062         85.4249 
        1.22728         73.5722         18.8581         84.5827 
        1.23954         72.9358         18.4233         83.5565 
        1.25184         71.6085         18.0014         82.8122 
        1.26414          70.536         17.5926         81.9162 
        1.27632         69.8739         17.2002          81.257 
         1.2886         68.8843          16.817         80.1613 
        1.30093         67.9821         16.4442         79.2214 
        1.31316         67.1262         16.0854         78.6814 
        1.32541         66.6025         15.7373         77.8421 
        1.33772         65.4981         15.3976         77.0342 
        1.35005         64.8971         15.0677         76.2986 
        1.36225         63.8316         14.7509         75.5201 
        1.37447          62.396         14.4426         74.7264 
        1.38676         62.5052         14.1417         73.9433 
        1.39907         61.4044         13.8489         73.4016 
        1.41133         60.2728         13.5657          72.823 
        1.42358         59.5732         13.2907         71.9072 
        1.43591         59.1632         13.0215         71.3174 
        1.44818          58.307         12.7612         70.5287 
        1.46037          57.655         12.5096         70.0255 
        1.47263         56.8865         12.2633         69.4549 
        1.48494          56.069         12.0228         68.7306 
        1.49724         55.3416          11.789         68.0687 
        1.50952         54.9999         11.5618         67.4166 
        1.52178         54.2307          11.341         66.9062 
        1.53409         53.7237         11.1251         66.3255 
        1.54637         52.5458         10.9152          65.681 
        1.55858         51.8839          10.712         65.0408 
        1.57081         51.6032         10.5136         64.6043 
        1.58313         50.8463         10.3191         64.0754 
        1.59544         50.1176         10.1296         63.4308 
        1.60767         49.5618         9.94606         62.9068 
        1.61994         48.7993         9.76645         62.4213 
        1.63225         48.3553         9.59091         61.7852 
        1.64452         47.8361         9.42018         61.3455 
        1.65676         47.1287         9.25414          60.762 
          1.669          46.784         9.09199          60.336 
        1.68133         46.3407          8.9327         59.7611 
        1.69363         45.5529          8.7777         59.3337 
        1.70585         45.2917         8.62737         58.8745 
        1.71809         44.4002         8.48026         58.3417 
        1.73038         44.1476         8.33612         57.9139 
        1.74268         43.4371         8.19525         57.3776 
        1.75493         43.0173         8.05828         56.9286 
        1.76714         42.4651         7.92479         56.4695 
        1.77942         42.2146         7.79366         56.0394 
        1.79173         41.5452         7.66516         55.5331 
        1.80402         41.1298         7.53983         55.1887 
         1.8163         40.6417         7.41737         54.6425 
         1.8286         40.1111         7.29742         54.3274 
         1.8409         39.6423         7.18023         53.7932 
        1.85315         39.2443         7.06601         53.4927 
        1.86537         38.7573          6.9545         53.0643 
        1.87765         38.4486         6.84499         52.5951 
        1.88995         37.8605         6.73757         52.1366 
        1.90221         37.5807         6.63284         51.7463 
        1.91445         36.9497          6.5305          51.416 
        1.92674         36.6465         6.42998         50.9688 
        1.93902         36.2684         6.33156         50.5852 
        1.95124         35.7928         6.23573           50.26 
         1.9635          35.338         6.14164         49.8393 
        1.97583         35.0226          6.0489         49.5252 
        1.98812         34.4974         5.95843         49.1064 
        2.00039          34.175         5.86999         48.7271 
        2.01264         33.7062         5.78342         48.4169 
        2.02492         33.4318         5.69848         48.0481 
        2.03717         32.9822         5.61539         47.6575 
        2.04942         32.6309         5.53407         47.3031 
        2.06171         32.2941         5.45408         46.9429 
        2.07397         31.9409         5.37584           46.62 
        2.08629         31.5636         5.29882         46.2674 
        2.09857         31.2593         5.22349         45.9561 
        2.11081         30.8434         5.14993         45.5968 
        2.12309         30.6146         5.07762         45.2524 
        2.13538         30.0779         5.00659         44.9834 
        2.14763         29.8807         4.93715         44.6305 
        2.15986         29.6107          4.8692         44.2825 
        2.17214         29.2033         4.80225         44.0212 
        2.18443         28.8944         4.73649         43.6364 
        2.19671          28.513         4.67205         43.3441 
        2.20898         28.1713         4.60888          43.018 
        2.22126         28.0809         4.54682         42.7036 
        2.23354         27.6942         4.48592         42.4593 
         2.2458         27.3665         4.42623         42.1326 
        2.25807          26.977         4.36759         41.8166 
        2.27035         26.6975         4.30995         41.5471 
        2.28263         26.4482         4.25339          41.266 
         2.2949         26.1951         4.19786         40.9757 
        2.30718         25.9457         4.14332         40.6615 
        2.31946         25.7052         4.08971         40.3853 
        2.33169         25.3941         4.03729         40.1041 
        2.34393         25.0871          3.9857         39.8054 
        2.35622         24.8264         3.93485          39.583 
        2.36847         24.5526         3.88503         39.2619 
        2.38076         24.3508         3.83593         39.0366 
        2.39305         24.0223         3.78768         38.7756 
        2.40534         23.8369         3.74026          38.455 
        2.41762         23.5266         3.69367         38.2341 
        2.42989         23.4222         3.64793          37.944 
        2.44216         23.0884         3.60298         37.7092 
         2.4544         22.9062         3.55889          37.456 
        2.46667         22.6469         3.51543         37.1974 
        2.47897         22.3912         3.47259         36.9465 
        2.49124         22.2358         3.43059         36.6993 
        2.50349         21.9572         3.38934         36.4656 
        2.51578         21.7088         3.34865         36.2262 
        2.52805         21.5373          3.3087         35.9713 
        2.54029         21.3584          3.2695         35.7288 
        2.55257          21.182         3.23082         35.4851 
        2.56487         20.9123         3.19269         35.2583 
        2.57716         20.7753         3.15522         35.0046 
        2.58942         20.5555         3.11845         34.8064 
        2.60167          20.359         3.08229          34.564 
        2.61395         20.1713         3.04665         34.3327 
        2.62624         20.0616         3.01153         34.1117 
        2.63849         19.8556         2.97708         33.8947 
        2.65073         19.6023          2.9432          33.659 
        2.66302         19.3994         2.90972         33.4563 
         2.6753         19.3306         2.87679         33.2423 
        2.68756         19.2079         2.84443         33.0491 
        2.69983          19.001         2.81255          32.797 
        2.71213           18.79         2.78109         32.5917 
        2.72441          18.675         2.75017         32.3691 
        2.73665         18.5263          2.7198         32.1588 
         2.7489          18.325         2.68989         31.9611 
        2.76118         18.2312         2.66035         31.7409 
        2.77349         18.1163         2.63118         31.5534 
        2.78576         17.9031         2.60256         31.3671 
        2.79802         17.7861         2.57439         31.1558 
        2.81031         17.6754         2.54656         30.9659 
        2.82259         17.5823         2.51916         30.7757 
        2.83483         17.4012         2.49226         30.5681 
         2.8471         17.3542         2.46571         30.3599 
         2.8594         17.2034         2.43946         30.1721 
         2.8717         17.0995          2.4136         29.9797 
        2.88396         16.9417         2.38822         29.7849 
        2.89619         16.9026         2.36324         29.6067 
        2.90847         16.8017         2.33853         29.4258 
        2.92072         16.6689         2.31421         29.2379 
        2.93299          16.599         2.29023          29.072 
        2.94526         16.5462         2.26656         28.8904 
        2.95753         16.4763         2.24324         28.7008 
        2.96982         16.3657          2.2202         28.5279 
        2.98209         16.2661         2.19754         28.3568 
        2.99436         16.2284         2.17517         28.1796 
        3.00666         16.1313         2.15307         27.9998 
        3.01894         16.0927         2.13133          27.827 
        3.03119         15.9855         2.10992         27.6566 
        3.04345         16.0012          2.0888         27.4899 
        3.05573         15.9807         2.06792         27.3235 
          3.068         15.8639         2.04735         27.1501 
        3.08026         15.8544         2.02709          26.983 
        3.09254         15.7863         2.00706         26.8221 
        3.10483         15.7803          1.9873         26.6633 
         3.1171         15.8241         1.96783         26.5068 
        3.12933         15.7563         1.94868         26.3481 
        3.14159         15.6714         1.92973         26.1792 
