# k  (h/Mpc)    P(k)  (Mpc/h)^3    P_linear(k)  (Mpc/h)^3     P_NL(k)  ShotnoiseSubtracted = false
      0.0156606         7717.04         7632.65         7589.38 
      0.0273761         6662.39         6591.69         6559.81 
      0.0384619         5055.79         4963.29         4942.22 
      0.0498308         3939.52         3902.66         3883.93 
      0.0625568         3323.52         3316.02         3297.31 
      0.0751274         2912.51         2816.93         2788.49 
      0.0867833         2286.17         2267.74         2261.33 
      0.0984825         1881.79         1794.51         1807.56 
       0.111151         1586.42         1498.31         1511.81 
       0.123864         1424.94         1350.23         1361.58 
       0.135742         1285.72         1214.16         1225.84 
        0.14762            1100         1038.15         1066.62 
       0.160083         914.748         865.341         898.042 
       0.172465         812.796         755.267         795.642 
       0.184281         751.073         696.259         738.713 
       0.196406         687.288         642.988         677.308 
       0.209011         627.908          572.09         609.536 
       0.221538         564.053         499.949         552.261 
       0.233611         518.131         447.322         505.924 
       0.245665         483.676         412.859         465.389 
       0.258103         446.783         384.335         436.606 
       0.270422         413.015         353.158          404.95 
       0.282519         377.356         320.509         374.921 
       0.294636         370.889         292.019         349.342 
       0.306978          328.24         270.166         329.756 
       0.319417         314.807         252.589         309.812 
        0.33169         294.741         235.764         290.999 
       0.343948         281.269         218.449           276.4 
       0.356249         261.782          202.21         262.937 
       0.368458         252.735         188.609         246.876 
        0.38068         240.123         177.236         234.799 
       0.392856         224.201         166.852         224.469 
       0.405069         214.498         156.699         214.846 
       0.417459         204.316         146.869         203.295 
       0.429752         196.658         138.045         194.958 
       0.441978         189.392         130.299          188.25 
       0.454294         176.454         123.266         178.868 
        0.46658         176.641         116.667         172.806 
       0.478753         166.339         110.441         166.351 
       0.490964         161.212         104.593         160.004 
       0.503334         153.146         99.1962         154.595 
       0.515665         149.335         94.2744          150.54 
       0.527909          144.68         89.7307         143.972 
       0.540159         139.841         85.4317         139.714 
        0.55248         135.369         81.3528         134.892 
       0.564743         131.484         77.5763         131.308 
        0.57686         127.311         74.1051         126.968 
       0.589077         121.639         70.8285         123.851 
       0.601441         118.988         67.7127         120.483 
        0.61382         116.981         64.7751          116.76 
       0.626067         112.443         62.0338         113.755 
       0.638306         108.492         59.4524         110.905 
       0.650632         104.654         57.0065         107.004 
       0.662899          104.36         54.7146         104.549 
       0.675076         100.602         52.5667         101.991 
       0.687267         98.3566         50.5314          99.515 
       0.699615         95.3648         48.5784         97.4777 
       0.711937         92.4926         46.7321         94.6906 
       0.724148         91.6362         44.9975         93.3548 
       0.736433         87.9616         43.3423         90.8187 
       0.748747         86.3177          41.768         88.8022 
       0.761037         84.4104         40.2756         86.6923 
       0.773197         82.5688         38.8716         85.6116 
       0.785376         80.6159          37.533         83.4143 
       0.797761         79.8116         36.2367         82.0975 
       0.810096           77.03         35.0067         80.2226 
       0.822371         75.5679         33.8398         78.6438 
       0.834626         73.8357         32.7283         77.3217 
       0.846916         72.7474          31.664         75.9121 
       0.859215         71.1532         30.6467         74.3516 
       0.871383         70.1976         29.6845         73.0991 
        0.88363         68.2635          28.758         72.0625 
       0.895928          66.865         27.8678         70.7693 
       0.908253         65.2377         27.0138         69.5599 
       0.920535         64.8912         26.1986         68.4365 
       0.932774         63.5563         25.4201         67.2579 
        0.94508         62.6769         24.6694         66.0389 
       0.957324         61.0963         23.9529          65.169 
        0.96953         61.0583         23.2671         63.9873 
       0.981769         59.0246         22.6066         63.2242 
       0.994071          58.347         21.9687           62.28 
         1.0064         57.0729         21.3545         61.3123 
        1.01868         56.2275         20.7656         60.4799 
        1.03092         55.3308         20.2017         59.5744 
         1.0432         54.3873         19.6567         58.6082 
        1.05553         53.0341         19.1299         58.1428 
        1.06777          52.581         18.6262         57.2271 
           1.08          51.356         18.1413         56.3986 
        1.09227         50.7318         17.6722         55.6156 
         1.1046         49.9756         17.2179         54.8598 
         1.1169         49.3986         16.7805         54.0737 
        1.12915         48.5655         16.3605         53.4864 
        1.14142         47.6375         15.9541         52.8108 
        1.15365         46.9218         15.5627         52.1991 
        1.16585         46.2135         15.1856         51.4511 
        1.17807         45.4722         14.8205         50.7864 
        1.19037          45.343         14.4651         50.3322 
        1.20276         44.5304          14.119         49.7052 
        1.21504         43.9571          13.787         49.1508 
        1.22728         43.0979          13.467         48.5661 
        1.23954          42.616         13.1565         47.8903 
        1.25184          41.899         12.8552         47.4545 
        1.26414         41.2961         12.5633         46.8401 
        1.27632         40.9628          12.283          46.361 
         1.2886         40.5313         12.0094         45.8593 
        1.30093         39.8458         11.7432         45.2686 
        1.31316         39.2328         11.4869         44.8975 
        1.32541         38.9735         11.2383         44.3878 
        1.33772         38.2226         10.9958         43.9216 
        1.35005         37.7953         10.7602         43.4904 
        1.36225         37.1769         10.5339         43.0685 
        1.37447         36.3027         10.3138         42.5832 
        1.38676         36.4357         10.0989         42.2091 
        1.39907         35.8502         9.88982         41.8213 
        1.41133         35.1082         9.68757         41.3806 
        1.42358         34.7487         9.49118         40.9487 
        1.43591         34.3521          9.2989         40.5979 
        1.44818         33.9955         9.11302         40.1298 
        1.46037         33.5492         8.93334         39.7652 
        1.47263         33.3117         8.75751         39.4489 
        1.48494         32.6542         8.58575         39.0317 
        1.49724         32.5545         8.41875         38.6697 
        1.50952          32.072         8.25654         38.3583 
        1.52178         31.5883         8.09884          37.988 
        1.53409         31.3377         7.94464         37.6538 
        1.54637         30.9106         7.79478         37.2732 
        1.55858         30.2067         7.64964         36.9549 
        1.57081         30.2952           7.508         36.6683 
        1.58313         29.9199         7.36907         36.3186 
        1.59544         29.3622         7.23374          36.017 
        1.60767          29.025         7.10268         35.6602 
        1.61994         28.6786         6.97442         35.3833 
        1.63225         28.5296         6.84906         35.1196 
        1.64452         28.1107         6.72714         34.8243 
        1.65676         27.8079         6.60857         34.5083 
          1.669         27.5352         6.49277         34.2604 
        1.68133         27.1983         6.37902         33.9479 
        1.69363         26.8011         6.26833         33.6172 
        1.70585         26.5948         6.16098         33.4404 
        1.71809         26.1571         6.05593         33.0913 
        1.73038          26.024         5.95299         32.8843 
        1.74268         25.6854         5.85239         32.5537 
        1.75493         25.3707         5.75458         32.3272 
        1.76714         25.2214         5.65926          32.091 
        1.77942         24.9367         5.56561         31.8215 
        1.79173         24.5028         5.47385         31.5719 
        1.80402         24.2547         5.38434         31.4062 
         1.8163         24.1458         5.29689         31.0345 
         1.8286          23.714         5.21124          30.856 
         1.8409         23.5137         5.12755         30.6247 
        1.85315         23.2741         5.04598         30.4094 
        1.86537         22.9622         4.96635         30.1786 
        1.87765          22.835         4.88814         29.9433 
        1.88995         22.5162         4.81144         29.6798 
        1.90221         22.2896         4.73664         29.4685 
        1.91445         22.0063         4.66356         29.2544 
        1.92674         21.8127         4.59178          29.037 
        1.93902         21.5566          4.5215         28.8522 
        1.95124         21.2281         4.45306         28.6898 
         1.9635         21.1106         4.38587         28.4314 
        1.97583         20.8882         4.31964         28.2313 
        1.98812         20.7156         4.25503         28.0474 
        2.00039         20.4858         4.19188         27.8378 
        2.01264         20.2442         4.13006         27.6575 
        2.02492         20.0887          4.0694         27.4253 
        2.03717         19.7754         4.01007          27.248 
        2.04942         19.6204         3.95199         27.0424 
        2.06171         19.4812         3.89487         26.8655 
        2.07397         19.2797           3.839         26.6557 
        2.08629         19.0914         3.78399         26.4661 
        2.09857         18.8993          3.7302         26.3016 
        2.11081          18.662         3.67767         26.1181 
        2.12309         18.5355         3.62603         25.9357 
        2.13538          18.295          3.5753         25.7629 
        2.14763         18.1267         3.52572          25.591 
        2.15986          17.988         3.47719         25.4258 
        2.17214         17.7855         3.42938         25.2584 
        2.18443         17.6167         3.38243         25.0701 
        2.19671         17.4247         3.33641         24.8929 
        2.20898         17.2608          3.2913         24.7293 
        2.22126         17.1345         3.24697         24.5779 
        2.23354         17.0352         3.20348         24.4119 
         2.2458         16.8256         3.16086         24.2765 
        2.25807         16.6071         3.11898         24.0706 
        2.27035         16.4722         3.07782         23.9307 
        2.28263         16.3107         3.03743         23.7752 
         2.2949         16.2153         2.99778         23.6325 
        2.30718         16.0627         2.95883         23.4834 
        2.31946         15.9417         2.92055         23.3177 
        2.33169         15.7663         2.88311         23.1674 
        2.34393         15.6204         2.84627         23.0385 
        2.35622         15.4221         2.80996         22.8837 
        2.36847         15.3039         2.77438         22.7267 
        2.38076         15.1432         2.73931         22.5989 
        2.39305         15.0464         2.70486         22.4515 
        2.40534         14.8824           2.671         22.2823 
        2.41762         14.7378         2.63772         22.1787 
        2.42989          14.621         2.60506         22.0159 
        2.44216         14.4787         2.57296         21.8825 
         2.4544         14.4635         2.54147         21.7326 
        2.46667         14.2669         2.51044         21.6113 
        2.47897         14.0903         2.47985         21.4661 
        2.49124         14.0364         2.44985         21.3347 
        2.50349          13.866          2.4204         21.1921 
        2.51578         13.7703         2.39134         21.0901 
        2.52805         13.6607         2.36281         20.9513 
        2.54029         13.5675         2.33482          20.822 
        2.55257         13.4682         2.30719         20.6913 
        2.56487         13.2904         2.27996         20.5683 
        2.57716         13.2096         2.25321         20.4252 
        2.58942         13.1375         2.22695         20.3251 
        2.60167         12.9638         2.20113         20.2006 
        2.61395         12.9544         2.17568         20.0758 
        2.62624           12.85          2.1506         19.9522 
        2.63849         12.7113         2.12599         19.8505 
        2.65073         12.6128          2.1018          19.718 
        2.66302           12.54         2.07789         19.6107 
         2.6753         12.4823         2.05437         19.4847 
        2.68756         12.3713         2.03127         19.3783 
        2.69983          12.271          2.0085         19.2567 
        2.71213         12.1658         1.98604         19.1296 
        2.72441         12.1268         1.96395         19.0283 
        2.73665         12.0389         1.94226         18.9164 
         2.7489         11.9889         1.92091         18.7985 
        2.76118          11.856         1.89981         18.6953 
        2.77349         11.7934         1.87898         18.5856 
        2.78576         11.6939         1.85854         18.4849 
        2.79802          11.662         1.83842         18.3698 
        2.81031          11.583         1.81855         18.2598 
        2.82259         11.5196         1.79898         18.1615 
        2.83483         11.4681         1.77978         18.0595 
         2.8471         11.4047         1.76081         17.9492 
         2.8594         11.3566         1.74207         17.8402 
         2.8717         11.2945          1.7236         17.7441 
        2.88396         11.2189         1.70547         17.6422 
        2.89619         11.1881         1.68764          17.539 
        2.90847         11.1407         1.66999         17.4478 
        2.92072         11.0974         1.65262         17.3326 
        2.93299         11.0069          1.6355         17.2442 
        2.94526         10.9912          1.6186         17.1534 
        2.95753         10.9427         1.60194         17.0499 
        2.96982         10.8972         1.58549         16.9527 
        2.98209         10.8919         1.56931         16.8581 
        2.99436         10.8603         1.55333         16.7578 
        3.00666         10.8334         1.53755         16.6653 
        3.01894          10.805         1.52203          16.586 
        3.03119         10.7678         1.50673         16.4879 
        3.04345         10.7037         1.49165         16.3834 
        3.05573         10.7217         1.47674         16.2967 
          3.068         10.6986         1.46206         16.2147 
        3.08026         10.6769         1.44759         16.1115 
        3.09254         10.6782         1.43328         16.0303 
        3.10483         10.6689         1.41917         15.9519 
         3.1171         10.6927         1.40527         15.8584 
        3.12933         10.6594         1.39159         15.7694 
        3.14159         10.6251         1.37806         15.6794 
