# k  (h/Mpc)    Pcb(k)  (Mpc/h)^3    Pcb_linear(k) (Mpc/h)^3    Pcb_NL(k) (Mpc/h)^3   ShotnoiseSubtracted = false
      0.0156606         807.835         808.412         804.683 
      0.0273761         704.037           699.8         698.378 
      0.0384619         534.761         527.493         527.454 
      0.0498308         420.655         415.023         415.289 
      0.0625568         355.032         352.779         352.615 
      0.0751274         304.397         299.754         299.256 
      0.0867833         243.351          241.35         241.309 
      0.0984825         195.292         191.006         191.364 
       0.111151         163.188         159.491         159.812 
       0.123864           146.5         143.737         143.875 
       0.135742         131.441         129.258          129.35 
        0.14762         111.764         110.523          110.89 
       0.160083         93.0213         92.1284          92.601 
       0.172465         81.4714         80.4112          80.961 
       0.184281         75.3862           74.13         74.6852 
       0.196406         68.9793         68.4592         68.8537 
       0.209011         61.7387         60.9115          61.383 
       0.221538         54.3891         53.2312         53.9212 
       0.233611         48.7227         47.6282          48.394 
       0.245665         45.4463         43.9591         44.6292 
       0.258103         41.2515         40.9223         41.5811 
       0.270422         38.4945         37.6029          38.233 
       0.282519         34.9201         34.1268         34.8189 
       0.294636         32.5021         31.0934         31.8251 
       0.306978         29.1893         28.7666         29.5182 
       0.319417          27.644         26.8952         27.6229 
        0.33169           25.72         25.1038         25.8036 
       0.343948         24.1212         23.2601         23.9566 
       0.356249         22.0871         21.5311           22.33 
       0.368458         20.8402         20.0829         20.7901 
        0.38068          19.443         18.8718         19.5755 
       0.392856         18.2825         17.7663         18.4766 
       0.405069         17.2586         16.6852         17.3565 
       0.417459         15.9384         15.6385         16.3439 
       0.429752         15.1598         14.6989         15.3933 
       0.441978          14.391         13.8742          14.609 
       0.454294         13.4633         13.1254         13.8191 
        0.46658         13.0336         12.4227         13.1009 
       0.478753         12.2093         11.7598         12.4341 
       0.490964         11.7012         11.1372         11.8499 
       0.503334         11.1471         10.5624         11.2306 
       0.515665         10.4876         10.0384         10.7416 
       0.527909         10.0569         9.55458         10.2027 
       0.540159         9.53036         9.09686         9.73483 
        0.55248         8.97307         8.66255         9.27441 
       0.564743         8.76302          8.2604         8.91393 
        0.57686         8.37802         7.89079          8.5199 
       0.589077         7.88199         7.54189         8.19106 
       0.601441         7.56387         7.21013         7.84507 
        0.61382         7.25293         6.89733         7.50875 
       0.626067         6.93133         6.60543         7.21165 
       0.638306         6.67712         6.33056         6.92372 
       0.650632         6.47626         6.07013         6.67153 
       0.662899         6.17808         5.82609         6.40727 
       0.675076          5.8724         5.59737         6.17536 
       0.687267         5.67129         5.38065         5.93239 
       0.699615         5.51358          5.1727         5.71917 
       0.711937         5.24251         4.97611         5.53272 
       0.724148         5.13219         4.79141           5.337 
       0.736433          4.8739         4.61516         5.14009 
       0.748747         4.71599         4.44753          4.9877 
       0.761037         4.57055         4.28862         4.81366 
       0.773197         4.37504         4.13912          4.6695 
       0.785376         4.22243         3.99658         4.51301 
       0.797761         4.08501         3.85854         4.35824 
       0.810096         3.98087         3.72758         4.24186 
       0.822371         3.87312         3.60332         4.09623 
       0.834626         3.73775         3.48497         3.96928 
       0.846916         3.60121         3.37164         3.86438 
       0.859215          3.4584         3.26332         3.75464 
       0.871383         3.35563         3.16086          3.6417 
        0.88363         3.26425         3.06221         3.53778 
       0.895928         3.18517         2.96742         3.43303 
       0.908253         3.08531         2.87648         3.33893 
       0.920535         2.98921         2.78968         3.24094 
       0.932774         2.90266         2.70678         3.14497 
        0.94508         2.81967         2.62685          3.0657 
       0.957324         2.74603         2.55055         2.99327 
        0.96953          2.6529         2.47753         2.91241 
       0.981769         2.56974          2.4072         2.82762 
       0.994071         2.51679         2.33927         2.76679 
         1.0064         2.43773         2.27387          2.6926 
        1.01868         2.35734         2.21116         2.62477 
        1.03092           2.325         2.15112         2.55419 
         1.0432         2.24556         2.09309         2.49439 
        1.05553         2.18956         2.03699         2.43857 
        1.06777         2.12313         1.98336         2.38186 
           1.08         2.08229         1.93173         2.32177 
        1.09227          2.0132         1.88177         2.26547 
         1.1046         1.96739          1.8334         2.21689 
         1.1169         1.91383         1.78683         2.16507 
        1.12915          1.8715          1.7421         2.11687 
        1.14142         1.82596         1.69883         2.06778 
        1.15365         1.78413         1.65715         2.02484 
        1.16585         1.74203         1.61699         1.97866 
        1.17807         1.71357         1.57812         1.93758 
        1.19037         1.64638         1.54028         1.89297 
        1.20276         1.61265         1.50342         1.84923 
        1.21504         1.58126         1.46806         1.81878 
        1.22728         1.54807           1.434          1.7736 
        1.23954         1.51271         1.40093         1.74481 
        1.25184         1.48208         1.36885         1.70316 
        1.26414         1.44745         1.33776         1.66741 
        1.27632         1.40455         1.30792         1.63724 
         1.2886         1.38085         1.27879         1.60091 
        1.30093         1.34018         1.25044         1.57496 
        1.31316         1.30273         1.22315         1.54187 
        1.32541         1.28553         1.19668         1.51432 
        1.33772          1.2636         1.17085         1.48509 
        1.35005         1.23896         1.14577         1.45784 
        1.36225         1.20983         1.12168         1.42807 
        1.37447         1.18548         1.09823         1.40484 
        1.38676         1.15926         1.07535         1.37551 
        1.39907         1.13402         1.05309         1.35316 
        1.41133          1.1064         1.03155         1.32827 
        1.42358         1.09603         1.01064         1.30083 
        1.43591         1.07044        0.990168         1.28438 
        1.44818         1.04883        0.970375         1.26099 
        1.46037         1.02354        0.951242         1.23574 
        1.47263         1.00238        0.932519         1.21663 
        1.48494        0.986673         0.91423         1.19616 
        1.49724        0.966325        0.896447         1.17587 
        1.50952        0.948971        0.879175         1.15263 
        1.52178        0.926597        0.862383         1.13538 
        1.53409        0.913019        0.845963         1.11595 
        1.54637        0.889262        0.830006         1.09637 
        1.55858        0.878014        0.814551         1.07915 
        1.57081        0.865756        0.799469         1.06051 
        1.58313        0.846324        0.784676         1.04639 
        1.59544        0.831821        0.770266         1.02791 
        1.60767        0.817785         0.75631         1.01192 
        1.61994        0.799654        0.742652        0.997315 
        1.63225        0.786667        0.729304        0.982252 
        1.64452        0.774407        0.716321        0.965531 
        1.65676        0.759321        0.703696        0.951414 
          1.669        0.747114        0.691366        0.935674 
        1.68133        0.732542        0.679253        0.923304 
        1.69363        0.724259        0.667466        0.908789 
        1.70585        0.708697        0.656035        0.895776 
        1.71809        0.697826        0.644849        0.881996 
        1.73038        0.683589        0.633888        0.869366 
        1.74268         0.67032        0.623176        0.855793 
        1.75493        0.665281        0.612761        0.845263 
        1.76714        0.650977        0.602611        0.832106 
        1.77942        0.637719        0.592639        0.820408 
        1.79173        0.630449        0.582868        0.807975 
        1.80402        0.620221        0.573337         0.79704 
         1.8163        0.609868        0.564025        0.784465 
         1.8286        0.595805        0.554905        0.776858 
         1.8409        0.591255        0.545993        0.764644 
        1.85315        0.582773        0.537308        0.753731 
        1.86537        0.569217        0.528829        0.744156 
        1.87765        0.561614        0.520501        0.733458 
        1.88995        0.553974        0.512333        0.724681 
        1.90221        0.544265        0.504369        0.714349 
        1.91445        0.537427        0.496587        0.705366 
        1.92674        0.527453        0.488943        0.696257 
        1.93902         0.51823        0.481459        0.686308 
        1.95124        0.511286        0.474172        0.677426 
         1.9635        0.505291        0.467018        0.668504 
        1.97583        0.495896        0.459966        0.659458 
        1.98812        0.488879        0.453086        0.652824 
        2.00039        0.481978        0.446361        0.643439 
        2.01264        0.475729        0.439779        0.635743 
        2.02492        0.468788         0.43332         0.62813 
        2.03717        0.461447        0.427001        0.620284 
        2.04942        0.454811        0.420817        0.612091 
        2.06171        0.448844        0.414734        0.604637 
        2.07397        0.441022        0.408785        0.597794 
        2.08629        0.437113        0.402928        0.590213 
        2.09857        0.429288          0.3972        0.583354 
        2.11081        0.422352        0.391607         0.57566 
        2.12309        0.417224        0.386108        0.569809 
        2.13538        0.411016        0.380707        0.562521 
        2.14763        0.406604        0.375427        0.556317 
        2.15986        0.400962         0.37026        0.550278 
        2.17214        0.394457        0.365169        0.543271 
        2.18443        0.390439        0.360169        0.536817 
        2.19671        0.385117        0.355268        0.531214 
        2.20898        0.379707        0.350465        0.524736 
        2.22126        0.373814        0.345745        0.519126 
        2.23354        0.369999        0.341114        0.513698 
         2.2458         0.36639        0.336576        0.506737 
        2.25807        0.360913        0.332117        0.502048 
        2.27035        0.355965        0.327734        0.496176 
        2.28263        0.351031        0.323433        0.491053 
         2.2949        0.347317        0.319211        0.485325 
        2.30718        0.342906        0.315063        0.480321 
        2.31946        0.339585        0.310987        0.475303 
        2.33169        0.333721           0.307        0.469843 
        2.34393        0.330255        0.303078        0.465254 
        2.35622        0.326241        0.299211        0.459711 
        2.36847        0.323114        0.295422        0.455055 
        2.38076        0.318729        0.291688        0.450343 
        2.39305        0.314488         0.28802        0.445774 
        2.40534        0.310984        0.284414         0.44126 
        2.41762        0.308134        0.280871        0.436406 
        2.42989        0.303459        0.277393        0.431741 
        2.44216        0.300934        0.273975        0.427674 
         2.4544        0.297881        0.270622        0.423429 
        2.46667        0.294719        0.267317        0.418744 
        2.47897         0.29079         0.26406        0.414722 
        2.49124        0.287516        0.260866        0.410483 
        2.50349        0.283612         0.25773        0.406265 
        2.51578        0.281142        0.254636        0.402247 
        2.52805        0.279302        0.251598        0.398415 
        2.54029        0.275959        0.248617        0.394579 
        2.55257         0.27225        0.245675         0.39094 
        2.56487        0.270173        0.242776        0.386963 
        2.57716         0.26738        0.239927        0.383187 
        2.58942         0.26513         0.23713        0.379465 
        2.60167        0.261756        0.234381        0.375654 
        2.61395        0.259131        0.231671        0.372362 
        2.62624        0.256429        0.229001        0.368982 
        2.63849        0.255001        0.226381        0.365388 
        2.65073        0.251753        0.223804        0.361843 
        2.66302         0.24995        0.221259        0.358438 
         2.6753         0.24731        0.218755        0.355123 
        2.68756        0.245639        0.216294        0.351933 
        2.69983        0.242723         0.21387        0.348378 
        2.71213        0.240092        0.211478        0.345376 
        2.72441        0.238795        0.209126        0.342457 
        2.73665        0.236889        0.206817        0.339315 
         2.7489        0.235268        0.204543        0.336182 
        2.76118        0.233588        0.202296        0.333195 
        2.77349         0.23076        0.200078        0.330339 
        2.78576         0.22959        0.197902        0.327359 
        2.79802        0.227852         0.19576        0.324106 
        2.81031        0.226067        0.193644        0.321618 
        2.82259        0.224599         0.19156        0.318496 
        2.83483        0.222488        0.189515        0.315662 
         2.8471        0.221159        0.187496         0.31332 
         2.8594        0.219742          0.1855        0.310666 
         2.8717        0.218806        0.183533        0.307835 
        2.88396        0.217564        0.181603        0.305275 
        2.89619        0.215767        0.179704        0.302794 
        2.90847        0.214827        0.177824         0.30026 
        2.92072        0.212859        0.175975        0.297493 
        2.93299        0.211985        0.174152        0.294913 
        2.94526        0.210917        0.172352        0.292577 
        2.95753        0.210209        0.170578        0.290237 
        2.96982        0.208845        0.168827        0.287688 
        2.98209        0.208322        0.167103        0.285159 
        2.99436        0.206709        0.165402        0.282876 
        3.00666        0.206547        0.163722        0.280627 
        3.01894        0.205743        0.162069        0.278434 
        3.03119        0.205048        0.160441        0.276095 
        3.04345        0.204004        0.158835        0.273923 
        3.05573        0.203873        0.157247         0.27187 
          3.068         0.20293        0.155683        0.269509 
        3.08026        0.202362        0.154142        0.267288 
        3.09254        0.202794        0.152619        0.265248 
        3.10483        0.201985        0.151117        0.263234 
         3.1171        0.201585        0.149636         0.26108 
        3.12933        0.201502         0.14818        0.258916 
        3.14159        0.200813        0.146739        0.257054 
