# k  (h/Mpc)    Pcb(k)  (Mpc/h)^3    Pcb_linear(k) (Mpc/h)^3    Pcb_NL(k) (Mpc/h)^3   ShotnoiseSubtracted = false
      0.0156606         7744.58         7760.25         7716.26 
      0.0273761          6696.4         6712.33         6679.86 
      0.0384619          5085.6         5057.93         5036.45 
      0.0498308          3964.5         3978.81         3959.72 
      0.0625568         3345.61         3381.72         3362.64 
      0.0751274         2932.38         2873.25         2844.25 
      0.0867833         2302.06         2313.34         2306.81 
      0.0984825         1894.98         1830.74         1844.06 
       0.111151         1597.63         1528.66         1542.43 
       0.123864         1435.08         1377.64         1389.22 
       0.135742          1294.9         1238.85         1250.77 
        0.14762         1107.86         1059.28         1088.34 
       0.160083         921.301         882.978         916.346 
       0.172465         818.624         770.674         811.873 
       0.184281         756.479         710.472         753.792 
       0.196406         692.232          656.12         691.141 
       0.209011         632.417          583.78         621.992 
       0.221538         568.102          510.17         563.552 
       0.233611         521.833          456.47         516.271 
       0.245665         487.147         421.305         474.909 
       0.258103         449.961         392.199         445.539 
       0.270422         415.974         360.386         413.237 
       0.282519         380.054          327.07         382.595 
       0.294636         373.528         297.998         356.495 
       0.306978         330.572         275.698         336.509 
       0.319417         317.041         257.762         316.156 
        0.33169         296.829         240.593         296.959 
       0.343948         283.263         222.923         282.062 
       0.356249         263.633         206.353         268.323 
       0.368458         254.518         192.473         251.934 
        0.38068         241.813         180.866         239.608 
       0.392856         225.776          170.27         229.067 
       0.405069         216.002          159.91         219.248 
       0.417459         205.746         149.878          207.46 
       0.429752         198.033         140.873         198.952 
       0.441978         190.713         132.969         192.107 
       0.454294         177.683         125.792         182.534 
        0.46658         177.873         119.058         176.347 
       0.478753         167.492         112.705          169.76 
       0.490964         162.331         106.737         163.284 
       0.503334         154.214         101.229         157.764 
       0.515665         150.369         96.2067         153.625 
       0.527909          145.68           91.57         146.923 
       0.540159         140.807         87.1833         142.579 
        0.55248         136.295         83.0209         137.658 
       0.564743         132.386         79.1667             134 
        0.57686         128.185         75.6244         129.571 
       0.589077         122.472         72.2806         126.391 
       0.601441         119.801          69.101         122.953 
        0.61382         117.776         66.1031         119.154 
       0.626067         113.204         63.3057         116.087 
       0.638306         109.231         60.6713         113.179 
       0.650632         105.365         58.1754         109.198 
       0.662899         105.066         55.8365         106.693 
       0.675076         101.282         53.6445         104.082 
       0.687267         99.0235         51.5675         101.556 
       0.699615         96.0087         49.5745         99.4766 
       0.711937         93.1153         47.6904         96.6323 
       0.724148         92.2551         45.9202         95.2691 
       0.736433         88.5505         44.2311         92.6811 
       0.748747          86.898         42.6245         90.6232 
       0.761037         84.9755         41.1016           88.47 
       0.773197         83.1218         39.6688         87.3673 
       0.785376         81.1527         38.3027         85.1249 
       0.797761         80.3446         36.9798         83.7812 
       0.810096         77.5449         35.7246         81.8678 
       0.822371         76.0739         34.5338         80.2566 
       0.834626          74.329         33.3994         78.9074 
       0.846916          73.231         32.3134         77.4689 
       0.859215         71.6246         31.2752         75.8764 
       0.871383         70.6631         30.2933         74.5982 
        0.88363         68.7163         29.3478         73.5404 
       0.895928         67.3074         28.4394         72.2207 
       0.908253         65.6705         27.5678         70.9865 
       0.920535          65.321         26.7359         69.8401 
       0.932774         63.9783         25.9414         68.6373 
        0.94508          63.092         25.1754         67.3934 
       0.957324         61.5005         24.4441         66.5056 
        0.96953         61.4602         23.7443         65.2997 
       0.981769         59.4139         23.0703         64.5209 
       0.994071         58.7312         22.4193         63.5573 
         1.0064          57.449         21.7924         62.5698 
        1.01868         56.5962         21.1915         61.7203 
        1.03092         55.6954          20.616         60.7962 
         1.0432         54.7456         20.0599         59.8102 
        1.05553         53.3843         19.5222         59.3354 
        1.06777         52.9253         19.0083         58.4008 
           1.08         51.6918         18.5134         57.5553 
        1.09227         51.0647         18.0346         56.7562 
         1.1046         50.3038         17.5711          55.985 
         1.1169          49.723         17.1247         55.1828 
        1.12915         48.8838         16.6961         54.5834 
        1.14142         47.9495         16.2813          53.894 
        1.15365         47.2301         15.8819         53.2697 
        1.16585          46.517          15.497         52.5064 
        1.17807         45.7706         15.1245          51.828 
        1.19037         45.6401         14.7618         51.3645 
        1.20276         44.8232         14.4085         50.7247 
        1.21504          44.244         14.0697         50.1588 
        1.22728         43.3803         13.7432         49.5621 
        1.23954         42.8953         13.4263         48.8725 
        1.25184         42.1733         13.1189         48.4278 
        1.26414         41.5674         12.8209         47.8008 
        1.27632         41.2319         12.5349         47.3119 
         1.2886         40.7975         12.2557         46.7998 
        1.30093         40.1064          11.984         46.1971 
        1.31316         39.4899         11.7225         45.8183 
        1.32541         39.2285         11.4688         45.2982 
        1.33772         38.4727         11.2213         44.8225 
        1.35005         38.0422         10.9809         44.3824 
        1.36225         37.4204           10.75         43.9519 
        1.37447         36.5408         10.5253         43.4566 
        1.38676         36.6742          10.306         43.0749 
        1.39907         36.0847         10.0927         42.6791 
        1.41133         35.3383         9.88627         42.2294 
        1.42358         34.9769         9.68585         41.7886 
        1.43591         34.5766         9.48963         41.4306 
        1.44818         34.2184         9.29994         40.9529 
        1.46037         33.7696         9.11657         40.5808 
        1.47263         33.5303         8.93713          40.258 
        1.48494          32.869         8.76185         39.8323 
        1.49724         32.7696         8.59142         39.4629 
        1.50952         32.2824         8.42589          39.145 
        1.52178         31.7961         8.26495         38.7672 
        1.53409         31.5434         8.10759         38.4261 
        1.54637         31.1146         7.95466         38.0377 
        1.55858         30.4058         7.80655         37.7129 
        1.57081         30.4952           7.662         37.4204 
        1.58313         30.1173         7.52022         37.0636 
        1.59544         29.5559         7.38212         36.7557 
        1.60767         29.2169         7.24837         36.3917 
        1.61994          28.868         7.11747         36.1091 
        1.63225         28.7187         6.98954         35.8399 
        1.64452          28.296         6.86512         35.5386 
        1.65676         27.9919         6.74412         35.2161 
          1.669         27.7176         6.62595         34.9631 
        1.68133         27.3775         6.50986         34.6442 
        1.69363         26.9787          6.3969         34.3067 
        1.70585         26.7707         6.28735         34.1263 
        1.71809         26.3305         6.18014           33.77 
        1.73038         26.1965          6.0751         33.5589 
        1.74268         25.8564         5.97243         33.2214 
        1.75493          25.539         5.87261         32.9903 
        1.76714         25.3895         5.77534         32.7493 
        1.77942          25.103         5.67977         32.4742 
        1.79173          24.665         5.58612         32.2195 
        1.80402         24.4156         5.49478         32.0503 
         1.8163         24.3065         5.40554         31.6711 
         1.8286         23.8722         5.31813         31.4889 
         1.8409         23.6703         5.23272         31.2528 
        1.85315         23.4296         5.14948         31.0331 
        1.86537         23.1155         5.06822         30.7976 
        1.87765         22.9872         4.98841         30.5574 
        1.88995         22.6667         4.91013         30.2886 
        1.90221         22.4389          4.8338         30.0729 
        1.91445         22.1541         4.75922         29.8544 
        1.92674         21.9592         4.68596         29.6325 
        1.93902         21.7013         4.61424          29.444 
        1.95124         21.3711          4.5444         29.2783 
         1.9635         21.2526         4.47583         29.0145 
        1.97583         21.0288         4.40824         28.8104 
        1.98812          20.855         4.34231         28.6227 
        2.00039          20.624         4.27786         28.4088 
        2.01264         20.3811         4.21477         28.2248 
        2.02492         20.2243         4.15287         27.9878 
        2.03717         19.9093         4.09232         27.8069 
        2.04942         19.7532         4.03305         27.5971 
        2.06171          19.613         3.97476         27.4166 
        2.07397         19.4104         3.91774         27.2025 
        2.08629         19.2211         3.86161          27.009 
        2.09857         19.0281         3.80671         26.8411 
        2.11081         18.7889          3.7531         26.6538 
        2.12309         18.6614          3.7004         26.4676 
        2.13538         18.4199         3.64864         26.2913 
        2.14763         18.2497         3.59804         26.1159 
        2.15986         18.1115         3.54852         25.9473 
        2.17214         17.9071         3.49973         25.7765 
        2.18443          17.737         3.45181         25.5844 
        2.19671         17.5444         3.40484         25.4035 
        2.20898         17.3791         3.35881         25.2365 
        2.22126         17.2517         3.31357         25.0821 
        2.23354         17.1524         3.26919         24.9127 
         2.2458         16.9409          3.2257         24.7744 
        2.25807         16.7213         3.18296         24.5643 
        2.27035         16.5859         3.14095         24.4216 
        2.28263         16.4229         3.09973         24.2628 
         2.2949         16.3273         3.05927         24.1172 
        2.30718         16.1738         3.01952         23.9651 
        2.31946         16.0517         2.98045          23.796 
        2.33169         15.8753         2.94225         23.6426 
        2.34393         15.7285         2.90465          23.511 
        2.35622         15.5284         2.86759         23.3531 
        2.36847           15.41         2.83129         23.1929 
        2.38076          15.248          2.7955         23.0624 
        2.39305         15.1504         2.76034          22.912 
        2.40534         14.9858         2.72579         22.7394 
        2.41762         14.8403         2.69183         22.6336 
        2.42989         14.7227          2.6585         22.4675 
        2.44216         14.5797         2.62573         22.3314 
         2.4544         14.5642          2.5936         22.1784 
        2.46667         14.3665         2.56193         22.0545 
        2.47897         14.1887         2.53071         21.9064 
        2.49124         14.1345          2.5001         21.7723 
        2.50349         13.9632         2.47005         21.6267 
        2.51578         13.8666         2.44039         21.5227 
        2.52805         13.7565         2.41127          21.381 
        2.54029          13.663         2.38271         21.2491 
        2.55257         13.5631         2.35451         21.1157 
        2.56487         13.3836         2.32673         20.9902 
        2.57716         13.3026         2.29943         20.8441 
        2.58942         13.2298         2.27262          20.742 
        2.60167         13.0556         2.24627         20.6149 
        2.61395         13.0463          2.2203         20.4876 
        2.62624         12.9408         2.19471         20.3615 
        2.63849         12.8013          2.1696         20.2577 
        2.65073         12.7022         2.14491         20.1224 
        2.66302         12.6289         2.12051         20.0129 
         2.6753         12.5707         2.09651         19.8843 
        2.68756         12.4593         2.07293         19.7758 
        2.69983         12.3583          2.0497         19.6517 
        2.71213         12.2527         2.02677          19.522 
        2.72441         12.2133         2.00424         19.4186 
        2.73665         12.1253          1.9821         19.3044 
         2.7489         12.0743         1.96031         19.1841 
        2.76118         11.9408         1.93878         19.0788 
        2.77349         11.8778         1.91752         18.9668 
        2.78576         11.7777         1.89667         18.8641 
        2.79802         11.7454         1.87613         18.7466 
        2.81031         11.6661         1.85585         18.6344 
        2.82259         11.6032         1.83588          18.534 
        2.83483         11.5504         1.81628           18.43 
         2.8471         11.4865         1.79693         18.3173 
         2.8594         11.4387          1.7778         18.2061 
         2.8717         11.3761         1.75896         18.1081 
        2.88396            11.3         1.74046          18.004 
        2.89619         11.2688         1.72225         17.8988 
        2.90847         11.2211         1.70424         17.8057 
        2.92072         11.1777         1.68652         17.6881 
        2.93299         11.0868         1.66904         17.5979 
        2.94526         11.0711          1.6518         17.5052 
        2.95753         11.0222          1.6348         17.3996 
        2.96982         10.9764         1.61801         17.3004 
        2.98209         10.9711         1.60149         17.2039 
        2.99436         10.9397         1.58519         17.1015 
        3.00666         10.9122         1.56909         17.0071 
        3.01894         10.8838         1.55324         16.9262 
        3.03119         10.8463         1.53764          16.826 
        3.04345         10.7816         1.52225         16.7195 
        3.05573         10.8002         1.50703         16.6309 
          3.068          10.777         1.49205         16.5473 
        3.08026         10.7549         1.47728         16.4419 
        3.09254         10.7565         1.46268          16.359 
        3.10483         10.7471         1.44828          16.279 
         3.1171          10.771         1.43409         16.1837 
        3.12933         10.7377         1.42013         16.0928 
        3.14159         10.7032         1.40633          16.001 
