# k  (h/Mpc)    P(k)  (Mpc/h)^3    P_linear(k)  (Mpc/h)^3     P_NL(k)  ShotnoiseSubtracted = false
      0.0156606         4904.66         4968.76         4942.57 
      0.0273761         4245.04         4292.18         4276.29 
      0.0384619         3223.18         3232.31         3223.88 
      0.0498308         2518.67         2541.81          2535.2 
      0.0625568         2124.59         2159.88         2152.37 
      0.0751274          1850.6         1834.87         1822.72 
      0.0867833         1459.95         1477.19         1474.98 
      0.0984825          1192.4         1168.95          1175.6 
       0.111151          1001.7         976.023         982.692 
       0.123864         899.911         879.572         885.059 
       0.135742         810.146          790.94         796.549 
        0.14762         690.142         676.284         689.531 
       0.160083         572.992         563.715         578.755 
       0.172465         507.277         492.011          510.34 
       0.184281         469.962         453.573         473.015 
       0.196406         428.765         418.871         434.194 
       0.209011         388.975         372.686         389.737 
       0.221538         347.627         325.691         349.525 
       0.233611         315.881         291.408         318.005 
       0.245665         296.543         268.957         292.693 
       0.258103         269.358         250.376          274.02 
       0.270422         251.753         230.066         253.279 
       0.282519         228.913         208.797         233.316 
       0.294636         221.969         190.237         216.106 
       0.306978         195.866         176.001         202.842 
       0.319417         187.406          164.55         190.404 
        0.33169         174.661          153.59         178.566 
       0.343948         166.569          142.31         168.161 
       0.356249         153.913         131.731         159.297 
       0.368458          147.77          122.87         148.914 
        0.38068         139.489         115.461         141.215 
       0.392856          130.07         108.697         134.587 
       0.405069         123.644         102.083         127.774 
       0.417459         117.066          95.679         120.935 
       0.429752         112.426         89.9303         115.376 
       0.441978         107.574         84.8845         110.999 
       0.454294         100.064         80.3027         105.189 
        0.46658          100.03         76.0036         101.011 
       0.478753         93.2646         71.9479         96.9822 
       0.490964         90.3916         68.1381           93.13 
       0.503334         86.5078         64.6222         89.3846 
       0.515665         83.1705         61.4159         86.7752 
       0.527909         79.9958         58.4558         82.4245 
       0.540159         77.1322         55.6552         79.7516 
        0.55248         73.0755          52.998         76.7125 
       0.564743         71.6133         50.5378         74.3724 
        0.57686         69.3861         48.2765         71.8077 
       0.589077         65.8272         46.1418         69.7514 
       0.601441         64.0399         44.1121          67.553 
        0.61382         62.2259         42.1983         65.1625 
       0.626067         59.6406         40.4125         63.4026 
       0.638306         57.8632         38.7308         61.4035 
       0.650632         55.9458         37.1375         59.3046 
       0.662899         54.7381         35.6444         57.6058 
       0.675076         52.4955         34.2451         56.0291 
       0.687267         51.7496         32.9192         54.4581 
       0.699615         49.9017         31.6468         53.2501 
       0.711937         47.8991         30.4441         51.4585 
       0.724148         47.6538         29.3141         50.5544 
       0.736433         45.0871         28.2358         49.0656 
       0.748747         44.5038         27.2102         47.8227 
       0.761037         43.2685          26.238         46.7015 
       0.773197         42.2518         25.3233         45.7965 
       0.785376         40.7683         24.4512         44.6105 
       0.797761         40.2693         23.6067          43.709 
       0.810096         39.2405         22.8055         42.6386 
       0.822371         38.3291         22.0453         41.5999 
       0.834626         37.2651         21.3212         40.8913 
       0.846916         36.3697         20.6278         39.9562 
       0.859215         35.2536         19.9651          39.081 
       0.871383         34.7661         19.3383          38.373 
        0.88363         33.8857         18.7347         37.6851 
       0.895928         33.1147         18.1548         36.8048 
       0.908253         32.4397         17.5984         36.2171 
       0.920535         31.8643         17.0674         35.4711 
       0.932774         31.3151         16.5602         34.7991 
        0.94508         30.6502         16.0711         34.0885 
       0.957324         29.9931         15.6043         33.5256 
        0.96953         29.3758         15.1576          32.869 
       0.981769          28.807         14.7273         32.3886 
       0.994071         28.1745         14.3117         31.7968 
         1.0064         27.5504         13.9116         31.2627 
        1.01868          26.991          13.528         30.7758 
        1.03092         26.7795         13.1606         30.2251 
         1.0432         26.0642         12.8056         29.6528 
        1.05553          25.576         12.4624         29.3773 
        1.06777         24.9257         12.1343         28.7636 
           1.08         24.4084         11.8184         28.3208 
        1.09227         24.0889         11.5127         27.9705 
         1.1046         23.7379         11.2168         27.4672 
         1.1169         23.3304         10.9319          27.066 
        1.12915         23.0646         10.6582         26.6876 
        1.14142         22.3725         10.3935         26.2759 
        1.15365         22.1766         10.1385         25.9158 
        1.16585          21.888         9.89281          25.573 
        1.17807         21.3746         9.65499         25.1159 
        1.19037         21.1889         9.42345         24.9028 
        1.20276         20.8691         9.19796           24.51 
        1.21504         20.4546         8.98166         24.2369 
        1.22728         20.0542         8.77323         23.8768 
        1.23954         19.8027         8.57094         23.5317 
        1.25184         19.4289         8.37467         23.2582 
        1.26414         19.1937         8.18447         22.9258 
        1.27632         18.9173         8.00191         22.6332 
         1.2886         18.7115         7.82364         22.3763 
        1.30093         18.2618          7.6502         22.1427 
        1.31316         18.0663         7.48329         21.8289 
        1.32541         17.8465         7.32134         21.6136 
        1.33772         17.5217         7.16331         21.3424 
        1.35005         17.2972         7.00984         21.1145 
        1.36225         17.0603         6.86244         20.8534 
        1.37447         16.7195         6.71901         20.5925 
        1.38676         16.5336         6.57904         20.3886 
        1.39907         16.2812         6.44283         20.1552 
        1.41133         16.0386         6.31107         19.9202 
        1.42358         15.8421         6.18313         19.6877 
        1.43591         15.6038         6.05787         19.5172 
        1.44818         15.3873         5.93678           19.31 
        1.46037         15.2994         5.81972           19.06 
        1.47263         15.0135         5.70518         18.9114 
        1.48494         14.8971         5.59328         18.6655 
        1.49724         14.6785         5.48448         18.5108 
        1.50952         14.4691         5.37881          18.337 
        1.52178         14.2827         5.27608         18.1172 
        1.53409         14.0218         5.17562         17.9421 
        1.54637         13.9937         5.07799         17.7285 
        1.55858         13.7566         4.98344         17.5807 
        1.57081         13.5379         4.89117          17.425 
        1.58313         13.4373         4.80066         17.2516 
        1.59544         13.2053          4.7125         17.1017 
        1.60767         13.0783         4.62712         16.9166 
        1.61994         12.8467         4.54356         16.7776 
        1.63225         12.7844          4.4619         16.6428 
        1.64452         12.6113         4.38247         16.4975 
        1.65676         12.4465         4.30523         16.3216 
          1.669         12.3442         4.22979         16.1717 
        1.68133         12.1058         4.15568         16.0228 
        1.69363          11.971         4.08357          15.851 
        1.70585         11.8335         4.01364          15.762 
        1.71809          11.713          3.9452         15.6142 
        1.73038         11.5852         3.87814          15.495 
        1.74268         11.4738         3.81261         15.3399 
        1.75493         11.2723         3.74888         15.2047 
        1.76714          11.284         3.68679         15.0877 
        1.77942         11.1366         3.62578         14.9386 
        1.79173         10.9138           3.566         14.8363 
        1.80402         10.8538         3.50769         14.7208 
         1.8163         10.7276         3.45072         14.5979 
         1.8286         10.5701         3.39492         14.4845 
         1.8409         10.4701          3.3404         14.3682 
        1.85315         10.3643         3.28726         14.2425 
        1.86537         10.2696         3.23538         14.1391 
        1.87765         10.1796         3.18444         14.0267 
        1.88995         9.99626         3.13446         13.9217 
        1.90221         9.95807         3.08574         13.7921 
        1.91445         9.83058         3.03813         13.7087 
        1.92674         9.72413         2.99136         13.5915 
        1.93902          9.6373         2.94558         13.5095 
        1.95124         9.51404           2.901         13.4038 
         1.9635         9.42136         2.85722         13.2939 
        1.97583         9.34223         2.81408         13.1765 
        1.98812         9.26768         2.77199         13.0791 
        2.00039         9.18281         2.73084         13.0004 
        2.01264         9.08914         2.69057         12.9115 
        2.02492         9.01307         2.65106          12.801 
        2.03717         8.87425          2.6124          12.713 
        2.04942         8.77961         2.57457         12.6223 
        2.06171         8.75433         2.53735         12.5355 
        2.07397         8.64365         2.50096         12.4525 
        2.08629          8.5672         2.46512         12.3721 
        2.09857         8.48906         2.43008         12.2759 
        2.11081         8.41642         2.39586         12.2068 
        2.12309         8.30556         2.36222         12.0977 
        2.13538         8.23406         2.32917         12.0224 
        2.14763         8.15229         2.29687          11.944 
        2.15986         8.11666         2.26526         11.8713 
        2.17214          8.0379         2.23411         11.7704 
        2.18443          7.9339         2.20352         11.7048 
        2.19671         7.90842         2.17354         11.6261 
        2.20898         7.79216         2.14415         11.5525 
        2.22126         7.71151         2.11528         11.4716 
        2.23354         7.67933         2.08695         11.3876 
         2.2458         7.58861         2.05918         11.3268 
        2.25807         7.52697          2.0319         11.2411 
        2.27035         7.47025         2.00508         11.1734 
        2.28263         7.40786         1.97877         11.0972 
         2.2949         7.32311         1.95294         11.0324 
        2.30718         7.26914         1.92756         10.9754 
        2.31946         7.21624         1.90262         10.9009 
        2.33169         7.15285         1.87823         10.8337 
        2.34393          7.1034         1.85423         10.7595 
        2.35622         7.05325         1.83058         10.6965 
        2.36847         6.98825          1.8074         10.6275 
        2.38076         6.92971         1.78456         10.5638 
        2.39305         6.84362         1.76211         10.4883 
        2.40534           6.808         1.74005         10.4208 
        2.41762          6.7592         1.71837         10.3743 
        2.42989         6.71947          1.6971         10.3119 
        2.44216         6.66212         1.67618         10.2413 
         2.4544         6.59963         1.65567          10.182 
        2.46667         6.58901         1.63545          10.122 
        2.47897         6.53108         1.61553         10.0518 
        2.49124         6.45459         1.59599         9.99408 
        2.50349         6.42278          1.5768         9.94502 
        2.51578         6.36686         1.55787         9.88943 
        2.52805         6.33278         1.53928          9.8318 
        2.54029         6.27234         1.52104         9.77566 
        2.55257         6.26062         1.50305         9.71759 
        2.56487          6.1902         1.48531         9.65177 
        2.57716         6.15197         1.46788         9.60447 
        2.58942         6.12962         1.45077         9.55097 
        2.60167         6.08304         1.43395         9.49348 
        2.61395         6.02633         1.41737         9.44224 
        2.62624         6.00805         1.40103         9.38766 
        2.63849         5.98595           1.385         9.33687 
        2.65073          5.9324         1.36924         9.27826 
        2.66302         5.89692         1.35367         9.22393 
         2.6753         5.85806         1.33835         9.17361 
        2.68756         5.83041         1.32329         9.13136 
        2.69983         5.79219         1.30846          9.0713 
        2.71213         5.75695         1.29383         9.02101 
        2.72441         5.72129         1.27944         8.97402 
        2.73665         5.70832         1.26531          8.9201 
         2.7489         5.68633          1.2514         8.87373 
        2.76118         5.63343         1.23765         8.83401 
        2.77349         5.61172         1.22408         8.78002 
        2.78576         5.59499         1.21077         8.73346 
        2.79802          5.5552         1.19766         8.68636 
        2.81031         5.53826         1.18472         8.64331 
        2.82259         5.50414         1.17197           8.597 
        2.83483         5.48995         1.15946         8.54873 
         2.8471          5.4725          1.1471         8.50762 
         2.8594         5.46482         1.13489         8.46371 
         2.8717         5.42069         1.12286         8.41179 
        2.88396         5.40279         1.11105         8.37032 
        2.89619          5.3698         1.09943         8.33267 
        2.90847          5.3685         1.08793          8.2825 
        2.92072         5.36917         1.07662         8.23839 
        2.93299          5.3589         1.06546         8.20215 
        2.94526         5.33816         1.05445         8.15597 
        2.95753         5.32071          1.0436         8.11171 
        2.96982         5.29985         1.03289         8.07276 
        2.98209         5.29353         1.02234         8.02589 
        2.99436         5.28776         1.01194         7.98638 
        3.00666         5.29697         1.00166         7.95015 
        3.01894          5.2685        0.991542         7.90457 
        3.03119         5.27329         0.98158         7.86553 
        3.04345         5.26842        0.971754         7.82712 
        3.05573         5.25922        0.962043         7.78459 
          3.068         5.25342        0.952475         7.74898 
        3.08026         5.27817        0.943047          7.7121 
        3.09254         5.27045         0.93373         7.67089 
        3.10483         5.26213        0.924536         7.63524 
         3.1171         5.27274        0.915479         7.59985 
        3.12933         5.27756        0.906568         7.55759 
        3.14159         5.26576        0.897756         7.52104 
