# k  (h/Mpc)    Pcb(k)  (Mpc/h)^3    Pcb_linear(k) (Mpc/h)^3    Pcb_NL(k) (Mpc/h)^3   ShotnoiseSubtracted = false
      0.0156606         2841.27         2843.37         2829.34 
      0.0273761         2468.22         2460.37         2453.47 
      0.0384619         1875.59         1854.28         1851.91 
      0.0498308         1469.94          1458.8         1457.56 
      0.0625568         1240.22         1239.95         1237.73 
      0.0751274         1073.71         1053.55         1049.44 
      0.0867833         851.457         848.264         847.731 
      0.0984825         690.392         671.313         673.974 
       0.111151         578.401         560.548         563.133 
       0.123864         519.571         505.176         507.129 
       0.135742         466.891         454.284         456.219 
        0.14762         396.775         388.439         393.039 
       0.160083         329.464         323.789         329.038 
       0.172465         290.407         282.608         288.908 
       0.184281         269.225         260.532         267.221 
       0.196406         245.548         240.601         245.746 
       0.209011         221.374         214.075         219.916 
       0.221538         196.686         187.082         195.258 
       0.233611         177.345          167.39         176.473 
       0.245665          166.56         154.495         162.572 
       0.258103         150.169         143.822         151.864 
       0.270422         140.958         132.156         139.964 
       0.282519         127.905         119.939         128.279 
       0.294636         122.013         109.278         118.073 
       0.306978         107.936           101.1         110.189 
       0.319417         102.998          94.523         103.313 
        0.33169         95.7523         88.2271         96.7209 
       0.343948         90.9078         81.7476         90.3848 
       0.356249          83.446          75.671         85.1287 
       0.368458         79.6375         70.5813         79.3029 
        0.38068         74.6809         66.3248         74.9737 
       0.392856         69.7964         62.4394          71.163 
       0.405069         66.0468         58.6402         67.1109 
       0.417459         61.8603         54.9615         63.4936 
       0.429752         59.2461         51.6592         60.1969 
       0.441978         56.4184         48.7609         57.6178 
       0.454294          52.494          46.129          54.529 
        0.46658         52.0494         43.6595           52.02 
       0.478753         48.4022         41.3298         49.7125 
       0.490964         46.7592         39.1415         47.6594 
       0.503334         44.8012         37.1216         45.4017 
       0.515665         42.5715         35.2798          43.862 
       0.527909         40.7383         33.5795         41.5582 
       0.540159         39.0528         31.9708          39.958 
        0.55248         36.5226         30.4444         38.2692 
       0.564743         36.0202         29.0311         36.9971 
        0.57686         34.8128         27.7321         35.5786 
       0.589077         32.7909         26.5059         34.4181 
       0.601441         31.6461         25.3399         33.1586 
        0.61382         30.5477         24.2406         31.8422 
       0.626067         29.3148         23.2147         30.8499 
       0.638306         28.3475         22.2487         29.7146 
       0.650632         27.5568         21.3334         28.7618 
       0.662899         26.3963         20.4757          27.758 
       0.675076         25.1937         19.6719         26.8663 
       0.687267         24.8269         18.9102         25.9849 
       0.699615          23.971         18.1794         25.2537 
       0.711937         22.7668         17.4885         24.4259 
       0.724148         22.6444         16.8393         23.7964 
       0.736433         21.3298         16.2199         23.0325 
       0.748747         20.9488         15.6308         22.3961 
       0.761037         20.4206         15.0723         21.8039 
       0.773197         19.7153         14.5469         21.2346 
       0.785376         18.9658         14.0459         20.6567 
       0.797761         18.5543         13.5608         20.0987 
       0.810096         18.1241         13.1005         19.6111 
       0.822371         17.6225         12.6638         19.0342 
       0.834626         17.0664         12.2479         18.6203 
       0.846916         16.5464         11.8496         18.1337 
       0.859215         15.9479         11.4689          17.705 
       0.871383         15.6575         11.1088         17.3233 
        0.88363         15.2466         10.7621         16.9036 
       0.895928         14.9475          10.429         16.4697 
       0.908253         14.5625         10.1094         16.1314 
       0.920535          14.129          9.8043         15.7463 
       0.932774         13.9058         9.51294         15.3464 
        0.94508           13.45         9.23202         15.0563 
       0.957324         13.2011         8.96387         14.7597 
        0.96953         12.7421         8.70724         14.4244 
       0.981769         12.6353         8.46006         14.1257 
       0.994071         12.2854         8.22135         13.8258 
         1.0064         11.9054         7.99147         13.5589 
        1.01868          11.678          7.7711         13.2945 
        1.03092         11.4954         7.56006         13.0134 
         1.0432         11.0787         7.35614         12.7519 
        1.05553         10.9044         7.15897         12.5527 
        1.06777         10.5858          6.9705         12.2809 
           1.08         10.3973         6.78902         12.0625 
        1.09227         10.1888         6.61345         11.8428 
         1.1046         10.0033         6.44346         11.6028 
         1.1169         9.69643         6.27977         11.3945 
        1.12915         9.67093          6.1226          11.238 
        1.14142          9.2971          5.9705         11.0097 
        1.15365         9.19785         5.82404         10.8165 
        1.16585         9.07958          5.6829         10.6601 
        1.17807         8.80947         5.54628         10.4457 
        1.19037         8.66265         5.41327         10.2856 
        1.20276         8.45636         5.28374         10.1044 
        1.21504         8.33835         5.15949         9.95813 
        1.22728         8.12299         5.03975         9.77927 
        1.23954         8.00163         4.92355         9.64673 
        1.25184         7.83513          4.8108         9.48754 
        1.26414         7.73512         4.70155         9.32203 
        1.27632         7.52143         4.59667         9.18958 
         1.2886         7.43598         4.49427         9.05306 
        1.30093         7.28596         4.39464         8.94583 
        1.31316         7.12923         4.29876         8.79057 
        1.32541         7.02378         4.20573         8.68503 
        1.33772           6.888         4.11494         8.53616 
        1.35005         6.80138         4.02678         8.42635 
        1.36225         6.66453         3.94211         8.29025 
        1.37447         6.54961         3.85972          8.1911 
        1.38676         6.42918         3.77931         8.08097 
        1.39907         6.31176         3.70107         7.96917 
        1.41133          6.2217         3.62538         7.85941 
        1.42358         6.09627         3.55189         7.74838 
        1.43591         6.03193         3.47993         7.66247 
        1.44818         5.88641         3.41037          7.5572 
        1.46037         5.79248         3.34312         7.45443 
        1.47263         5.70904         3.27732         7.36827 
        1.48494         5.64822         3.21305         7.26466 
        1.49724         5.53846         3.15055         7.17834 
        1.50952         5.50823         3.08985         7.09288 
        1.52178         5.38072         3.03083          7.0039 
        1.53409         5.27843         2.97312         6.90873 
        1.54637         5.21935         2.91704         6.82597 
        1.55858         5.15346         2.86273         6.73956 
        1.57081         5.04094         2.80972         6.67842 
        1.58313         4.98735         2.75773         6.59207 
        1.59544          4.8925         2.70709          6.5236 
        1.60767         4.84132         2.65804         6.43954 
        1.61994         4.76353         2.61004         6.37735 
        1.63225         4.68282         2.56313         6.30135 
        1.64452         4.60464          2.5175         6.22786 
        1.65676         4.54141         2.47313         6.16186 
          1.669         4.50329         2.42979         6.09474 
        1.68133         4.39048         2.38722         6.02762 
        1.69363         4.36718          2.3458         5.97048 
        1.70585         4.30113         2.30563         5.89811 
        1.71809         4.25379         2.26631         5.84263 
        1.73038         4.19521         2.22779         5.77812 
        1.74268         4.12816         2.19014         5.72039 
        1.75493         4.07369         2.15354         5.65642 
        1.76714         4.04301         2.11787         5.59984 
        1.77942         3.97574         2.08282         5.54252 
        1.79173         3.92161         2.04848         5.48241 
        1.80402         3.87468         2.01498         5.43115 
         1.8163         3.84128         1.98226         5.38413 
         1.8286         3.77694          1.9502         5.33381 
         1.8409         3.71681         1.91888         5.28377 
        1.85315         3.67879         1.88836          5.2204 
        1.86537         3.64825         1.85856         5.17976 
        1.87765         3.58396         1.82929         5.12569 
        1.88995         3.53561         1.80059         5.08289 
        1.90221         3.49566          1.7726         5.03184 
        1.91445         3.45792         1.74525         4.99717 
        1.92674         3.43195         1.71838         4.93903 
        1.93902         3.37289         1.69208         4.89157 
        1.95124          3.3321         1.66647          4.8504 
         1.9635         3.31134         1.64133         4.81024 
        1.97583         3.25566         1.61654         4.76868 
        1.98812         3.21338         1.59236         4.72297 
        2.00039         3.18126         1.56873          4.6826 
        2.01264         3.14227         1.54559         4.64914 
        2.02492         3.11102         1.52289         4.60687 
        2.03717         3.07129         1.50069         4.56444 
        2.04942         3.03169         1.47895         4.52782 
        2.06171         2.99778         1.45758         4.48688 
        2.07397         2.97139         1.43667         4.44966 
        2.08629         2.94335         1.41609         4.41802 
        2.09857         2.90736         1.39595         4.37848 
        2.11081         2.86949          1.3763         4.34337 
        2.12309         2.84705         1.35697         4.30767 
        2.13538         2.81148         1.33799         4.27665 
        2.14763         2.79298         1.31943          4.2395 
        2.15986         2.76542         1.30127         4.20933 
        2.17214         2.72085         1.28338         4.16859 
        2.18443         2.70771         1.26581         4.13779 
        2.19671         2.66888         1.24858         4.10654 
        2.20898         2.64575          1.2317         4.07793 
        2.22126         2.62494         1.21512         4.04626 
        2.23354         2.59124         1.19884         4.01407 
         2.2458         2.57821         1.18289         3.97936 
        2.25807         2.54372         1.16722         3.95391 
        2.27035         2.51689         1.15182         3.92679 
        2.28263         2.49137          1.1367         3.89643 
         2.2949         2.47465         1.12186         3.86967 
        2.30718         2.44937         1.10728          3.8442 
        2.31946         2.42359         1.09296         3.81559 
        2.33169         2.40279         1.07895         3.78632 
        2.34393         2.39082         1.06516         3.75933 
        2.35622         2.36493         1.05157         3.73198 
        2.36847          2.3378         1.03826          3.7044 
        2.38076         2.32122         1.02513         3.67761 
        2.39305         2.29615         1.01224         3.64981 
        2.40534         2.27702        0.999569         3.62781 
        2.41762         2.25022        0.987116         3.60572 
        2.42989          2.2381        0.974894         3.57814 
        2.44216         2.22419         0.96288         3.55576 
         2.4544         2.20077        0.951096         3.53281 
        2.46667         2.18375        0.939483         3.50873 
        2.47897         2.16654        0.928035         3.48411 
        2.49124         2.14482         0.91681         3.46171 
        2.50349         2.13271        0.905787         3.43829 
        2.51578         2.11016        0.894912         3.41276 
        2.52805          2.0922        0.884236         3.39214 
        2.54029         2.08184        0.873759         3.37035 
        2.55257         2.06297        0.863421         3.34876 
        2.56487         2.04852        0.853231         3.32636 
        2.57716         2.04108        0.843219         3.30524 
        2.58942         2.01867        0.833391         3.28474 
        2.60167         2.00605        0.823728         3.26246 
        2.61395         1.98229        0.814205         3.24488 
        2.62624         1.97865        0.804819          3.2242 
        2.63849         1.96332        0.795611         3.20211 
        2.65073         1.94706        0.786556         3.18252 
        2.66302         1.93305         0.77761         3.16427 
         2.6753         1.93209        0.768809         3.14484 
        2.68756         1.90754        0.760162         3.12606 
        2.69983         1.89619        0.751642         3.10563 
        2.71213         1.89062        0.743235         3.08726 
        2.72441         1.87739        0.734971         3.06899 
        2.73665         1.86209        0.726853         3.05235 
         2.7489         1.85069        0.718862         3.03623 
        2.76118         1.84138        0.710967         3.01799 
        2.77349         1.83814        0.703172         2.99978 
        2.78576         1.82732        0.695524         2.98171 
        2.79802          1.8188        0.687994         2.96435 
        2.81031         1.80272        0.680558         2.94637 
        2.82259         1.79565        0.673234         2.92908 
        2.83483         1.79111        0.666047         2.91371 
         2.8471         1.78132         0.65895         2.89702 
         2.8594         1.77214        0.651935         2.88134 
         2.8717         1.76455        0.645025         2.86523 
        2.88396         1.76136         0.63824         2.84825 
        2.89619         1.74648        0.631565         2.83205 
        2.90847         1.74357        0.624961         2.81528 
        2.92072         1.73812        0.618462         2.80109 
        2.93299         1.73674        0.612053         2.78584 
        2.94526         1.72956        0.605728         2.77114 
        2.95753         1.71994        0.599495         2.75589 
        2.96982         1.71829        0.593339         2.74048 
        2.98209          1.7181        0.587282         2.72683 
        2.99436         1.71027        0.581304         2.71223 
        3.00666         1.71388        0.575399         2.69803 
        3.01894          1.7062        0.569588         2.68206 
        3.03119         1.70691        0.563866         2.66811 
        3.04345         1.70362        0.558221         2.65552 
        3.05573         1.70183        0.552643         2.64205 
          3.068         1.70258        0.547147         2.62814 
        3.08026         1.69918        0.541731          2.6132 
        3.09254         1.70326        0.536378         2.59927 
        3.10483          1.7034        0.531097         2.58688 
         3.1171          1.7033        0.525894         2.57415 
        3.12933          1.7046        0.520775         2.56018 
        3.14159         1.70472        0.515713         2.54638 
