# k  (h/Mpc)    Pcb(k)  (Mpc/h)^3    Pcb_linear(k) (Mpc/h)^3    Pcb_NL(k) (Mpc/h)^3   ShotnoiseSubtracted = false
      0.0156606         17698.6         17779.2         17650.1 
      0.0273761         15202.8         15372.6         15230.8 
      0.0384619         11512.4         11581.7         11460.3 
      0.0498308         8910.59         9109.81         8989.13 
      0.0625568         7526.08         7742.22         7633.32 
      0.0751274         6682.01         6577.85         6423.43 
      0.0867833         5189.93         5295.89         5249.73 
      0.0984825         4359.09         4191.02         4237.47 
       0.111151         3715.47         3499.42         3554.27 
       0.123864          3331.6         3153.68         3198.53 
       0.135742         3028.83         2835.94         2881.32 
        0.14762         2627.12         2424.87          2545.2 
       0.160083         2216.07         2021.27         2167.34 
       0.172465         1976.75         1764.18          1949.4 
       0.184281         1801.44         1626.36         1813.97 
       0.196406         1683.49         1501.94         1667.31 
       0.209011         1566.69         1336.34         1508.84 
       0.221538         1413.02         1167.84         1401.35 
       0.233611         1342.16         1044.91         1307.53 
       0.245665         1222.65         964.413         1205.42 
       0.258103         1194.53         897.786         1136.61 
       0.270422         1069.69          824.96         1064.96 
       0.282519         1002.35         748.698         1002.75 
       0.294636          990.25         682.147         947.112 
       0.306978         896.441           631.1         905.205 
       0.319417         872.734         590.042         852.695 
        0.33169         822.112         550.741          805.48 
       0.343948         785.693         510.293         778.905 
       0.356249         741.248         472.361         748.349 
       0.368458         716.801         440.589         711.754 
        0.38068         698.153         414.019         682.932 
       0.392856         660.311         389.765         657.374 
       0.405069         630.042         366.048         637.043 
       0.417459         605.342         343.085         610.422 
       0.429752         594.866         322.471         588.734 
       0.441978         574.703         304.379         572.727 
       0.454294         546.452          287.95         548.508 
        0.46658         533.303         272.534         536.177 
       0.478753         519.953         257.992         518.883 
       0.490964          500.39         244.332         502.373 
       0.503334         475.452         231.723         489.963 
       0.515665         474.472         220.226         479.319 
       0.527909         456.326         209.612         467.232 
       0.540159         444.838          199.57         454.454 
        0.55248         436.168         190.042         442.317 
       0.564743          431.67         181.219         434.453 
        0.57686         415.185         173.111         422.292 
       0.589077         403.197         165.457         412.849 
       0.601441         397.946         158.178         403.991 
        0.61382         389.118         151.316         396.683 
       0.626067         383.684         144.912         388.435 
       0.638306         368.199         138.882         380.947 
       0.650632         363.372         133.168          370.57 
       0.662899         360.234         127.815         366.179 
       0.675076         346.577         122.797         359.892 
       0.687267          337.91         118.042         351.367 
       0.699615         333.801          113.48         345.625 
       0.711937         328.808         109.167           339.4 
       0.724148         318.035         105.115         334.388 
       0.736433         310.956         101.249         327.894 
       0.748747         306.612         97.5711         321.822 
       0.761037         300.869         94.0849         317.198 
       0.773197         297.284         90.8052         312.648 
       0.785376         292.738         87.6781         307.497 
       0.797761          285.29         84.6498         302.691 
       0.810096         282.639         81.7766         298.701 
       0.822371         272.493         79.0507          293.76 
       0.834626         271.557         76.4541         289.696 
       0.846916          265.66          73.968         285.376 
       0.859215         265.614         71.5916         281.294 
       0.871383          258.52         69.3438         277.193 
        0.88363         256.983         67.1796         274.336 
       0.895928         251.321         65.1001         269.971 
       0.908253         244.758         63.1051         265.629 
       0.920535         243.223         61.2008         262.145 
       0.932774         236.348         59.3821         258.511 
        0.94508         233.865         57.6285         255.817 
       0.957324         233.069         55.9547         252.138 
        0.96953         229.706         54.3527         248.739 
       0.981769         222.875         52.8097         246.295 
       0.994071         221.997         51.3196          243.14 
         1.0064         217.146         49.8847         239.518 
        1.01868         214.324         48.5091         236.627 
        1.03092         209.562         47.1917         234.295 
         1.0432         205.976         45.9188         231.426 
        1.05553         203.272          44.688         228.449 
        1.06777         202.809         43.5115         226.108 
           1.08         197.801         42.3787          223.33 
        1.09227         195.434         41.2828         220.835 
         1.1046         192.581         40.2216         218.563 
         1.1169         188.823         39.1998         215.564 
        1.12915         186.191         38.2187         213.615 
        1.14142         183.241         37.2693         210.854 
        1.15365         180.711          36.355         208.635 
        1.16585         178.117          35.474         205.977 
        1.17807          175.86         34.6212         204.332 
        1.19037         174.217         33.7909         202.345 
        1.20276         171.568         32.9824         199.793 
        1.21504         168.211         32.2067         197.641 
        1.22728         165.107         31.4593         195.113 
        1.23954         164.614          30.734         193.709 
        1.25184         161.498         30.0302         191.499 
        1.26414         158.828         29.3482          189.52 
        1.27632         158.268         28.6935         188.243 
         1.2886          156.19         28.0543         185.754 
        1.30093         151.665         27.4324         183.699 
        1.31316         150.017         26.8339         181.623 
        1.32541         148.466         26.2531         180.209 
        1.33772         147.074         25.6864         178.287 
        1.35005         144.789         25.1361         176.285 
        1.36225         142.769         24.6076         174.691 
        1.37447         140.677         24.0933         172.623 
        1.38676         138.978         23.5914         171.095 
        1.39907         136.521         23.1029          169.33 
        1.41133         134.535         22.6305         167.841 
        1.42358         132.715         22.1717         166.266 
        1.43591         131.269         21.7225         164.447 
        1.44818         129.802         21.2883         163.007 
        1.46037         127.601         20.8686         161.308 
        1.47263         126.304         20.4578         160.065 
        1.48494         124.327         20.0566         158.165 
        1.49724         122.663         19.6665         156.787 
        1.50952         120.424         19.2875         155.307 
        1.52178         119.947         18.9192         153.679 
        1.53409         117.491         18.5589         152.414 
        1.54637         116.077         18.2089         151.112 
        1.55858         114.008         17.8698         149.522 
        1.57081         112.552          17.539          148.26 
        1.58313         111.205         17.2144         146.779 
        1.59544         109.808         16.8983         145.511 
        1.60767         108.529         16.5921         144.114 
        1.61994         106.679         16.2925          143.05 
        1.63225         105.371         15.9996         141.377 
        1.64452         103.463         15.7148         140.125 
        1.65676         101.987         15.4378         138.985 
          1.669         101.406         15.1673         137.839 
        1.68133          99.322         14.9016         136.551 
        1.69363         98.3635          14.643         135.356 
        1.70585         96.5689         14.3923         134.139 
        1.71809         95.4004         14.1469         132.816 
        1.73038         94.6843         13.9064         131.718 
        1.74268         93.4012         13.6714         130.505 
        1.75493         91.8208         13.4429         129.352 
        1.76714         90.5659         13.2202         128.316 
        1.77942         89.5089         13.0015         127.042 
        1.79173         88.1565         12.7871         126.056 
        1.80402         87.4897          12.578         124.981 
         1.8163         85.7658         12.3737         123.775 
         1.8286         84.5935         12.1736         122.729 
         1.8409         83.9438         11.9781         121.651 
        1.85315         82.5932         11.7876         120.684 
        1.86537         81.6164         11.6016         119.667 
        1.87765         80.9123         11.4189         118.597 
        1.88995         79.5579         11.2397         117.635 
        1.90221         78.5167          11.065         116.622 
        1.91445         77.3365         10.8942         115.573 
        1.92674         76.1661         10.7265         114.637 
        1.93902         75.2514         10.5624         113.607 
        1.95124         74.5689         10.4025         112.724 
         1.9635         73.4288         10.2455         111.645 
        1.97583         72.3656         10.0908         110.847 
        1.98812         71.4398         9.93991         109.897 
        2.00039         70.4606         9.79237          108.96 
        2.01264         69.8577         9.64796         108.047 
        2.02492         68.8495         9.50627         107.144 
        2.03717         67.7151         9.36765         106.209 
        2.04942         67.4104         9.23198         105.454 
        2.06171         65.9367         9.09854         104.532 
        2.07397         65.2386         8.96803         103.717 
        2.08629         64.5098         8.83954         102.811 
        2.09857         63.5262         8.71387         101.999 
        2.11081         62.5568         8.59116         101.065 
        2.12309         62.0052         8.47053         100.382 
        2.13538         61.1136         8.35204         99.5183 
        2.14763         60.2894         8.23621          98.721 
        2.15986         59.1992         8.12285         97.8947 
        2.17214          58.791         8.01116         97.0858 
        2.18443         58.0829         7.90147         96.4395 
        2.19671         57.0355         7.79396         95.6104 
        2.20898         56.8152         7.68858         94.8262 
        2.22126         55.9115         7.58504         94.0466 
        2.23354          55.195         7.48345         93.3419 
         2.2458         54.4787         7.38389         92.6326 
        2.25807         53.7531         7.28605         91.8447 
        2.27035         53.2242          7.1899          91.111 
        2.28263         52.3798         7.09554         90.3897 
         2.2949         51.9374         7.00292         89.6889 
        2.30718         50.9491         6.91192          89.023 
        2.31946         50.5416          6.8225          88.319 
        2.33169         49.7538         6.73504         87.6372 
        2.34393         49.0993         6.64898         86.9771 
        2.35622         48.6832         6.56416         86.2939 
        2.36847         48.0992         6.48105         85.7024 
        2.38076         47.3378         6.39913         84.9486 
        2.39305         46.8027         6.31865         84.3578 
        2.40534         46.3185         6.23955         83.6648 
        2.41762         45.8159         6.16181         82.9846 
        2.42989         45.2735         6.08552         82.4356 
        2.44216         44.7684         6.01052         81.7711 
         2.4544         44.2066         5.93697         81.1459 
        2.46667         43.7161         5.86447         80.5068 
        2.47897         43.2249         5.79301         79.9136 
        2.49124         42.6421         5.72294          79.338 
        2.50349         42.2271         5.65414         78.7112 
        2.51578         41.6355         5.58625         78.2016 
        2.52805         41.2436         5.51961         77.5728 
        2.54029         40.7686         5.45421         76.9523 
        2.55257         40.1632         5.38968         76.4253 
        2.56487         39.8416         5.32607         75.8959 
        2.57716         39.3261         5.26357         75.3489 
        2.58942         38.8053         5.20222         74.7697 
        2.60167         38.4781         5.14191         74.2231 
        2.61395         37.9566         5.08246         73.6863 
        2.62624         37.7432         5.02387          73.114 
        2.63849         37.3032         4.96639         72.6063 
        2.65073         36.9192         4.90987         72.0613 
        2.66302         36.3888         4.85402         71.5349 
         2.6753         35.9742         4.79909          71.031 
        2.68756         35.5515         4.74511         70.4912 
        2.69983         35.3136         4.69193         70.0304 
        2.71213          34.943         4.63945         69.5444 
        2.72441         34.5709         4.58786         69.0286 
        2.73665         34.1289         4.53719         68.5283 
         2.7489         34.0527         4.48731         68.0477 
        2.76118         33.5247         4.43802         67.5809 
        2.77349         33.3326         4.38936         67.0961 
        2.78576         33.0676         4.34162         66.5988 
        2.79802         32.6247         4.29462         66.1852 
        2.81031         32.2841          4.2482         65.7038 
        2.82259         32.1982         4.20249         65.2196 
        2.83483         31.7636         4.15762         64.7926 
         2.8471         31.4155         4.11332         64.3464 
         2.8594         31.2762         4.06953         63.8853 
         2.8717         31.0414         4.02639         63.4522 
        2.88396          30.722         3.98404         63.0004 
        2.89619         30.5164         3.94238         62.5414 
        2.90847         30.2818         3.90115         62.1244 
        2.92072         30.0309         3.86059         61.7103 
        2.93299         29.8554         3.82058         61.2864 
        2.94526         29.5908          3.7811         60.8816 
        2.95753         29.4261         3.74219          60.469 
        2.96982         29.3266         3.70376         60.0547 
        2.98209         29.0149         3.66595         59.6551 
        2.99436         28.8676         3.62863         59.2301 
        3.00666         28.7493         3.59178         58.8452 
        3.01894         28.5232          3.5555         58.4355 
        3.03119         28.3907         3.51978         58.0547 
        3.04345          28.215         3.48455         57.6915 
        3.05573         28.1067         3.44972         57.3081 
          3.068         28.0548         3.41542         56.9223 
        3.08026         27.8617         3.38161         56.5391 
        3.09254         27.7512          3.3482         56.1658 
        3.10483         27.7598         3.31523         55.8045 
         3.1171         27.6068         3.28275         55.4407 
        3.12933          27.574          3.2508         55.0672 
        3.14159         27.4294          3.2192         54.6982 
