# k  (h/Mpc)    P(k)  (Mpc/h)^3    P_linear(k)  (Mpc/h)^3     P_NL(k)  ShotnoiseSubtracted = false
      0.0156606         22366.6         22452.6         22272.8 
      0.0273761           19131         19379.1         19162.2 
      0.0384619         14447.7         14586.4         14393.2 
      0.0498308         11145.6         11466.4         11271.8 
      0.0625568         9412.56         9740.86         9568.22 
      0.0751274         8385.02         8273.64         8031.55 
      0.0867833          6490.5            6660         6584.78 
      0.0984825         5490.75         5269.85         5335.69 
       0.111151         4699.83         4399.76         4482.64 
       0.123864         4208.77         3964.75         4031.69 
       0.135742         3839.61         3565.09         3632.09 
        0.14762         3344.67         3048.19         3225.47 
       0.160083          2845.9         2540.74         2760.02 
       0.172465         2537.97         2217.51         2496.88 
       0.184281         2297.45         2044.23         2323.87 
       0.196406         2171.64          1887.8         2141.68 
       0.209011         2033.83         1679.63         1942.28 
       0.221538         1830.17         1467.81         1815.76 
       0.233611         1757.58         1313.29         1703.45 
       0.245665         1591.89          1212.1         1574.06 
       0.258103         1579.58         1128.35         1486.89 
       0.270422         1408.39         1036.82         1397.94 
       0.282519         1332.34         940.961         1325.36 
       0.294636         1306.33         857.313         1256.42 
       0.306978         1195.65         793.154         1204.96 
       0.319417         1173.67          741.55         1136.42 
        0.33169         1102.54         692.154         1077.11 
       0.343948         1059.44         641.317         1044.51 
       0.356249          1005.3         593.643         1006.47 
       0.368458         964.162         553.711         962.999 
        0.38068         950.333         520.321         927.078 
       0.392856         903.097         489.837         895.487 
       0.405069         855.775         460.028         866.299 
       0.417459         823.023         431.169         837.039 
       0.429752         820.643         405.262         808.027 
       0.441978         791.705         382.524         787.982 
       0.454294         757.347         361.876         756.368 
        0.46658         735.905         342.501         741.206 
       0.478753          722.39         324.224          719.22 
       0.490964         694.494         307.056         697.558 
       0.503334          665.27         291.211         682.524 
       0.515665         662.542         276.762         667.117 
       0.527909         634.753         263.423         653.633 
       0.540159         619.515         250.803         637.521 
        0.55248          606.91         238.829         621.204 
       0.564743          601.66         227.741          610.75 
        0.57686         582.192         217.551         594.904 
       0.589077         572.462         207.931         582.009 
       0.601441         558.397         198.784         570.932 
        0.61382         542.581          190.16         560.963 
       0.626067         536.876         182.112         550.789 
       0.638306          517.36         174.534         539.616 
       0.650632         512.504         167.354         527.164 
       0.662899         508.256         160.625          520.74 
       0.675076         492.118          154.32         513.874 
       0.687267         477.814         148.345         501.831 
       0.699615         476.527         142.611         493.939 
       0.711937         466.193         137.191         484.631 
       0.724148         451.166         132.099          478.32 
       0.736433         440.598          127.24         469.964 
       0.748747         434.953         122.618         461.772 
       0.761037         427.232         118.237         456.302 
       0.773197         420.477         114.115         448.721 
       0.785376         415.215         110.185         442.348 
       0.797761         402.728          106.38         435.928 
       0.810096         398.042         102.769         430.381 
       0.822371         387.659         99.3431         423.449 
       0.834626         383.693         96.0799         418.617 
       0.846916         377.945         92.9555         412.069 
       0.859215         373.207         89.9691         406.044 
       0.871383         364.876         87.1443         400.763 
        0.88363         360.452         84.4245         396.731 
       0.895928          355.42         81.8111         390.599 
       0.908253         346.596          79.304         384.185 
       0.920535         339.532         76.9109         380.139 
       0.932774         334.538         74.6253         374.352 
        0.94508         329.351         72.4216         370.643 
       0.957324         325.789          70.318          365.72 
        0.96953          321.59         68.3048         361.314 
       0.981769         313.825         66.3658         357.298 
       0.994071         312.575         64.4931         352.978 
         1.0064         306.652         62.6899         347.857 
        1.01868         303.053         60.9611         343.453 
        1.03092         293.971         59.3056         340.468 
         1.0432          291.15         57.7059         336.356 
        1.05553         288.045         56.1592         331.722 
        1.06777         284.032         54.6807         327.971 
           1.08         277.505         53.2571         324.366 
        1.09227         276.797         51.8798         320.476 
         1.1046         271.208         50.5463         317.461 
         1.1169          265.38         49.2622         313.263 
        1.12915         261.647         48.0292         310.077 
        1.14142         256.311         46.8361         306.436 
        1.15365         253.383         45.6871         303.226 
        1.16585         248.966         44.5799         299.844 
        1.17807         246.514         43.5082         296.592 
        1.19037         242.112         42.4648         294.088 
        1.20276         239.108         41.4487          290.25 
        1.21504         234.105          40.474         286.996 
        1.22728         230.641         39.5347         283.882 
        1.23954         229.248         38.6231         281.039 
        1.25184         223.941         37.7387         278.079 
        1.26414          219.43         36.8816         275.453 
        1.27632          217.56         36.0589         272.925 
         1.2886         215.542         35.2556         269.832 
        1.30093         210.628          34.474         266.412 
        1.31316         206.132         33.7219         263.869 
        1.32541         205.014         32.9921         261.066 
        1.33772         201.354         32.2799         258.703 
        1.35005         198.933         31.5884          255.78 
        1.36225         195.054         30.9241         253.391 
        1.37447         191.954         30.2778         250.322 
        1.38676         190.085         29.6471         248.561 
        1.39907         187.274         29.0332         245.525 
        1.41133         183.623         28.4395         242.961 
        1.42358          181.38          27.863         240.678 
        1.43591         178.956         27.2985         238.525 
        1.44818         175.486         26.7528         236.011 
        1.46037         173.997         26.2253         233.477 
        1.47263         170.538         25.7092         231.274 
        1.48494         169.074         25.2049         228.502 
        1.49724         166.066         24.7147          227.07 
        1.50952         163.086         24.2385         224.439 
        1.52178         161.288         23.7755         222.201 
        1.53409         158.356         23.3228         220.179 
        1.54637         155.894         22.8829          218.36 
        1.55858         154.174         22.4568         216.036 
        1.57081          151.42          22.041         213.946 
        1.58313         149.447         21.6332         211.772 
        1.59544         146.674         21.2359         209.886 
        1.60767         145.281         20.8511         208.023 
        1.61994         142.791         20.4746         205.937 
        1.63225         140.493         20.1066         203.848 
        1.64452         138.227         19.7487         202.042 
        1.65676         136.458         19.4006          200.31 
          1.669         134.861         19.0606         198.318 
        1.68133         132.187         18.7267         196.508 
        1.69363         129.889         18.4017         194.874 
        1.70585         127.844         18.0866          193.06 
        1.71809          126.16         17.7782         190.993 
        1.73038         124.551          17.476         189.402 
        1.74268         123.387         17.1807         187.548 
        1.75493         120.521         16.8935         186.034 
        1.76714         119.908         16.6137         184.408 
        1.77942         117.362         16.3388         182.687 
        1.79173         115.601         16.0694         180.971 
        1.80402         114.058         15.8066         179.361 
         1.8163         111.985         15.5499         177.932 
         1.8286         110.487         15.2985         176.185 
         1.8409         109.155         15.0528         174.552 
        1.85315         106.951         14.8133         173.121 
        1.86537         105.929         14.5796          171.66 
        1.87765         104.574           14.35         170.191 
        1.88995          102.64         14.1248         168.563 
        1.90221         101.382         13.9052         167.254 
        1.91445         99.8388         13.6907         165.644 
        1.92674         98.2252         13.4799         164.183 
        1.93902         97.0356         13.2736         162.703 
        1.95124          95.667         13.0727         161.336 
         1.9635          94.078         12.8755         159.933 
        1.97583         92.6288          12.681         158.519 
        1.98812         91.2821         12.4914         157.396 
        2.00039         90.2492          12.306         155.876 
        2.01264         89.1193         12.1245         154.594 
        2.02492         87.8632         11.9464         153.176 
        2.03717         86.5055         11.7722         151.977 
        2.04942         85.3912         11.6017         150.675 
        2.06171         83.8751          11.434         149.336 
        2.07397         82.8886           11.27         148.203 
        2.08629         81.6033         11.1085         146.908 
        2.09857         80.6261         10.9506         145.735 
        2.11081         79.3045         10.7964          144.39 
        2.12309         78.3055         10.6448          143.29 
        2.13538         77.0091         10.4959         142.037 
        2.14763         75.9581         10.3503         140.884 
        2.15986         75.1004         10.2079         139.626 
        2.17214         74.0184         10.0675         138.555 
        2.18443         73.0971         9.92968         137.565 
        2.19671         72.1601         9.79458         136.365 
        2.20898         71.2078         9.66215         135.139 
        2.22126         70.1538         9.53203         134.151 
        2.23354         69.2847         9.40436         133.081 
         2.2458         67.9359         9.27924         131.955 
        2.25807         67.2572         9.15629         130.902 
        2.27035         66.2831         9.03547         129.839 
        2.28263         65.4651         8.91688         128.852 
         2.2949         64.1919         8.80048         127.834 
        2.30718         63.3276         8.68613         126.783 
        2.31946         62.7455         8.57375           125.7 
        2.33169         61.7468         8.46385         124.759 
        2.34393         61.2292          8.3557         123.883 
        2.35622          60.149          8.2491         122.824 
        2.36847         59.5469         8.14465         121.975 
        2.38076         58.4744         8.04171         120.901 
        2.39305         57.9142         7.94057         120.067 
        2.40534         57.0387         7.84116         119.066 
        2.41762         56.4285         7.74347         118.117 
        2.42989         55.5288         7.64759          117.26 
        2.44216         55.0282         7.55335          116.28 
         2.4544         54.1464         7.46091         115.443 
        2.46667         53.3798         7.36981         114.562 
        2.47897         52.8786         7.28001         113.613 
        2.49124         52.2609         7.19195         112.768 
        2.50349         51.3794         7.10548         111.934 
        2.51578         51.0102         7.02017         111.172 
        2.52805         50.2075         6.93642         110.244 
        2.54029         49.7069         6.85424         109.405 
        2.55257         49.0571         6.77314         108.648 
        2.56487         48.7365          6.6932         107.838 
        2.57716         48.1727         6.61467         107.033 
        2.58942         47.3844         6.53757         106.246 
        2.60167          46.864         6.46177         105.476 
        2.61395         46.5203         6.38706         104.676 
        2.62624         45.7362         6.31343         103.846 
        2.63849         45.2511          6.2412         103.124 
        2.65073         44.6442         6.17017         102.367 
        2.66302         44.2681         6.09999         101.614 
         2.6753         43.6881         6.03095         100.902 
        2.68756         43.3728         5.96312         100.134 
        2.69983         42.8286         5.89629         99.4208 
        2.71213         42.3427         5.83033          98.713 
        2.72441         41.9565         5.76551         97.9869 
        2.73665         41.4918         5.70183         97.3169 
         2.7489         41.0416         5.63914         96.6346 
        2.76118         40.6575         5.57721          95.913 
        2.77349         40.2119         5.51606         95.2511 
        2.78576         39.8361         5.45606         94.5522 
        2.79802         39.4899         5.39699         93.9478 
        2.81031         38.9608         5.33866         93.2618 
        2.82259         38.5906         5.28121         92.5692 
        2.83483         38.1735         5.22483         91.9672 
         2.8471           37.81         5.16916          91.299 
         2.8594         37.4246         5.11413         90.6522 
         2.8717         37.1658         5.05992         90.0681 
        2.88396          36.855          5.0067         89.4389 
        2.89619         36.5509         4.95434         88.7741 
        2.90847         36.1973         4.90253         88.1279 
        2.92072         35.9194         4.85155          87.586 
        2.93299         35.7748         4.80127         87.0047 
        2.94526         35.4106         4.75166         86.3883 
        2.95753         35.1793         4.70276         85.7861 
        2.96982         34.8111         4.65447         85.2181 
        2.98209         34.6896         4.60695         84.6456 
        2.99436         34.4047         4.56006         84.0403 
        3.00666         34.2705         4.51374         83.4786 
        3.01894         34.0487         4.46816         82.9278 
        3.03119         33.8157         4.42326         82.3955 
        3.04345         33.6179         4.37899         81.8532 
        3.05573         33.5219         4.33523         81.2958 
          3.068         33.3129         4.29211         80.7604 
        3.08026         33.1256         4.24963         80.2207 
        3.09254         33.0566         4.20764         79.6983 
        3.10483         33.0553         4.16621         79.1768 
         3.1171         32.8776         4.12539         78.6466 
        3.12933         32.6498         4.08524         78.1243 
        3.14159         32.6561         4.04553         77.6038 
