# k  (h/Mpc)    Pcb(k)  (Mpc/h)^3    Pcb_linear(k) (Mpc/h)^3    Pcb_NL(k) (Mpc/h)^3   ShotnoiseSubtracted = false
      0.0156606         485.225         485.866         483.644 
      0.0273761         423.233         420.651         419.835 
      0.0384619         321.407         317.093         317.128 
      0.0498308         253.069          249.49         249.699 
      0.0625568         213.631         212.075         212.008 
      0.0751274         182.701           180.2         179.957 
      0.0867833         146.382         145.091         145.069 
      0.0984825         117.179         114.826         114.997 
       0.111151         97.8854          95.881         96.0276 
       0.123864         87.8604         86.4102         86.4466 
       0.135742         78.8229         77.7057         77.7097 
        0.14762         67.0989         66.4432         66.5645 
       0.160083         55.8949         55.3849         55.5636 
       0.172465         48.8938         48.3408         48.5449 
       0.184281         45.1969         44.5648         44.7596 
       0.196406         41.4131         41.1557          41.284 
       0.209011         37.0176         36.6182         36.7788 
       0.221538         32.5541          32.001         32.2485 
       0.233611         29.1385         28.6327         28.9086 
       0.245665         27.1186          26.427         26.6647 
       0.258103         24.7217         24.6013         24.8317 
       0.270422         22.9974         22.6058         22.8252 
       0.282519         20.8705         20.5161         20.7612 
       0.294636         19.3152         18.6925         18.9531 
       0.306978         17.4546         17.2937         17.5609 
       0.319417         16.4895         16.1686         16.4265 
        0.33169         15.3495         15.0917         15.3386 
       0.343948         14.3502         13.9833         14.2284 
       0.356249         13.1603         12.9439         13.2295 
       0.368458         12.3803         12.0733         12.3232 
        0.38068          11.555         11.3452         11.5938 
       0.392856         10.8764         10.6806         10.9314 
       0.405069         10.2632         10.0307         10.2663 
       0.417459          9.4797         9.40145         9.65197 
       0.429752         8.99132         8.83658         9.08216 
       0.441978          8.5308         8.34081          8.6024 
       0.454294         8.00517          7.8906         8.13699 
        0.46658         7.69579         7.46819         7.70797 
       0.478753         7.22977         7.06968         7.30723 
       0.490964         6.91497         6.69536         6.94955 
       0.503334         6.57895         6.34985         6.58575 
       0.515665         6.19355         6.03479          6.2841 
       0.527909          5.9374         5.74395          5.9733 
       0.540159         5.61969         5.46878         5.69364 
        0.55248         5.31214         5.20769         5.42146 
       0.564743         5.16719         4.96592         5.19819 
        0.57686         4.92484         4.74373         4.96548 
       0.589077         4.64069         4.53398         4.76474 
       0.601441         4.46071         4.33453         4.55927 
        0.61382         4.27026         4.14648         4.36249 
       0.626067         4.07727           3.971         4.18435 
       0.638306         3.92705         3.80576         4.01468 
       0.650632         3.79907          3.6492         3.86169 
       0.662899         3.63572         3.50248         3.70671 
       0.675076         3.45736         3.36499         3.56939 
       0.687267         3.32257          3.2347         3.42759 
       0.699615         3.23679         3.10968          3.3004 
       0.711937         3.08929          2.9915         3.18815 
       0.724148         3.00626         2.88046         3.07183 
       0.736433         2.86729         2.77451         2.95729 
       0.748747         2.76988         2.67373         2.86485 
       0.761037         2.67179          2.5782         2.76198 
       0.773197         2.56758         2.48832         2.67506 
       0.785376          2.4753         2.40263         2.58378 
       0.797761         2.39291         2.31965         2.49355 
       0.810096         2.33477         2.24092         2.42144 
       0.822371         2.26743         2.16622         2.33768 
       0.834626         2.19029         2.09507         2.26258 
       0.846916         2.11342         2.02694         2.20095 
       0.859215         2.02625         1.96182         2.13525 
       0.871383         1.96595         1.90022          2.0675 
        0.88363         1.90969         1.84092         2.00741 
       0.895928         1.86258         1.78393         1.94643 
       0.908253         1.80471         1.72926         1.89098 
       0.920535         1.75207         1.67708         1.83401 
       0.932774         1.69449         1.62724         1.77937 
        0.94508         1.64998         1.57919         1.73072 
       0.957324         1.60625         1.53332          1.6874 
        0.96953         1.55099         1.48942         1.64017 
       0.981769         1.50154         1.44714         1.59175 
       0.994071         1.46681         1.40631         1.55569 
         1.0064          1.4245         1.36699         1.51155 
        1.01868         1.38179         1.32929         1.47311 
        1.03092         1.35939         1.29319         1.43199 
         1.0432          1.3163         1.25831         1.39653 
        1.05553         1.27991         1.22458         1.36354 
        1.06777         1.24334         1.19234         1.32951 
           1.08         1.21806          1.1613         1.29573 
        1.09227         1.17638         1.13127         1.26316 
         1.1046         1.14976         1.10219         1.23447 
         1.1169         1.11976         1.07419         1.20475 
        1.12915         1.09247         1.04731         1.17592 
        1.14142         1.07072         1.02129         1.14861 
        1.15365         1.04493        0.996235         1.12236 
        1.16585         1.01826        0.972092         1.09556 
        1.17807         1.00185        0.948723         1.07265 
        1.19037        0.962864        0.925971         1.04678 
        1.20276        0.945724        0.903814         1.02151 
        1.21504         0.92623         0.88256         1.00353 
        1.22728        0.909558        0.862079        0.977801 
        1.23954        0.886058        0.842201        0.959704 
        1.25184        0.870211        0.822915        0.936981 
        1.26414        0.849064        0.804226         0.91703 
        1.27632        0.823855        0.786287        0.897607 
         1.2886        0.806092        0.768771        0.877608 
        1.30093        0.785327        0.751728        0.862581 
        1.31316        0.763509        0.735327        0.843617 
        1.32541        0.751506        0.719414        0.827628 
        1.33772        0.738628        0.703884        0.810827 
        1.35005        0.725885        0.688804        0.794972 
        1.36225        0.708412        0.674321        0.778275 
        1.37447        0.693462        0.660227        0.764486 
        1.38676        0.680434        0.646473        0.748291 
        1.39907        0.666067        0.633089        0.734547 
        1.41133        0.649439        0.620142         0.72064 
        1.42358        0.641332        0.607571        0.705469 
        1.43591        0.627054        0.595262        0.694375 
        1.44818        0.614715        0.583363        0.681871 
        1.46037        0.601059        0.571861        0.667605 
        1.47263        0.589941        0.560605        0.656306 
        1.48494        0.579308         0.54961        0.645122 
        1.49724        0.568209         0.53892        0.633621 
        1.50952        0.555897        0.528536        0.619929 
        1.52178        0.545583        0.518441        0.609644 
        1.53409        0.536578         0.50857        0.599456 
        1.54637        0.523358        0.498977        0.588337 
        1.55858        0.516137        0.489686        0.578246 
        1.57081        0.509139        0.480619        0.567948 
        1.58313         0.49793        0.471726        0.559048 
        1.59544         0.49005        0.463063        0.549027 
        1.60767        0.481337        0.454673        0.539947 
        1.61994        0.470817        0.446462        0.531723 
        1.63225        0.462017        0.438438        0.522926 
        1.64452        0.456022        0.430633        0.513661 
        1.65676        0.448948        0.423043        0.505603 
          1.669        0.441169         0.41563        0.497016 
        1.68133        0.432145        0.408348        0.489394 
        1.69363        0.424732        0.401263        0.481798 
        1.70585        0.418151         0.39439         0.47378 
        1.71809        0.410315        0.387666        0.466265 
        1.73038         0.40393        0.381076        0.459299 
        1.74268        0.395625        0.374637        0.451443 
        1.75493        0.392487        0.368375        0.445504 
        1.76714        0.384022        0.362273        0.438472 
        1.77942        0.378439        0.356279        0.431905 
        1.79173        0.372495        0.350404        0.424472 
        1.80402        0.365957        0.344675        0.418746 
         1.8163        0.361091        0.339077        0.411405 
         1.8286        0.353269        0.333594        0.406967 
         1.8409        0.349432        0.328236        0.400052 
        1.85315        0.344311        0.323015        0.394217 
        1.86537        0.336677        0.317917        0.388492 
        1.87765        0.332417        0.312911        0.383087 
        1.88995        0.328778        0.308001         0.37778 
        1.90221        0.323898        0.303213        0.372112 
        1.91445        0.318278        0.298535        0.367079 
        1.92674        0.313155        0.293939         0.36179 
        1.93902        0.307668         0.28944         0.35642 
        1.95124        0.303259         0.28506        0.351513 
         1.9635        0.299895        0.280758        0.346528 
        1.97583        0.295603        0.276519        0.341683 
        1.98812        0.291118        0.272383         0.33755 
        2.00039        0.288185         0.26834        0.332513 
        2.01264        0.283678        0.264383        0.328293 
        2.02492        0.279866          0.2605        0.323748 
        2.03717        0.274313        0.256701         0.31947 
        2.04942        0.271921        0.252984         0.31509 
        2.06171        0.267651        0.249327        0.310885 
        2.07397        0.263356        0.245751        0.306956 
        2.08629        0.260827         0.24223        0.302802 
        2.09857        0.256675        0.238786         0.29895 
        2.11081        0.252825        0.235423        0.294608 
        2.12309        0.249823        0.232118         0.29152 
        2.13538        0.246249        0.228871        0.287535 
        2.14763        0.243832        0.225697        0.284045 
        2.15986        0.239727         0.22259        0.280522 
        2.17214        0.236935         0.21953        0.276916 
        2.18443        0.234543        0.216524        0.273403 
        2.19671        0.230968        0.213578        0.270266 
        2.20898        0.228786         0.21069        0.266624 
        2.22126        0.224965        0.207853        0.263609 
        2.23354        0.223014        0.205069        0.260481 
         2.2458        0.220211         0.20234        0.256679 
        2.25807         0.21765        0.199659        0.254081 
        2.27035        0.214376        0.197025        0.251008 
        2.28263        0.211871        0.194439        0.248107 
         2.2949        0.209781        0.191901         0.24482 
        2.30718        0.206648        0.189407        0.242048 
        2.31946        0.205458        0.186957        0.239297 
        2.33169         0.20183         0.18456        0.236454 
        2.34393        0.199546        0.182202        0.233938 
        2.35622        0.197755        0.179877        0.231026 
        2.36847        0.196062          0.1776        0.228428 
        2.38076        0.193553        0.175355        0.225879 
        2.39305         0.19097         0.17315        0.223217 
        2.40534        0.188762        0.170982         0.22067 
        2.41762        0.187394        0.168852        0.218199 
        2.42989        0.184675        0.166761        0.215664 
        2.44216        0.182745        0.164706        0.213366 
         2.4544          0.1809        0.162691        0.211071 
        2.46667        0.178779        0.160704        0.208571 
        2.47897        0.176759        0.158746        0.206246 
        2.49124         0.17503        0.156826        0.204051 
        2.50349        0.173324         0.15494        0.201722 
        2.51578        0.171258         0.15308        0.199504 
        2.52805        0.170041        0.151254        0.197434 
        2.54029        0.168688        0.149462        0.195388 
        2.55257        0.166647        0.147693        0.193341 
        2.56487        0.165034         0.14595        0.191264 
        2.57716         0.16361        0.144238        0.189166 
        2.58942        0.161819        0.142556        0.187092 
        2.60167        0.160442        0.140904        0.185208 
        2.61395        0.159096        0.139275        0.183264 
        2.62624        0.157441        0.137669        0.181391 
        2.63849        0.156144        0.136094        0.179521 
        2.65073        0.154345        0.134545         0.17766 
        2.66302        0.153404        0.133015        0.175756 
         2.6753         0.15189        0.131509        0.173999 
        2.68756        0.151003         0.13003        0.172268 
        2.69983        0.149339        0.128573        0.170301 
        2.71213        0.147875        0.127135        0.168748 
        2.72441        0.146632        0.125721        0.167138 
        2.73665        0.145636        0.124332        0.165441 
         2.7489        0.145334        0.122966        0.163804 
        2.76118        0.144036        0.121615        0.162149 
        2.77349        0.142297        0.120282        0.160636 
        2.78576        0.141691        0.118973        0.159167 
        2.79802        0.140274        0.117685        0.157292 
        2.81031        0.139553        0.116413        0.155896 
        2.82259         0.13839        0.115161        0.154394 
        2.83483        0.137243        0.113931        0.152798 
         2.8471        0.136521        0.112717        0.151525 
         2.8594        0.136057        0.111517        0.150104 
         2.8717        0.134842        0.110335        0.148552 
        2.88396        0.134419        0.109175        0.147221 
        2.89619        0.133548        0.108033         0.14588 
        2.90847        0.132796        0.106903        0.144458 
        2.92072        0.131626        0.105792        0.143034 
        2.93299        0.131164        0.104695        0.141721 
        2.94526        0.130443        0.103613        0.140463 
        2.95753        0.129404        0.102547        0.139136 
        2.96982        0.129118        0.101494        0.137771 
        2.98209        0.128181        0.100458        0.136523 
        2.99436        0.128131       0.0994354        0.135294 
        3.00666        0.127618       0.0984254        0.133989 
        3.01894        0.127139       0.0974314        0.132846 
        3.03119        0.126516       0.0964525        0.131685 
        3.04345        0.126031        0.095487        0.130495 
        3.05573        0.126064       0.0945327        0.129324 
          3.068        0.125579       0.0935926        0.128135 
        3.08026        0.124923       0.0926662        0.127065 
        3.09254        0.125121       0.0917506        0.125937 
        3.10483        0.124755       0.0908472        0.124839 
         3.1171        0.124364       0.0899572        0.123697 
        3.12933        0.124222       0.0890816        0.122481 
        3.14159         0.12383       0.0882157        0.121542 
