# k  (h/Mpc)    Pcb(k)  (Mpc/h)^3    Pcb_linear(k) (Mpc/h)^3    Pcb_NL(k) (Mpc/h)^3   ShotnoiseSubtracted = false
      0.0156606           85.82         86.9319         86.5329 
      0.0273761         74.9752         75.3057         75.1569 
      0.0384619         56.9106         56.7758         56.7776 
      0.0498308         44.8836         44.6744         44.7082 
      0.0625568         37.9069          37.976         37.9618 
      0.0751274         32.2641         32.2689         32.2211 
      0.0867833         25.9656         25.9822         25.9782 
      0.0984825         20.7013         20.5628         20.5969 
       0.111151         17.2814         17.1702         17.2001 
       0.123864         15.5171         15.4742         15.4844 
       0.135742         13.9199         13.9154         13.9202 
        0.14762         11.8876         11.8986         11.9281 
       0.160083         9.91971         9.91836         9.95858 
       0.172465         8.67083         8.65691         8.70331 
       0.184281         7.99588         7.98068         8.02641 
       0.196406         7.34498         7.37017         7.40163 
       0.209011         6.55164         6.55762         6.59595 
       0.221538         5.74336         5.73079         5.78816 
       0.233611         5.14709         5.12759         5.19137 
       0.245665         4.76681         4.73258         4.78801 
       0.258103         4.38961         4.40563         4.45979 
       0.270422         4.05846         4.04827         4.09996 
       0.282519         3.68458         3.67405         3.73127 
       0.294636          3.3811         3.34748         3.40812 
       0.306978         3.09357         3.09698         3.15921 
       0.319417         2.90992          2.8955         2.95567 
        0.33169         2.71313         2.70264          2.7604 
       0.343948          2.5226         2.50416         2.56154 
       0.356249         2.32415         2.31802         2.38436 
       0.368458         2.17413         2.16211         2.22048 
        0.38068         2.03924         2.03172          2.0898 
       0.392856         1.91979          1.9127         1.97132 
       0.405069         1.81248         1.79632         1.85153 
       0.417459          1.6805         1.68363         1.74201 
       0.429752         1.58786         1.58247         1.63981 
       0.441978         1.50331         1.49369         1.55456 
       0.454294         1.41885         1.41306         1.47048 
        0.46658         1.34965         1.33742         1.39341 
       0.478753         1.27793         1.26605         1.32162 
       0.490964          1.2145         1.19902         1.25813 
       0.503334         1.15451         1.13714         1.19226 
       0.515665         1.09161         1.08072         1.13886 
       0.527909         1.04592         1.02864         1.08217 
       0.540159        0.991721        0.979361         1.03194 
        0.55248        0.940808        0.932603        0.982803 
       0.564743        0.906064        0.889308        0.943403 
        0.57686        0.864336        0.849516        0.901366 
       0.589077        0.820663        0.811954        0.865692 
       0.601441        0.790952        0.776237        0.828681 
        0.61382         0.75557        0.742561        0.793013 
       0.626067        0.721905        0.711136        0.761052 
       0.638306        0.694236        0.681543        0.730407 
       0.650632        0.667979        0.653506        0.703132 
       0.662899        0.642704        0.627232         0.67506 
       0.675076        0.612203        0.602609        0.650325 
       0.687267        0.588577        0.579277        0.624554 
       0.699615        0.571047        0.556889         0.60169 
       0.711937         0.54811        0.535724        0.581651 
       0.724148        0.530754        0.515839        0.560686 
       0.736433        0.509335        0.496865        0.539852 
       0.748747        0.491191        0.478817        0.523416 
       0.761037        0.472766        0.461709        0.504822 
       0.773197        0.456928        0.445614        0.489301 
       0.785376        0.440061        0.430269        0.472717 
       0.797761        0.426071        0.415408        0.456312 
       0.810096        0.415022        0.401308        0.443603 
       0.822371        0.401369        0.387931        0.428284 
       0.834626        0.388656        0.375189        0.414714 
       0.846916        0.376556        0.362988        0.403619 
       0.859215        0.361841        0.351327        0.391839 
       0.871383        0.352224        0.340296        0.379663 
        0.88363        0.340986        0.329675        0.368727 
       0.895928        0.332223         0.31947        0.357643 
       0.908253        0.322382         0.30968        0.347628 
       0.920535         0.31305        0.300335        0.337258 
       0.932774        0.303843         0.29141        0.327234 
        0.94508        0.295179        0.282805        0.318589 
       0.957324        0.287408         0.27459         0.31083 
        0.96953        0.277982        0.266729        0.302259 
       0.981769        0.270492        0.259157        0.293371 
       0.994071        0.263701        0.251845        0.286906 
         1.0064        0.256101        0.244803        0.278946 
        1.01868        0.249874        0.238052        0.271883 
        1.03092        0.244093        0.231588          0.2644 
         1.0432        0.238141        0.225341        0.258019 
        1.05553        0.231032        0.219301        0.252075 
        1.06777        0.224704        0.213527        0.245972 
           1.08        0.220247        0.207968        0.239732 
        1.09227           0.214         0.20259        0.233798 
         1.1046        0.208789        0.197383        0.228645 
         1.1169        0.203658        0.192368         0.22319 
        1.12915        0.198247        0.187554        0.218003 
        1.14142        0.194874        0.182894        0.212956 
        1.15365        0.190187        0.178408        0.208291 
        1.16585        0.185341        0.174084        0.203397 
        1.17807        0.181925        0.169899        0.199182 
        1.19037        0.176741        0.165825         0.19446 
        1.20276        0.173627        0.161857        0.189848 
        1.21504        0.169594        0.158051        0.186623 
        1.22728        0.166301        0.154383        0.181885 
        1.23954        0.162712        0.150823         0.17872 
        1.25184        0.159384        0.147369        0.174456 
        1.26414        0.155889        0.144023        0.170764 
        1.27632        0.151767         0.14081        0.167378 
         1.2886        0.148358        0.137673        0.163641 
        1.30093        0.145391        0.134621        0.160927 
        1.31316        0.141968        0.131684         0.15746 
        1.32541        0.139391        0.128834        0.154543 
        1.33772        0.136705        0.126053        0.151481 
        1.35005        0.134589        0.123353        0.148606 
        1.36225        0.131754        0.120759        0.145513 
        1.37447        0.129218        0.118235         0.14303 
        1.38676        0.127061        0.115772        0.140017 
        1.39907        0.124672        0.113375        0.137583 
        1.41133        0.121765        0.111056        0.134994 
        1.42358         0.11974        0.108805         0.13218 
        1.43591        0.117781        0.106601        0.130296 
        1.44818         0.11546         0.10447        0.127937 
        1.46037        0.113209         0.10241          0.1253 
        1.47263        0.111192        0.100394        0.123265 
        1.48494        0.108998       0.0984254        0.121179 
        1.49724        0.106924       0.0965109         0.11907 
        1.50952        0.105212       0.0946514        0.116574 
        1.52178        0.103523       0.0928436        0.114723 
        1.53409        0.102024       0.0910759        0.112797 
        1.54637        0.100058       0.0893579        0.110754 
        1.55858       0.0980782       0.0876941        0.108931 
        1.57081       0.0965876       0.0860703        0.107005 
        1.58313       0.0952039       0.0844777        0.105454 
        1.59544       0.0938606       0.0829263        0.103562 
        1.60767       0.0923513       0.0814238        0.101896 
        1.61994       0.0903579       0.0799535        0.100385 
        1.63225       0.0886385       0.0785164        0.098793 
        1.64452       0.0876669       0.0771187       0.0970655 
        1.65676       0.0865858       0.0757594       0.0955905 
          1.669       0.0851795        0.074432       0.0939833 
        1.68133       0.0835508       0.0731279       0.0926303 
        1.69363       0.0821173        0.071859       0.0911785 
        1.70585       0.0809332       0.0706283       0.0897732 
        1.71809       0.0796879        0.069424       0.0883584 
        1.73038       0.0785473        0.068244       0.0870577 
        1.74268       0.0770074       0.0670908       0.0856296 
        1.75493       0.0764714       0.0659695       0.0845398 
        1.76714       0.0751511       0.0648767        0.083214 
        1.77942       0.0742559       0.0638032       0.0820024 
        1.79173       0.0732594       0.0627512       0.0806572 
        1.80402       0.0720455       0.0617251       0.0795645 
         1.8163       0.0710253       0.0607226       0.0782328 
         1.8286       0.0699744       0.0597407       0.0774388 
         1.8409       0.0688448       0.0587813       0.0761559 
        1.85315       0.0681794       0.0578462       0.0750596 
        1.86537       0.0668412       0.0569333       0.0740317 
        1.87765       0.0661608       0.0560368       0.0729764 
        1.88995       0.0653694       0.0551574       0.0720403 
        1.90221       0.0646438          0.0543       0.0709769 
        1.91445       0.0634823       0.0534623       0.0700445 
        1.92674        0.062773       0.0526393       0.0690911 
        1.93902       0.0618128       0.0518336       0.0680728 
        1.95124       0.0611174       0.0510491       0.0671649 
         1.9635       0.0602338       0.0502788       0.0662396 
        1.97583       0.0596315       0.0495196       0.0653224 
        1.98812       0.0587622       0.0487789       0.0646107 
        2.00039       0.0581008       0.0480549       0.0636459 
        2.01264        0.057369       0.0473463       0.0628634 
        2.02492       0.0568315       0.0466509       0.0620417 
        2.03717        0.055856       0.0459707        0.061244 
        2.04942       0.0554465       0.0453049       0.0604168 
        2.06171       0.0545837         0.04465        0.059643 
        2.07397       0.0538094       0.0440096       0.0589229 
        2.08629       0.0532266        0.043379       0.0581431 
        2.09857       0.0526983       0.0427623       0.0574357 
        2.11081       0.0521544       0.0421602       0.0566307 
        2.12309       0.0513808       0.0415681       0.0560557 
        2.13538       0.0509012       0.0409867       0.0553077 
        2.14763       0.0503341       0.0404183       0.0546633 
        2.15986       0.0498043       0.0398619       0.0540212 
        2.17214       0.0491232       0.0393139       0.0533332 
        2.18443       0.0487703       0.0387755       0.0526646 
        2.19671       0.0480803        0.038248       0.0520934 
        2.20898       0.0476917       0.0377309       0.0514158 
        2.22126       0.0469473       0.0372227       0.0508526 
        2.23354       0.0465363       0.0367242       0.0502842 
         2.2458       0.0460601       0.0362356       0.0495633 
        2.25807       0.0455254       0.0357555       0.0490911 
        2.27035       0.0451388       0.0352836       0.0485006 
        2.28263       0.0445378       0.0348206       0.0479694 
         2.2949       0.0441949        0.034366       0.0473703 
        2.30718        0.043711       0.0339195       0.0468522 
        2.31946       0.0433372       0.0334806       0.0463375 
        2.33169        0.042632       0.0330515       0.0457918 
        2.34393       0.0425834       0.0326291       0.0453315 
        2.35622       0.0419789       0.0322129       0.0447698 
        2.36847       0.0417045        0.031805        0.044289 
        2.38076       0.0411324        0.031403       0.0438111 
        2.39305       0.0409508        0.031008       0.0433271 
        2.40534       0.0404676       0.0306199       0.0428618 
        2.41762       0.0400195       0.0302384       0.0423873 
        2.42989       0.0396631        0.029864       0.0419095 
        2.44216       0.0393509        0.029496       0.0414811 
         2.4544       0.0389482        0.029135       0.0410552 
        2.46667       0.0386888       0.0287792       0.0405788 
        2.47897       0.0381496       0.0284286       0.0401562 
        2.49124       0.0378775       0.0280847       0.0397376 
        2.50349       0.0374951        0.027747       0.0393057 
        2.51578       0.0371631       0.0274139       0.0388942 
        2.52805       0.0369907       0.0270868       0.0385033 
        2.54029       0.0365374       0.0267659       0.0381167 
        2.55257       0.0362546       0.0264492       0.0377366 
        2.56487       0.0359877       0.0261371       0.0373429 
        2.57716       0.0357946       0.0258304       0.0369558 
        2.58942       0.0353549       0.0255293       0.0365657 
        2.60167       0.0350431       0.0252333       0.0362015 
        2.61395       0.0347961       0.0249416       0.0358539 
        2.62624       0.0346793       0.0246541       0.0354988 
        2.63849       0.0342925        0.024372       0.0351446 
        2.65073       0.0339128       0.0240946        0.034786 
        2.66302       0.0337976       0.0238206       0.0344374 
         2.6753       0.0335251        0.023551       0.0341059 
        2.68756        0.033359       0.0232861       0.0337803 
        2.69983       0.0330213       0.0230251       0.0334091 
        2.71213       0.0327815       0.0227676       0.0331167 
        2.72441       0.0324858       0.0225144       0.0328197 
        2.73665       0.0323363       0.0222657       0.0324956 
         2.7489       0.0320944        0.022021       0.0321825 
        2.76118       0.0319322       0.0217791       0.0318789 
        2.77349       0.0316063       0.0215403       0.0315903 
        2.78576       0.0315059        0.021306       0.0313061 
        2.79802       0.0312903       0.0210754       0.0309601 
        2.81031       0.0310551       0.0208476       0.0307046 
        2.82259       0.0307704       0.0206232       0.0304033 
        2.83483       0.0305281       0.0204031       0.0301106 
         2.8471       0.0304792       0.0201857       0.0298751 
         2.8594       0.0302734       0.0199708       0.0296038 
         2.8717       0.0300497       0.0197591       0.0293152 
        2.88396       0.0299921       0.0195513       0.0290635 
        2.89619       0.0297357       0.0193468       0.0288098 
        2.90847       0.0296193       0.0191445       0.0285477 
        2.92072        0.029406       0.0189454        0.028272 
        2.93299       0.0292406       0.0187491        0.028019 
        2.94526       0.0291405       0.0185553       0.0277858 
        2.95753       0.0289237       0.0183644       0.0275416 
        2.96982       0.0287902       0.0181758       0.0272821 
        2.98209        0.028609       0.0179902       0.0270372 
        2.99436       0.0285454       0.0178071       0.0268018 
        3.00666        0.028394       0.0176262        0.026566 
        3.01894       0.0283265       0.0174482       0.0263523 
        3.03119       0.0282036       0.0172729       0.0261243 
        3.04345       0.0280591          0.0171       0.0259014 
        3.05573       0.0280065       0.0169291       0.0256873 
          3.068       0.0278313       0.0167608        0.025453 
        3.08026       0.0277272       0.0165949       0.0252454 
        3.09254       0.0276807       0.0164309       0.0250361 
        3.10483       0.0275869       0.0162691       0.0248276 
         3.1171       0.0275439       0.0161097       0.0246098 
        3.12933       0.0273317       0.0159529       0.0243849 
        3.14159        0.027243       0.0157979       0.0242048 
