# k  (h/Mpc)    P(k)  (Mpc/h)^3    P_linear(k)  (Mpc/h)^3     P_NL(k)  ShotnoiseSubtracted = false
      0.0156606         18602.4         18762.6         18623.4 
      0.0273761         15945.1         16195.7         16039.6 
      0.0384619         12059.6           12191         12056.1 
      0.0498308         9323.89         9583.81         9449.24 
      0.0625568         7872.74         8141.89         8020.97 
      0.0751274         6993.97         6915.69         6744.74 
      0.0867833         5427.51            5567         5515.35 
      0.0984825         4565.56         4405.04         4455.17 
       0.111151         3894.84         3677.79         3737.79 
       0.123864         3491.49         3314.19          3363.1 
       0.135742         3176.44         2980.13         3029.49 
        0.14762         2757.91         2548.05         2679.15 
       0.160083         2330.55         2123.87         2283.72 
       0.172465         2078.85         1853.68         2056.63 
       0.184281         1891.83         1708.84         1913.82 
       0.196406         1772.23         1578.08         1759.98 
       0.209011          1651.7         1404.06         1593.37 
       0.221538         1489.24            1227         1482.15 
       0.233611         1418.26         1097.83         1384.68 
       0.245665         1289.97         1013.25         1277.09 
       0.258103         1265.18          943.24         1204.65 
       0.270422         1131.41         866.721         1129.56 
       0.282519         1062.56         786.592         1065.18 
       0.294636         1048.39         716.668         1006.94 
       0.306978         951.406         663.035         963.132 
       0.319417         927.943         619.897         907.491 
        0.33169         873.778         578.605         857.822 
       0.343948         835.928         536.108         830.143 
       0.356249         789.638         496.256         798.107 
       0.368458         762.486         462.875         760.046 
        0.38068         744.756         434.962         729.787 
       0.392856         705.153         409.479          702.97 
       0.405069          671.91         384.561         681.098 
       0.417459         645.907         360.436         653.823 
       0.429752         636.828          338.78         630.724 
       0.441978         614.999         319.772         613.916 
       0.454294         585.757         302.511         588.222 
        0.46658         570.732         286.315         575.367 
       0.478753         557.545         271.036         557.112 
       0.490964         536.315         256.684          539.61 
       0.503334         510.674         243.439          526.65 
       0.515665         509.628         231.361         515.152 
       0.527909         489.701          220.21         502.766 
       0.540159         477.349          209.66         489.246 
        0.55248         468.076          199.65         476.296 
       0.564743         463.886         190.381         467.991 
        0.57686         446.539         181.863         455.108 
       0.589077         434.777         173.821         444.919 
       0.601441         428.331         166.175         435.622 
        0.61382         418.129         158.965         427.906 
       0.626067         412.743         152.238         419.236 
       0.638306         396.627         145.903         411.068 
       0.650632         392.001           139.9         400.212 
       0.662899         388.585         134.276         395.526 
       0.675076         374.206         129.004         389.107 
       0.687267         364.666         124.009         379.836 
       0.699615         360.891         119.217         373.738 
       0.711937         355.351         114.686         366.961 
       0.724148         343.504         110.429         361.635 
       0.736433         335.708         106.367         354.782 
       0.748747         331.285         102.503         348.296 
       0.761037         325.074         98.8407         343.533 
       0.773197         321.189         95.3951         338.432 
       0.785376         316.284         92.1099         333.094 
       0.797761         307.897         88.9285         327.826 
       0.810096         305.358         85.9101          323.64 
       0.822371         294.932         83.0464         318.298 
       0.834626         293.557         80.3185         314.079 
       0.846916         287.352         77.7067         309.327 
       0.859215         286.921         75.2102         304.909 
       0.871383         279.446         72.8487         300.598 
        0.88363           277.8         70.5752         297.504 
       0.895928          272.04         68.3905         292.772 
       0.908253          265.11         66.2946         288.084 
       0.920535         262.829         64.2941          284.42 
       0.932774         256.193         62.3834         280.416 
        0.94508         253.226         60.5412         277.496 
       0.957324         252.149         58.7828         273.602 
        0.96953           248.5         57.0998         270.047 
       0.981769         241.426         55.4789         267.296 
       0.994071         240.556         53.9134         263.912 
         1.0064         235.385          52.406          260.02 
        1.01868         232.533         50.9608          256.79 
        1.03092         226.689         49.5769         254.358 
         1.0432         223.306         48.2396         251.259 
        1.05553         220.523         46.9466         247.951 
        1.06777         219.691         45.7106         245.366 
           1.08         214.324         44.5206         242.447 
        1.09227         212.061         43.3692         239.641 
         1.1046         208.878         42.2545         237.243 
         1.1169         204.431          41.181         233.998 
        1.12915         201.707         40.1503         231.877 
        1.14142         198.434         39.1529         228.921 
        1.15365         195.736         38.1924         226.509 
        1.16585         192.722         37.2669         223.699 
        1.17807         190.446          36.371         221.791 
        1.19037         188.413         35.4987         219.711 
        1.20276         185.717         34.6493           216.9 
        1.21504         181.855         33.8345         214.548 
        1.22728         178.703         33.0493         211.821 
        1.23954         178.123         32.2872         210.253 
        1.25184         174.653         31.5479         207.889 
        1.26414         171.601         30.8314         205.784 
        1.27632         170.947         30.1437         204.253 
         1.2886         169.191         29.4721         201.654 
        1.30093         164.315         28.8188         199.358 
        1.31316         161.919           28.19         197.125 
        1.32541         160.595         27.5799         195.503 
        1.33772         158.979         26.9846         193.467 
        1.35005         156.458         26.4065         191.297 
        1.36225         154.037         25.8512         189.547 
        1.37447         151.938         25.3109         187.258 
        1.38676         150.104         24.7836         185.704 
        1.39907         147.625         24.2705         183.694 
        1.41133         145.349         23.7742         182.009 
        1.42358         143.523         23.2922         180.298 
        1.43591         141.866         22.8204         178.401 
        1.44818         139.922         22.3642         176.766 
        1.46037         137.916         21.9232         174.913 
        1.47263          136.25         21.4917         173.527 
        1.48494         134.184         21.0702          171.42 
        1.49724         132.379         20.6604         170.045 
        1.50952         129.976         20.2623         168.376 
        1.52178         129.442         19.8753         166.557 
        1.53409         126.665         19.4969         165.189 
        1.54637         125.223         19.1291           163.8 
        1.55858         123.022         18.7729         162.038 
        1.57081         121.379         18.4253         160.661 
        1.58313         119.849         18.0844         159.032 
        1.59544         118.118         17.7523         157.648 
        1.60767         117.011         17.4306         156.164 
        1.61994         114.931         17.1159         154.919 
        1.63225          113.54         16.8082         153.161 
        1.64452         111.461          16.509          151.79 
        1.65676         109.839          16.218         150.532 
          1.669         109.188         15.9339         149.257 
        1.68133         106.838         15.6547         147.881 
        1.69363         105.612         15.3831         146.562 
        1.70585          103.71         15.1196          145.26 
        1.71809         102.525         14.8618         143.757 
        1.73038         101.808         14.6092           142.6 
        1.74268          100.59         14.3623         141.257 
        1.75493         98.4017         14.1223          140.03 
        1.76714         97.3802         13.8883         138.898 
        1.77942         96.0019         13.6585         137.493 
        1.79173         94.6333         13.4333         136.408 
        1.80402         93.8792         13.2137          135.22 
         1.8163         91.9278         12.9991         133.966 
         1.8286         90.7078         12.7889         132.786 
         1.8409         90.0723         12.5835         131.587 
        1.85315         88.5168         12.3833         130.539 
        1.86537         87.4894         12.1879          129.45 
        1.87765         86.6874          11.996          128.32 
        1.88995         85.2183         11.8077         127.221 
        1.90221         84.0757         11.6242         126.144 
        1.91445         82.9925         11.4448         124.973 
        1.92674         81.6105         11.2686         123.944 
        1.93902         80.6054         11.0962         122.835 
        1.95124         79.7938         10.9282         121.837 
         1.9635         78.5385         10.7633         120.714 
        1.97583          77.372         10.6008         119.801 
        1.98812         76.3903         10.4422         118.804 
        2.00039         75.4554         10.2872         117.762 
        2.01264         74.6631         10.1355         116.783 
        2.02492         73.7136         9.98669         115.779 
        2.03717         72.4764         9.84107          114.79 
        2.04942         72.1454         9.69854         113.945 
        2.06171         70.4982         9.55836         112.951 
        2.07397         69.7255         9.42125         112.054 
        2.08629         68.9269         9.28626         111.078 
        2.09857         67.8786         9.15425         110.193 
        2.11081         66.8402         9.02534         109.177 
        2.12309         66.0672         8.89861          108.43 
        2.13538         65.2472         8.77412         107.486 
        2.14763         64.3607         8.65244         106.625 
        2.15986         63.2581         8.53335         105.713 
        2.17214         62.7469         8.41602          104.84 
        2.18443          61.991         8.30078         104.145 
        2.19671         60.8259         8.18784         103.252 
        2.20898         60.5045         8.07714         102.378 
        2.22126         59.5788         7.96837         101.551 
        2.23354         58.8826         7.86164         100.777 
         2.2458         57.9931         7.75705         99.9954 
        2.25807         57.2202         7.65427         99.1535 
        2.27035         56.6041         7.55326         98.3488 
        2.28263         55.8106         7.45413         97.5752 
         2.2949         55.2158         7.35682         96.8143 
        2.30718         54.1938         7.26123          96.085 
        2.31946         53.8675         7.16728         95.2942 
        2.33169         52.9261         7.07541         94.5634 
        2.34393         52.3608           6.985         93.8592 
        2.35622         51.6832         6.89589         93.1178 
        2.36847         51.2065         6.80858         92.4824 
        2.38076         50.3088         6.72252         91.6492 
        2.39305         49.7564         6.63797         91.0203 
        2.40534         49.2283         6.55487          90.273 
        2.41762         48.6389         6.47321          89.535 
        2.42989         48.0561         6.39306         88.9266 
        2.44216         47.5045         6.31427         88.2011 
         2.4544         46.8839           6.237         87.5335 
        2.46667         46.3487         6.16084         86.8447 
        2.47897         45.8557         6.08577         86.1837 
        2.49124         45.2503         6.01216         85.5705 
        2.50349         44.9338         5.93988         84.8943 
        2.51578         44.2066         5.86856         84.3436 
        2.52805         43.7188         5.79855         83.6487 
        2.54029         43.2764         5.72985          82.976 
        2.55257         42.6504         5.66205         82.4119 
        2.56487         42.2982         5.59523         81.8388 
        2.57716         41.7181         5.52958         81.2368 
        2.58942         41.1501         5.46512         80.6121 
        2.60167         40.8433         5.40176         80.0274 
        2.61395         40.2439         5.33931          79.448 
        2.62624         40.0041         5.27776         78.8133 
        2.63849         39.4796         5.21737         78.2618 
        2.65073         39.1213         5.15799         77.6823 
        2.66302         38.5922         5.09933         77.1054 
         2.6753         38.1539         5.04162         76.5653 
        2.68756          37.753         4.98491         75.9885 
        2.69983         37.3948         4.92904          75.482 
        2.71213         37.0158         4.87391         74.9503 
        2.72441         36.6406         4.81972         74.3961 
        2.73665         36.1151         4.76648         73.8618 
         2.7489         35.9919         4.71408          73.341 
        2.76118         35.4816         4.66231         72.8307 
        2.77349         35.1981         4.61119         72.3064 
        2.78576         34.9328         4.56103         71.7653 
        2.79802         34.5275         4.51165         71.3286 
        2.81031         34.1292         4.46289         70.8048 
        2.82259         34.0674         4.41487         70.2811 
        2.83483         33.5918         4.36773         69.8281 
         2.8471         33.2482         4.32119         69.3363 
         2.8594         33.0066         4.27519         68.8308 
         2.8717         32.8245         4.22988         68.3707 
        2.88396         32.4529         4.18538         67.8882 
        2.89619         32.3081         4.14161         67.3855 
        2.90847         31.9653          4.0983         66.9219 
        2.92072         31.7631         4.05569         66.4902 
        2.93299         31.5753         4.01366         66.0364 
        2.94526         31.2588         3.97218         65.5909 
        2.95753         31.0645         3.93131         65.1396 
        2.96982         30.9263         3.89094         64.6952 
        2.98209         30.6307         3.85121         64.2662 
        2.99436         30.4372         3.81201          63.802 
        3.00666         30.3714         3.77329         63.3857 
        3.01894         30.1038         3.73519         62.9472 
        3.03119         29.9667         3.69766         62.5385 
        3.04345         29.8444         3.66065         62.1444 
        3.05573         29.5893         3.62406         61.7279 
          3.068         29.5888         3.58802         61.3124 
        3.08026         29.4197         3.55251         60.8999 
        3.09254          29.292         3.51741         60.5003 
        3.10483         29.2842         3.48277         60.1091 
         3.1171         29.0735         3.44865         59.7129 
        3.12933         29.0584         3.41508         59.3089 
        3.14159         28.9227         3.38189         58.9067 
