# k  (h/Mpc)    Pcb(k)  (Mpc/h)^3    Pcb_linear(k) (Mpc/h)^3    Pcb_NL(k) (Mpc/h)^3   ShotnoiseSubtracted = false
      0.0156606         23287.8         23424.8         23234.1 
      0.0273761           19942         20251.4         20017.6 
      0.0384619         15069.6         15256.4         15046.7 
      0.0498308         11626.8         11999.7         11788.2 
      0.0625568         9823.96           10198         10010.7 
      0.0751274         8759.02         8664.16         8401.81 
      0.0867833          6777.9         6975.53         6893.64 
      0.0984825         5741.83         5520.19         5590.62 
       0.111151         4918.97         4609.22         4698.89 
       0.123864         4404.53         4153.82         4226.12 
       0.135742         4020.95          3735.3         3807.57 
        0.14762         3505.08         3193.86         3384.53 
       0.160083         2987.41         2662.26         2898.77 
       0.172465          2664.1         2323.64         2625.13 
       0.184281         2409.19         2142.11         2443.36 
       0.196406         2281.82         1978.23         2253.05 
       0.209011         2139.33         1760.12         2044.18 
       0.221538         1924.19         1538.18         1912.94 
       0.233611         1850.88         1376.27         1796.15 
       0.245665         1675.53         1270.24         1660.54 
       0.258103         1666.03         1182.49         1569.12 
       0.270422         1485.38         1086.57         1476.12 
       0.282519         1407.16         986.119         1401.12 
       0.294636         1377.67         898.463         1329.02 
       0.306978         1263.22         831.229         1275.32 
       0.319417         1241.72         777.151         1203.03 
        0.33169         1165.88         725.386         1140.97 
       0.343948         1121.56         672.112         1106.85 
       0.356249         1065.46         622.151         1067.07 
       0.368458         1020.27         580.304         1022.03 
        0.38068         1007.34         545.308         984.503 
       0.392856         958.075         513.362          951.58 
       0.405069         906.916         482.126         920.162 
       0.417459         872.196          451.88         890.309 
       0.429752         871.563          424.73         859.586 
       0.441978         840.809           400.9         838.587 
       0.454294         804.912         379.261         805.334 
        0.46658         782.221         358.957         789.431 
       0.478753         768.467         339.803         766.399 
       0.490964         739.202         321.811         743.526 
       0.503334         708.522         305.204         727.894 
       0.515665         705.296         290.061          711.32 
       0.527909         675.419         276.081         697.471 
       0.540159         659.776         262.855         680.691 
        0.55248         646.097         250.306         663.454 
       0.564743         640.174         238.685         652.306 
        0.57686         620.383         228.006         635.595 
       0.589077         611.295         217.924         622.037 
       0.601441         595.045         208.338         610.414 
        0.61382         577.858         199.299         599.669 
       0.626067          572.11         190.865         589.087 
       0.638306         551.465         182.922         577.085 
       0.650632         546.257         175.397         564.208 
       0.662899          541.79         168.345         557.193 
       0.675076         525.421         161.737         550.139 
       0.687267         509.845         155.475         537.408 
       0.699615         509.271         149.466         528.941 
       0.711937         497.291         143.785         518.904 
       0.724148         481.661         138.448          512.36 
       0.736433          470.54         133.356         503.541 
       0.748747         464.504         128.512         494.865 
       0.761037           456.4          123.92         489.135 
       0.773197         448.622           119.6         480.835 
       0.785376         443.571         115.481         474.088 
       0.797761         430.219         111.493           467.5 
       0.810096         424.313         107.709         461.449 
       0.822371         414.064         104.118         454.095 
       0.834626         409.441         100.698         449.057 
       0.846916         403.977         97.4238         442.047 
       0.859215         398.034         94.2938         435.541 
       0.871383         389.482         91.3332         429.937 
        0.88363         384.078         88.4827         425.633 
       0.895928         379.258         85.7437         419.122 
       0.908253         369.977         83.1161         412.184 
       0.920535         361.491          80.608         408.051 
       0.932774         356.691         78.2125         401.757 
        0.94508         351.169         75.9029         397.872 
       0.957324         346.603         73.6982         392.597 
        0.96953         342.213         71.5883         387.866 
       0.981769         334.205          69.556         383.537 
       0.994071         332.888         67.5934         378.946 
         1.0064         326.751         65.7035         373.461 
        1.01868         322.716         63.8916         368.788 
        1.03092         313.253         62.1565         365.598 
         1.0432         310.211         60.4799         361.188 
        1.05553         307.084         58.8589         356.194 
        1.06777         302.363         57.3093         352.101 
           1.08         295.518         55.8173         348.251 
        1.09227         295.067         54.3738           344.1 
         1.1046         288.784         52.9762          340.93 
         1.1169         282.976         51.6304         336.454 
        1.12915          278.69         50.3381         332.924 
        1.14142         273.018         49.0876         329.091 
        1.15365         269.809         47.8835         325.657 
        1.16585         265.386          46.723         322.064 
        1.17807         262.721         45.5998         318.439 
        1.19037         257.518         44.5063         315.753 
        1.20276         254.717         43.4413         311.659 
        1.21504         249.504         42.4197          308.15 
        1.22728         245.755         41.4353         304.993 
        1.23954         244.158         40.4799         301.725 
        1.25184         238.504         39.5529         298.582 
        1.26414         233.857         38.6547         295.775 
        1.27632          231.41         37.7924         293.012 
         1.2886          228.97         36.9505         289.741 
        1.30093         224.141         36.1313         286.013 
        1.31316         219.409          35.343         283.417 
        1.32541         218.204         34.5782         280.267 
        1.33772         214.062         33.8318         277.803 
        1.35005         211.495          33.107         274.656 
        1.36225         207.451         32.4108         272.096 
        1.37447         204.049         31.7334         268.852 
        1.38676          202.07         31.0723         266.954 
        1.39907         199.055          30.429         263.664 
        1.41133         195.175         29.8068         260.883 
        1.42358         192.696         29.2025         258.441 
        1.43591         189.993         28.6109         256.173 
        1.44818         186.317          28.039         253.415 
        1.46037          184.77         27.4861         250.704 
        1.47263         181.176         26.9451          248.24 
        1.48494         179.757         26.4167         245.315 
        1.49724         176.287         25.9028         243.818 
        1.50952         173.317         25.4037         240.876 
        1.52178         170.995         24.9185         238.625 
        1.53409         168.125         24.4441         236.361 
        1.54637         165.366          23.983         234.413 
        1.55858         163.568         23.5365         231.957 
        1.57081         160.656         23.1007         229.627 
        1.58313          158.64         22.6732         227.306 
        1.59544         155.653         22.2568         225.292 
        1.60767         154.192         21.8536         223.301 
        1.61994         151.507         21.4589             221 
        1.63225          149.01         21.0732         218.776 
        1.64452         146.612         20.6981         216.844 
        1.65676         144.798         20.3333         215.006 
          1.669         143.034          19.977         212.798 
        1.68133         140.159          19.627         210.853 
        1.69363         137.762         19.2864         209.141 
        1.70585         135.617         18.9561         207.146 
        1.71809         133.785         18.6329         204.952 
        1.73038         131.883         18.3162          203.21 
        1.74268         130.706         18.0067         201.228 
        1.75493         127.957         17.7057         199.618 
        1.76714         127.107         17.4124         197.849 
        1.77942         124.461         17.1243         196.059 
        1.79173          122.75          16.842         194.149 
        1.80402         120.903         16.5666         192.428 
         1.8163         118.829         16.2975         190.911 
         1.8286         117.111          16.034         189.033 
         1.8409         115.556         15.7765         187.284 
        1.85315          113.41         15.5255          185.74 
        1.86537         112.163         15.2805         184.157 
        1.87765         110.747         15.0399         182.577 
        1.88995         108.805         14.8039         180.831 
        1.90221         107.392         14.5737         179.429 
        1.91445         105.715         14.3489         177.727 
        1.92674         103.929          14.128         176.129 
        1.93902         102.741         13.9118         174.542 
        1.95124         101.247         13.7012         173.084 
         1.9635         99.5889         13.4945         171.581 
        1.97583         98.0621         13.2907         170.037 
        1.98812         96.6216         13.0919         168.866 
        2.00039         95.5269         12.8976         167.221 
        2.01264         94.3383         12.7074         165.843 
        2.02492         92.8087         12.5208         164.318 
        2.03717         91.4828         12.3382         163.039 
        2.04942         90.2586         12.1595         161.619 
        2.06171         88.7355         11.9837         160.167 
        2.07397         87.5691         11.8118         158.971 
        2.08629         86.2146         11.6426         157.584 
        2.09857          85.212         11.4771         156.331 
        2.11081         83.8398         11.3155         154.891 
        2.12309         82.7635         11.1566         153.691 
        2.13538         81.3734         11.0005         152.363 
        2.14763         80.2056          10.848         151.113 
        2.15986         79.3756         10.6986         149.762 
        2.17214         78.2036         10.5515         148.644 
        2.18443         77.2881         10.4071         147.545 
        2.19671         76.2939         10.2655         146.252 
        2.20898         75.1738         10.1267         144.939 
        2.22126         74.1239         9.99031         143.883 
        2.23354         73.1454         9.85649         142.755 
         2.2458         71.7161         9.72536         141.517 
        2.25807         71.0955          9.5965         140.403 
        2.27035         70.0673         9.46987         139.272 
        2.28263         69.1842         9.34558         138.213 
         2.2949         67.8742         9.22358         137.121 
        2.30718          66.902         9.10373         135.985 
        2.31946         66.2202         8.98595         134.825 
        2.33169         65.1862         8.87076         133.819 
        2.34393         64.5512         8.75742          132.89 
        2.35622          63.533         8.64569         131.737 
        2.36847         62.7676         8.53622         130.815 
        2.38076         61.6638         8.42833         129.694 
        2.39305         61.1063         8.32233          128.78 
        2.40534         60.1329         8.21814         127.706 
        2.41762         59.5716         8.11576         126.703 
        2.42989         58.5613         8.01527         125.768 
        2.44216         58.0592          7.9165         124.726 
         2.4544         57.1951         7.81961         123.837 
        2.46667         56.2836         7.72413         122.892 
        2.47897         55.8356         7.63001         121.863 
        2.49124         55.0916         7.53772          120.95 
        2.50349         54.1074          7.4471         120.064 
        2.51578         53.7565         7.35769         119.234 
        2.52805         52.8315         7.26991         118.255 
        2.54029         52.3265         7.18377         117.365 
        2.55257         51.6794         7.09878         116.542 
        2.56487         51.2559           7.015         115.672 
        2.57716         50.6837         6.93268         114.807 
        2.58942         49.8824         6.85188         113.968 
        2.60167         49.3175         6.77244         113.149 
        2.61395         48.9323         6.69414         112.284 
        2.62624         48.1704         6.61697         111.398 
        2.63849         47.6198         6.54126         110.634 
        2.65073         46.9591         6.46681         109.805 
        2.66302         46.5716         6.39326         109.023 
         2.6753         45.8937         6.32091         108.248 
        2.68756         45.6012         6.24981         107.432 
        2.69983         45.0464         6.17976         106.658 
        2.71213         44.5322         6.11064         105.899 
        2.72441         44.1055          6.0427         105.121 
        2.73665         43.6037         5.97596           104.4 
         2.7489         43.1508         5.91026         103.669 
        2.76118         42.7484         5.84535         102.895 
        2.77349          42.297         5.78125         102.188 
        2.78576         41.8669         5.71838         101.447 
        2.79802         41.5107         5.65647         100.788 
        2.81031         41.0199         5.59533         100.062 
        2.82259         40.5773         5.53512         99.3148 
        2.83483         40.1672         5.47602         98.6655 
         2.8471         39.7097         5.41768         97.9522 
         2.8594         39.3603            5.36         97.2646 
         2.8717         39.0896         5.30319         96.6348 
        2.88396         38.6946         5.24741         95.9639 
        2.89619         38.4039         5.19253          95.261 
        2.90847         38.0273         5.13823         94.5643 
        2.92072         37.7205          5.0848         93.9863 
        2.93299         37.5155          5.0321         93.3577 
        2.94526         37.1745          4.9801         92.6915 
        2.95753         36.9285         4.92886         92.0566 
        2.96982         36.5291         4.87824         91.4522 
        2.98209         36.3466         4.82844          90.828 
        2.99436         36.1433          4.7793         90.1866 
        3.00666         35.9427         4.73075         89.5814 
        3.01894         35.7333         4.68297         88.9898 
        3.03119         35.4667         4.63592         88.4224 
        3.04345         35.2243         4.58952         87.8428 
        3.05573         35.2085         4.54365         87.2458 
          3.068         34.9225         4.49847         86.6741 
        3.08026          34.739         4.45394         86.0964 
        3.09254         34.7015         4.40993         85.5365 
        3.10483         34.6148         4.36651         84.9786 
         3.1171         34.4673         4.32373           84.41 
        3.12933         34.2344         4.28165         83.8495 
        3.14159         34.2211         4.24003         83.2959 
