# k  (h/Mpc)    Pcb(k)  (Mpc/h)^3    Pcb_linear(k) (Mpc/h)^3    Pcb_NL(k) (Mpc/h)^3   ShotnoiseSubtracted = false
      0.0156606         7523.94         7538.73            7496 
      0.0273761         6506.83         6520.84          6489.3 
      0.0384619         4941.94         4913.69         4892.82 
      0.0498308         3853.36         3865.37         3846.82 
      0.0625568         3251.84         3285.32         3266.77 
      0.0751274         2849.08         2791.35         2763.17 
      0.0867833         2237.44          2247.4         2241.06 
      0.0984825         1840.84         1778.56          1791.5 
       0.111151         1551.61         1485.09         1498.47 
       0.123864          1393.8         1338.38         1349.63 
       0.135742         1257.45         1203.54         1215.12 
        0.14762         1075.47          1029.1         1057.32 
       0.160083         894.237         857.814          890.23 
       0.172465         794.413          748.71         788.735 
       0.184281         734.297         690.224          732.31 
       0.196406         671.745         637.421         671.444 
       0.209011         613.408         567.143         604.266 
       0.221538         550.871         495.631         547.491 
       0.233611         505.597         443.461         501.558 
       0.245665         472.249         409.298         461.375 
       0.258103         435.598         381.022         432.842 
       0.270422         403.082         350.115         401.461 
       0.282519         368.117         317.749         371.692 
       0.294636          361.53         289.505         346.335 
       0.306978         319.841         267.841         326.919 
       0.319417         306.702         250.416         307.147 
        0.33169         287.054         233.737         288.496 
       0.343948         273.953         216.571         274.023 
       0.356249         254.858         200.472         260.677 
       0.368458         245.962         186.988         244.755 
        0.38068         233.586         175.712          232.78 
       0.392856         218.051         165.418         222.539 
       0.405069         208.536         155.353             213 
       0.417459         198.582         145.607         201.548 
       0.429752          191.11         136.858         193.282 
       0.441978         183.969          129.18         186.632 
       0.454294         171.368         122.207         177.332 
        0.46658         171.581         115.665         171.322 
       0.478753         161.426         109.493         164.922 
       0.490964         156.473         103.696         158.631 
       0.503334         148.742         98.3445         153.268 
       0.515665         144.887          93.465         149.247 
       0.527909         140.329         88.9605         142.736 
       0.540159         135.613         84.6988         138.516 
        0.55248         131.094          80.655         133.735 
       0.564743         127.384         76.9106         130.181 
        0.57686         123.361         73.4693         125.878 
       0.589077         117.819         70.2208         122.789 
       0.601441         115.219         67.1318         119.449 
        0.61382         113.179         64.2194         115.759 
       0.626067         108.736         61.5016         112.779 
       0.638306         104.994         58.9423         109.954 
       0.650632         101.261         56.5175         106.086 
       0.662899         100.895         54.2453         103.653 
       0.675076         97.2468         52.1158         101.116 
       0.687267         95.1245          50.098         98.6615 
       0.699615         92.1746         48.1617         96.6417 
       0.711937         89.3576         46.3313         93.8785 
       0.724148         88.5713         44.6116         92.5542 
       0.736433         84.9115         42.9706         90.0399 
       0.748747         83.3757         41.4098         88.0406 
       0.761037         81.4829         39.9303         85.9488 
       0.773197         79.7099         38.5383         84.8775 
       0.785376          77.758         37.2111          82.699 
       0.797761          77.013         35.9259         81.3936 
       0.810096         74.3436         34.7065         79.5347 
       0.822371         72.9473         33.5497         77.9695 
       0.834626         71.2511         32.4476         76.6587 
       0.846916         70.1511         31.3925         75.2613 
       0.859215         68.5802          30.384         73.7141 
       0.871383         67.6658           29.43         72.4723 
        0.88363         65.8061         28.5115         71.4447 
       0.895928         64.4343         27.6289         70.1626 
       0.908253         62.8919         26.7822         68.9635 
       0.920535         62.5377          25.974         67.8498 
       0.932774         61.2728         25.2022         66.6813 
        0.94508         60.4037         24.4579         65.4728 
       0.957324         58.8715         23.7475         64.6103 
        0.96953         58.7895         23.0677         63.4388 
       0.981769         56.8509         22.4128         62.6823 
       0.994071          56.183         21.7804         61.7461 
         1.0064         54.9608         21.1714         60.7868 
        1.01868         54.1098         20.5876         59.9614 
        1.03092         53.2848         20.0285         59.0637 
         1.0432         52.3732         19.4882         58.1058 
        1.05553         51.0895         18.9659         57.6444 
        1.06777         50.5893         18.4666         56.7365 
           1.08         49.4025         17.9858         55.9151 
        1.09227         48.8278         17.5207         55.1388 
         1.1046         48.1032         17.0703         54.3896 
         1.1169         47.5465         16.6367         53.6102 
        1.12915         46.7328         16.2203         53.0279 
        1.14142         45.8341         15.8173         52.3581 
        1.15365         45.1662         15.4293         51.7517 
        1.16585          44.482         15.0554         51.0101 
        1.17807          43.763         14.6935         50.3511 
        1.19037         43.6295         14.3411         49.9007 
        1.20276         42.8665         13.9979         49.2791 
        1.21504         42.2695         13.6688         48.7294 
        1.22728          41.467         13.3516         48.1497 
        1.23954         41.0042         13.0437         47.4797 
        1.25184         40.3066          12.745         47.0477 
        1.26414          39.746         12.4556         46.4386 
        1.27632         39.4241         12.1777         45.9636 
         1.2886         39.0061         11.9064         45.4662 
        1.30093         38.3235         11.6425         44.8806 
        1.31316         37.7466         11.3885         44.5126 
        1.32541         37.4883          11.142         44.0073 
        1.33772         36.7668         10.9015         43.5451 
        1.35005         36.3474          10.668         43.1176 
        1.36225          35.766         10.4436         42.6993 
        1.37447          34.932         10.2254         42.2182 
        1.38676         35.0473         10.0123         41.8473 
        1.39907         34.4807         9.80505         41.4628 
        1.41133         33.7785         9.60453         41.0259 
        1.42358         33.4406         9.40983         40.5977 
        1.43591         33.0373          9.2192           40.25 
        1.44818         32.7077         9.03491         39.7858 
        1.46037         32.2891         8.85677         39.4243 
        1.47263         32.0534         8.68245         39.1108 
        1.48494         31.4352         8.51216         38.6972 
        1.49724         31.3539         8.34659         38.3383 
        1.50952         30.8573         8.18577         38.0295 
        1.52178         30.4057         8.02942         37.6624 
        1.53409         30.1551         7.87655         37.3311 
        1.54637         29.7658         7.72797         36.9537 
        1.55858         29.0847         7.58408         36.6382 
        1.57081         29.1739         7.44365          36.354 
        1.58313         28.8097         7.30591         36.0074 
        1.59544         28.2713         7.17174         35.7083 
        1.60767         27.9566         7.04181         35.3546 
        1.61994         27.6181         6.91464         35.0801 
        1.63225         27.4887         6.79036         34.8186 
        1.64452         27.0643         6.66948         34.5258 
        1.65676         26.7874         6.55193         34.2125 
          1.669         26.5286         6.43713         33.9667 
        1.68133         26.1827         6.32435         33.6569 
        1.69363         25.8213         6.21461          33.329 
        1.70585         25.6154         6.10817         33.1538 
        1.71809         25.2025         6.00402         32.8076 
        1.73038         25.0726         5.90197         32.6025 
        1.74268          24.764         5.80223         32.2747 
        1.75493         24.4462         5.70526         32.0501 
        1.76714         24.3185         5.61075          31.816 
        1.77942         24.0473         5.51791         31.5487 
        1.79173         23.6026         5.42693         31.3013 
        1.80402         23.3715          5.3382          31.137 
         1.8163         23.2759         5.25149         30.7685 
         1.8286         22.8682         5.16657         30.5916 
         1.8409         22.6703          5.0836         30.3622 
        1.85315         22.4498         5.00273         30.1487 
        1.86537         22.1462         4.92379         29.9199 
        1.87765         22.0186         4.84625         29.6866 
        1.88995          21.719          4.7702         29.4254 
        1.90221         21.5075         4.69605         29.2159 
        1.91445         21.2422         4.62359         29.0036 
        1.92674         21.0545         4.55242         28.7881 
        1.93902         20.8053         4.48274         28.6049 
        1.95124         20.5003          4.4149          28.444 
         1.9635         20.3796         4.34828         28.1877 
        1.97583         20.1692         4.28262         27.9893 
        1.98812         19.9999         4.21857          27.807 
        2.00039         19.7861         4.15595         27.5992 
        2.01264         19.5591         4.09466         27.4205 
        2.02492         19.4015         4.03453         27.1902 
        2.03717         19.1102          3.9757         27.0144 
        2.04942         18.9593         3.91812         26.8107 
        2.06171          18.822         3.86148         26.6353 
        2.07397         18.6335          3.8061         26.4273 
        2.08629         18.4573         3.75156         26.2393 
        2.09857         18.2786         3.69823         26.0762 
        2.11081         18.0436         3.64615         25.8942 
        2.12309         17.9171         3.59495         25.7134 
        2.13538         17.6951         3.54466         25.5421 
        2.14763         17.5224          3.4955         25.3717 
        2.15986         17.4164         3.44739         25.2078 
        2.17214         17.2106         3.39999         25.0419 
        2.18443         17.0411         3.35344         24.8553 
        2.19671         16.8699         3.30781         24.6796 
        2.20898          16.708         3.26309         24.5174 
        2.22126         16.5794         3.21915         24.3673 
        2.23354         16.4949         3.17603         24.2027 
         2.2458         16.2851         3.13377         24.0684 
        2.25807         16.0822         3.09225         23.8643 
        2.27035           15.96         3.05145         23.7256 
        2.28263         15.7954          3.0114         23.5714 
         2.2949         15.7111         2.97209           23.43 
        2.30718          15.569         2.93347         23.2821 
        2.31946         15.4433         2.89551         23.1179 
        2.33169         15.2795          2.8584         22.9689 
        2.34393          15.141         2.82188          22.841 
        2.35622         14.9397         2.78587         22.6876 
        2.36847         14.8386          2.7506          22.532 
        2.38076         14.6795         2.71583         22.4052 
        2.39305         14.5797         2.68168         22.2591 
        2.40534         14.4332         2.64811         22.0914 
        2.41762         14.2965         2.61512         21.9886 
        2.42989         14.1825         2.58274         21.8273 
        2.44216         14.0511         2.55091          21.695 
         2.4544         14.0307         2.51969         21.5464 
        2.46667         13.8473         2.48892          21.426 
        2.47897         13.6776          2.4586         21.2821 
        2.49124         13.6233         2.42886         21.1519 
        2.50349         13.4655         2.39966         21.0104 
        2.51578         13.3694         2.37084         20.9093 
        2.52805         13.2664         2.34256         20.7717 
        2.54029         13.1822          2.3148         20.6436 
        2.55257         13.0905         2.28742         20.5139 
        2.56487         12.9089         2.26042          20.392 
        2.57716         12.8385          2.2339         20.2501 
        2.58942         12.7633         2.20786         20.1509 
        2.60167         12.6101         2.18226         20.0275 
        2.61395         12.6018         2.15703         19.9038 
        2.62624         12.4916         2.13216         19.7812 
        2.63849         12.3623         2.10777         19.6804 
        2.65073         12.2692         2.08378          19.549 
        2.66302         12.1976         2.06008         19.4426 
         2.6753          12.139         2.03677         19.3177 
        2.68756         12.0407         2.01386         19.2122 
        2.69983         11.9431         1.99129         19.0916 
        2.71213         11.8474         1.96901         18.9657 
        2.72441         11.8052         1.94712         18.8652 
        2.73665         11.7319         1.92561         18.7543 
         2.7489          11.671         1.90444         18.6374 
        2.76118         11.5477         1.88353         18.5351 
        2.77349          11.488         1.86288         18.4263 
        2.78576         11.3956         1.84262         18.3265 
        2.79802         11.3603         1.82267         18.2124 
        2.81031         11.2885         1.80297         18.1033 
        2.82259         11.2439         1.78357         18.0058 
        2.83483         11.1762         1.76452         17.9048 
         2.8471         11.1123         1.74572         17.7953 
         2.8594         11.0779         1.72714         17.6873 
         2.8717         11.0173         1.70883         17.5921 
        2.88396          10.946         1.69086          17.491 
        2.89619         10.9106         1.67317         17.3887 
        2.90847         10.8644         1.65568         17.2983 
        2.92072         10.8296         1.63846          17.184 
        2.93299         10.7444         1.62148         17.0964 
        2.94526         10.7321         1.60472         17.0064 
        2.95753         10.6844         1.58821         16.9038 
        2.96982         10.6398          1.5719         16.8074 
        2.98209         10.6344         1.55585         16.7136 
        2.99436         10.6107         1.54002         16.6141 
        3.00666          10.579         1.52438         16.5224 
        3.01894         10.5557         1.50898         16.4438 
        3.03119         10.5179         1.49382         16.3465 
        3.04345         10.4542         1.47887          16.243 
        3.05573         10.4794         1.46409          16.157 
          3.068         10.4591         1.44953         16.0757 
        3.08026         10.4362         1.43518         15.9734 
        3.09254         10.4395           1.421         15.8929 
        3.10483         10.4306         1.40701         15.8151 
         3.1171         10.4524         1.39322         15.7225 
        3.12933         10.4267         1.37966         15.6342 
        3.14159         10.3924         1.36625          15.545 
