# k  (h/Mpc)    Pcb(k)  (Mpc/h)^3    Pcb_linear(k) (Mpc/h)^3    Pcb_NL(k) (Mpc/h)^3   ShotnoiseSubtracted = false
      0.0156606         5068.85         5075.51         5048.76 
      0.0273761         4392.92         4390.89         4374.63 
      0.0384619         3337.79         3308.91         3300.29 
      0.0498308         2608.81         2603.06          2596.3 
      0.0625568         2201.19         2212.49          2204.8 
      0.0751274         1918.29         1879.85          1867.4 
      0.0867833         1513.06         1513.54         1511.28 
      0.0984825         1236.36          1197.8         1204.62 
       0.111151         1038.87         1000.16         1006.99 
       0.123864         933.331         901.359         906.982 
       0.135742         840.355         810.554         816.301 
        0.14762         716.029         693.069         706.644 
       0.160083         594.514         577.716         593.129 
       0.172465         526.455         504.238         523.022 
       0.184281          487.69         464.849         484.774 
       0.196406         444.983         429.288         444.992 
       0.209011         403.841         381.958         399.433 
       0.221538         361.027         333.796         358.224 
       0.233611         328.226         298.661         325.921 
       0.245665         308.081         275.653         299.979 
       0.258103         280.039          256.61         280.843 
       0.270422         261.617         235.795         259.586 
       0.282519         237.926         213.997         239.127 
       0.294636         230.906         194.975         221.489 
       0.306978         203.761         180.385         207.895 
       0.319417          194.98          168.65         195.147 
        0.33169         181.759         157.417         183.015 
       0.343948         173.363         145.856         172.351 
       0.356249         160.256         135.014         163.267 
       0.368458         153.908         125.933         152.625 
        0.38068         145.339         118.338         144.733 
       0.392856         135.522         111.406         137.941 
       0.405069         128.867         104.627         130.959 
       0.417459          122.07         98.0633         123.949 
       0.429752         117.248         92.1714         118.252 
       0.441978         112.225         87.0001         113.765 
       0.454294         104.394         82.3041          107.81 
        0.46658         104.385          77.898         103.528 
       0.478753         97.3616         73.7414         99.3997 
       0.490964         94.3699         69.8369         95.4519 
       0.503334         90.2914          66.233         91.6126 
       0.515665         86.8736         62.9468         88.9382 
       0.527909         83.5942         59.9131         84.4792 
       0.540159          80.615         57.0429         81.7401 
        0.55248         76.4623         54.3195         78.6253 
       0.564743         74.8888         51.7977         76.2266 
        0.57686         72.5641         49.4801          73.598 
       0.589077         68.8739         47.2923         71.4904 
       0.601441          67.029         45.2119         69.2372 
        0.61382         65.1657         43.2504         66.7872 
       0.626067         62.4564         41.4201         64.9834 
       0.638306         60.5949         39.6965         62.9345 
       0.650632         58.5677         38.0634         60.7833 
       0.662899          57.377         36.5331         59.0421 
       0.675076         55.0455         35.0989         57.4261 
       0.687267         54.2444           33.74          55.816 
       0.699615         52.3134         32.4359         54.5779 
       0.711937         50.2481         31.2032         52.7416 
       0.724148         49.9841          30.045          51.815 
       0.736433         47.3174         28.9399         50.2891 
       0.748747         46.7022         27.8887         49.0152 
       0.761037         45.4091         26.8922          47.866 
       0.773197         44.3548         25.9548         46.9385 
       0.785376         42.8214          25.061         45.7229 
       0.797761         42.3159         24.1954          44.799 
       0.810096         41.2111         23.3741         43.7019 
       0.822371         40.2715          22.595         42.6373 
       0.834626         39.1642         21.8528          41.911 
       0.846916         38.2384         21.1422         40.9525 
       0.859215         37.0844          20.463         40.0556 
       0.871383         36.5746         19.8205         39.3299 
        0.88363         35.6455         19.2019         38.6249 
       0.895928         34.8313         18.6075         37.7227 
       0.908253         34.1224         18.0373         37.1203 
       0.920535         33.5481          17.493         36.3557 
       0.932774         32.9642         16.9731         35.6669 
        0.94508         32.2848         16.4719         34.9385 
       0.957324         31.5798         15.9935         34.3617 
        0.96953         30.9688         15.5356         33.6887 
       0.981769          30.334         15.0946         33.1964 
       0.994071         29.6936         14.6687         32.5898 
         1.0064         29.0395         14.2585         32.0423 
        1.01868          28.451         13.8653         31.5433 
        1.03092         28.2249         13.4888         30.9788 
         1.0432         27.4959         13.1249         30.3923 
        1.05553         26.9712         12.7732         30.1099 
        1.06777         26.3025         12.4369         29.4809 
           1.08         25.7464         12.1131          29.027 
        1.09227         25.4226         11.7998          28.668 
         1.1046         25.0515         11.4965         28.1522 
         1.1169         24.6365         11.2045          27.741 
        1.12915         24.3393          10.924         27.3531 
        1.14142         23.6308         10.6527         26.9312 
        1.15365         23.4153         10.3913         26.5621 
        1.16585          23.107         10.1395         26.2108 
        1.17807         22.5831         9.89576         25.7423 
        1.19037         22.3938         9.65845         25.5239 
        1.20276         22.0586         9.42733         25.1213 
        1.21504         21.6134         9.20564         24.8413 
        1.22728         21.2031         8.99201         24.4723 
        1.23954         20.9392         8.78468         24.1185 
        1.25184         20.5427         8.58351         23.8382 
        1.26414         20.2967         8.38858         23.4975 
        1.27632         20.0153         8.20146         23.1976 
         1.2886         19.7989         8.01875         22.9343 
        1.30093         19.3229         7.84098         22.6949 
        1.31316         19.1163         7.66991         22.3733 
        1.32541         18.8898         7.50392         22.1526 
        1.33772         18.5482         7.34195         21.8746 
        1.35005         18.3072         7.18465         21.6411 
        1.36225         18.0608         7.03358         21.3735 
        1.37447         17.6969         6.88658          21.106 
        1.38676         17.5108         6.74311         20.8971 
        1.39907         17.2454          6.6035         20.6578 
        1.41133         16.9842         6.46846          20.417 
        1.42358          16.783         6.33733         20.1787 
        1.43591         16.5263         6.20895         20.0039 
        1.44818         16.3076         6.08483         19.7916 
        1.46037         16.2121         5.96486         19.5354 
        1.47263         15.9152         5.84746          19.383 
        1.48494         15.7883         5.73277          19.131 
        1.49724         15.5721         5.62126         18.9724 
        1.50952          15.333         5.51295         18.7943 
        1.52178         15.1436         5.40766          18.569 
        1.53409         14.8718          5.3047         18.3895 
        1.54637         14.8404         5.20463         18.1706 
        1.55858         14.5789         5.10773         18.0191 
        1.57081         14.3668         5.01315         17.8595 
        1.58313         14.2545         4.92039         17.6818 
        1.59544         14.0089         4.83003         17.5282 
        1.60767         13.8754         4.74252         17.3385 
        1.61994           13.63         4.65687          17.196 
        1.63225         13.5693         4.57317         17.0579 
        1.64452         13.3821         4.49176         16.9089 
        1.65676         13.2115         4.41259         16.7286 
          1.669         13.1022         4.33528          16.575 
        1.68133         12.8499         4.25932         16.4224 
        1.69363         12.7099         4.18541         16.2463 
        1.70585         12.5629         4.11373         16.1551 
        1.71809         12.4354         4.04359         16.0036 
        1.73038         12.2974         3.97486         15.8814 
        1.74268         12.1861         3.90769         15.7225 
        1.75493         11.9703         3.84238         15.5839 
        1.76714         11.9822         3.77873          15.464 
        1.77942         11.8274          3.7162         15.3112 
        1.79173         11.5887         3.65493         15.2063 
        1.80402         11.5213         3.59517         15.0879 
         1.8163         11.3927         3.53678          14.962 
         1.8286         11.2284         3.47958         14.8458 
         1.8409         11.1202          3.4237         14.7265 
        1.85315         11.0114         3.36924         14.5977 
        1.86537         10.9066         3.31607         14.4917 
        1.87765         10.8138         3.26385         14.3765 
        1.88995          10.622         3.21263         14.2689 
        1.90221         10.5771         3.16269         14.1361 
        1.91445         10.4451          3.1139         14.0505 
        1.92674         10.3326         3.06597         13.9305 
        1.93902         10.2355         3.01904         13.8464 
        1.95124         10.1055         2.97335         13.7381 
         1.9635         10.0066         2.92848         13.6254 
        1.97583         9.92121         2.88426         13.5051 
        1.98812         9.84356         2.84112         13.4053 
        2.00039         9.75955         2.79895         13.3246 
        2.01264         9.65793         2.75767         13.2335 
        2.02492         9.57547         2.71717         13.1202 
        2.03717         9.42921         2.67755           13.03 
        2.04942         9.33005         2.63877          12.937 
        2.06171         9.30162         2.60063         12.8481 
        2.07397         9.18526         2.56333         12.7631 
        2.08629         9.10547          2.5266         12.6806 
        2.09857         9.02399         2.49068          12.582 
        2.11081         8.94327         2.45561         12.5112 
        2.12309         8.82511         2.42113         12.3994 
        2.13538          8.7464         2.38726         12.3222 
        2.14763         8.66561         2.35415         12.2419 
        2.15986         8.62798         2.32175         12.1673 
        2.17214         8.54262         2.28983         12.0639 
        2.18443         8.42962         2.25847         11.9967 
        2.19671         8.40627         2.22775          11.916 
        2.20898         8.28418         2.19763         11.8407 
        2.22126          8.1931         2.16803         11.7577 
        2.23354         8.16163         2.13899         11.6716 
         2.2458         8.06418         2.11053         11.6093 
        2.25807         7.99792         2.08257         11.5215 
        2.27035         7.93881         2.05509          11.452 
        2.28263         7.87157         2.02812         11.3739 
         2.2949         7.78044         2.00164         11.3076 
        2.30718         7.72511         1.97563         11.2491 
        2.31946         7.66609         1.95007         11.1727 
        2.33169          7.5994         1.92507         11.1039 
        2.34393         7.54493         1.90048         11.0278 
        2.35622         7.49223         1.87623         10.9633 
        2.36847         7.42275         1.85248         10.8925 
        2.38076          7.3625         1.82906         10.8273 
        2.39305         7.26769         1.80606         10.7499 
        2.40534          7.2311         1.78345         10.6807 
        2.41762         7.18064         1.76123          10.633 
        2.42989         7.13678         1.73942          10.569 
        2.44216         7.07357         1.71799         10.4967 
         2.4544         7.00968         1.69696         10.4359 
        2.46667         6.99733         1.67624         10.3744 
        2.47897         6.93606         1.65582         10.3024 
        2.49124         6.85328         1.63579         10.2433 
        2.50349         6.81853         1.61612          10.193 
        2.51578         6.76199         1.59672         10.1361 
        2.52805         6.72457         1.57767          10.077 
        2.54029         6.65866         1.55897         10.0195 
        2.55257         6.64515         1.54053         9.95993 
        2.56487          6.5683         1.52235         9.89247 
        2.57716         6.52943         1.50449         9.84399 
        2.58942         6.50731         1.48695         9.78916 
        2.60167          6.4569         1.46971         9.73023 
        2.61395         6.39772         1.45272         9.67771 
        2.62624         6.37327         1.43597         9.62177 
        2.63849         6.35089         1.41954         9.56972 
        2.65073         6.29558         1.40339         9.50964 
        2.66302         6.25388         1.38742         9.45396 
         2.6753         6.21667         1.37172         9.40238 
        2.68756         6.18726         1.35629         9.35908 
        2.69983         6.14405         1.34109         9.29753 
        2.71213          6.1082         1.32609         9.24598 
        2.72441         6.06838         1.31135         9.19782 
        2.73665         6.05743         1.29686         9.14255 
         2.7489         6.03297         1.28261         9.09503 
        2.76118         5.97488         1.26852         9.05431 
        2.77349          5.9516         1.25461         8.99898 
        2.78576         5.93563         1.24097         8.95125 
        2.79802         5.89143         1.22753         8.90298 
        2.81031          5.8751         1.21426         8.85886 
        2.82259         5.83589          1.2012         8.81139 
        2.83483         5.81855         1.18837         8.76192 
         2.8471         5.80365         1.17571         8.71979 
         2.8594         5.79673         1.16319         8.67477 
         2.8717          5.7495         1.15086         8.62156 
        2.88396         5.72735         1.13876         8.57906 
        2.89619         5.69227         1.12685         8.54047 
        2.90847         5.69072         1.11507         8.48905 
        2.92072         5.69332         1.10347         8.44384 
        2.93299         5.67821         1.09203          8.4067 
        2.94526         5.65704         1.08075         8.35936 
        2.95753         5.63826         1.06963         8.31399 
        2.96982         5.61648         1.05864         8.27408 
        2.98209         5.60974         1.04784         8.22604 
        2.99436         5.60508         1.03717         8.18554 
        3.00666          5.6126         1.02664          8.1484 
        3.01894         5.58015         1.01627         8.10169 
        3.03119         5.58549         1.00606         8.06168 
        3.04345         5.58231        0.995987         8.02231 
        3.05573         5.57194        0.986034         7.97872 
          3.068         5.56813        0.976228         7.94223 
        3.08026          5.5933        0.966565         7.90442 
        3.09254         5.58388        0.957014         7.86218 
        3.10483         5.57096        0.947592         7.82564 
         3.1171         5.58342        0.938308         7.78937 
        3.12933         5.58934        0.929175         7.74606 
        3.14159         5.57582        0.920144          7.7086 
