# k  (h/Mpc)    P(k)  (Mpc/h)^3    P_linear(k)  (Mpc/h)^3     P_NL(k)  ShotnoiseSubtracted = false
      0.0156606         23993.1         24138.5         23938.8 
      0.0273761         20504.6         20833.6         20585.8 
      0.0384619         15475.3         15680.7         15457.8 
      0.0498308         11928.3         12326.4         12101.2 
      0.0625568         10074.9         10471.3         10272.5 
      0.0751274          8984.6         8893.98         8615.94 
      0.0867833         6948.24          7159.3         7072.24 
      0.0984825         5891.99          5664.9         5738.66 
       0.111151         5050.56         4729.56         4824.47 
       0.123864         4521.17         4261.93         4338.36 
       0.135742         4129.63          3832.3         3908.57 
        0.14762          3601.7         3276.65         3477.19 
       0.160083         3074.41         2731.16         2980.54 
       0.172465         2741.49          2383.7         2701.71 
       0.184281         2476.71         2197.43         2514.65 
       0.196406         2350.08         2029.28         2319.96 
       0.209011         2205.44          1805.5         2105.73 
       0.221538         1982.59         1577.81         1972.32 
       0.233611          1909.8         1411.71         1853.31 
       0.245665         1728.19         1302.94          1714.2 
       0.258103         1721.48         1212.91         1620.34 
       0.270422          1534.9         1114.51         1525.14 
       0.282519          1455.9         1011.47         1449.23 
       0.294636         1423.33         921.557         1375.39 
       0.306978         1307.26          852.59         1320.54 
       0.319417         1286.62         797.118         1245.94 
        0.33169          1207.4          744.02         1182.38 
       0.343948         1162.77         689.374         1147.39 
       0.356249         1105.84         638.127         1106.68 
       0.368458         1057.32         595.203         1060.99 
        0.38068         1045.43          559.31         1022.64 
       0.392856          995.08         526.542         989.065 
       0.405069         941.007           494.5         955.982 
       0.417459         904.921         463.478         926.157 
       0.429752         905.967          435.63         894.335 
       0.441978         873.992         411.187         872.793 
       0.454294         837.164         388.992         838.604 
        0.46658         813.778         368.166         822.252 
       0.478753         800.044         348.519          798.65 
       0.490964         770.088         330.064         775.016 
       0.503334         738.322         313.032          759.11 
       0.515665          734.67           297.5         741.681 
       0.527909         703.266         283.162         727.738 
       0.540159         687.637         269.596         710.653 
        0.55248         673.036         256.724          692.87 
       0.564743         666.427         244.806          681.23 
        0.57686          646.75         233.852          663.98 
       0.589077          638.46         223.512         650.076 
       0.601441         620.369          213.68         638.129 
        0.61382         602.176         204.409         626.775 
       0.626067         596.482         195.758         616.004 
       0.638306          575.04         187.612         603.436 
       0.650632         569.518         179.894         590.407 
       0.662899         564.775         172.661         582.907 
       0.675076         548.599         165.883         575.777 
       0.687267         532.077          159.46         562.658 
       0.699615         532.159         153.297         553.767 
       0.711937         518.673         147.471          543.21 
       0.724148         502.816         141.997         536.579 
       0.736433         491.443         136.774         527.457 
       0.748747         485.121         131.806         518.473 
       0.761037         476.734         127.096         512.578 
       0.773197         467.986         122.666         503.718 
       0.785376         463.353         118.441         496.712 
       0.797761         449.481         114.351         490.132 
       0.810096         442.265         110.469         483.664 
       0.822371         432.371         106.787         476.048 
       0.834626         427.196         103.279         470.893 
       0.846916         422.088         99.9207         463.584 
       0.859215         415.149         96.7105         456.732 
       0.871383         406.494          93.674         450.895 
        0.88363         400.201         90.7505         446.396 
       0.895928         395.661         87.9412         439.642 
       0.908253         386.154         85.2462         432.316 
       0.920535         376.417         82.6738         428.175 
       0.932774         371.754          80.217         421.508 
        0.94508         366.085         77.8481          417.54 
       0.957324         360.544          75.587         411.996 
        0.96953         355.954         73.4229         407.004 
       0.981769         347.813         71.3386         402.467 
       0.994071         346.526         69.3256         397.697 
         1.0064         340.197         67.3872         391.956 
        1.01868         335.746          65.529         387.123 
        1.03092         326.173         63.7494         383.778 
         1.0432         322.838         62.0298         379.156 
        1.05553         319.664         60.3672         373.906 
        1.06777         314.471         58.7779         369.548 
           1.08         307.498         57.2476         365.514 
        1.09227         307.164         55.7672         361.191 
         1.1046         300.284         54.3337         357.944 
         1.1169         294.659         52.9534         353.275 
        1.12915         289.824         51.6281          349.47 
        1.14142         284.053         50.3455         345.521 
        1.15365         280.494         49.1105         341.922 
        1.16585         276.255         47.9203         338.164 
        1.17807         273.347         46.7683         334.255 
        1.19037         267.455         45.6467         331.407 
        1.20276         264.964         44.5544         327.149 
        1.21504         259.667         43.5067         323.456 
        1.22728         255.622         42.4971         320.335 
        1.23954         253.835         41.5172         316.701 
        1.25184         248.025         40.5664         313.437 
        1.26414         243.421         39.6451         310.484 
        1.27632          240.38         38.7608         307.554 
         1.2886         237.598         37.8973         304.162 
        1.30093         232.844         37.0572         300.197 
        1.31316         228.063         36.2487         297.607 
        1.32541          226.74         35.4642         294.178 
        1.33772         222.326         34.6987         291.652 
        1.35005         219.493         33.9553         288.341 
        1.36225         215.454         33.2413         285.661 
        1.37447         211.811         32.5465         282.327 
        1.38676         209.687         31.8685         280.298 
        1.39907         206.512         31.2087         276.833 
        1.41133         202.587         30.5705         273.906 
        1.42358         199.848         29.9508         271.356 
        1.43591         196.932          29.344         268.991 
        1.44818         193.131         28.7574         266.048 
        1.46037         191.479         28.1904         263.226 
        1.47263         187.936         27.6356         260.549 
        1.48494         186.462         27.0935         257.529 
        1.49724         182.649         26.5665         255.977 
        1.50952          179.79         26.0547          252.78 
        1.52178         176.996          25.557         250.583 
        1.53409         174.255         25.0704         248.104 
        1.54637         171.283         24.5975         246.069 
        1.55858         169.354         24.1395          243.53 
        1.57081         166.367         23.6926         241.004 
        1.58313         164.392         23.2541         238.587 
        1.59544         161.205         22.8271         236.478 
        1.60767         159.791         22.4135         234.402 
        1.61994         156.892         22.0088         231.943 
        1.63225           154.3         21.6132         229.607 
        1.64452         151.769         21.2284         227.583 
        1.65676          149.92         20.8543         225.681 
          1.669         148.067         20.4888         223.312 
        1.68133         145.022         20.1299          221.27 
        1.69363          142.62         19.7806         219.501 
        1.70585          140.42         19.4418         217.363 
        1.71809         138.462         19.1103         215.086 
        1.73038         136.316         18.7855         213.227 
        1.74268         135.104          18.468          211.16 
        1.75493         132.507         18.1594         209.478 
        1.76714         131.387         17.8586         207.603 
        1.77942         128.812         17.5631         205.777 
        1.79173         127.139         17.2735         203.713 
        1.80402          125.08          16.991         201.914 
         1.8163         123.025         16.7151         200.327 
         1.8286         121.109         16.4448          198.37 
         1.8409         119.467         16.1807         196.532 
        1.85315         117.311         15.9233         194.898 
        1.86537         115.936          15.672         193.226 
        1.87765         114.456         15.4252         191.565 
        1.88995         112.562         15.1831         189.745 
        1.90221         111.069         14.9471         188.264 
        1.91445         109.291         14.7165         186.512 
        1.92674         107.389           14.49         184.806 
        1.93902          106.18         14.2682         183.143 
        1.95124         104.569         14.0522         181.622 
         1.9635         102.942         13.8402         180.047 
        1.97583         101.395         13.6312         178.409 
        1.98812         99.8414         13.4273         177.202 
        2.00039         98.7473          13.228         175.471 
        2.01264         97.4626          13.033         174.017 
        2.02492         95.7328         12.8416         172.423 
        2.03717         94.4524         12.6543         171.083 
        2.04942          93.174          12.471         169.575 
        2.06171         91.6569         12.2908         168.037 
        2.07397         90.3193         12.1145         166.799 
        2.08629         88.9663         11.9409         165.358 
        2.09857         87.8921         11.7711         164.036 
        2.11081         86.5202         11.6054         162.531 
        2.12309         85.3493         11.4424         161.253 
        2.13538         83.9684         11.2824         159.887 
        2.14763         82.6783         11.1259         158.559 
        2.15986         81.8529         10.9728         157.141 
        2.17214         80.6197         10.8219         156.003 
        2.18443         79.7392         10.6737          154.81 
        2.19671         78.6968         10.5285         153.453 
        2.20898         77.4365         10.3861         152.078 
        2.22126         76.4192         10.2463         150.963 
        2.23354         75.3628          10.109         149.806 
         2.2458         73.8622         9.97453         148.489 
        2.25807          73.326         9.84237         147.322 
        2.27035         72.2654         9.71249         146.157 
        2.28263         71.3119         9.58502         145.039 
         2.2949         70.1187          9.4599         143.893 
        2.30718         69.0182         9.33698         142.706 
        2.31946         68.2361         9.21618         141.487 
        2.33169         67.2114         9.09804         140.432 
        2.34393         66.4114         8.98179         139.466 
        2.35622          65.488          8.8672         138.244 
        2.36847         64.5948         8.75493         137.266 
        2.38076         63.4983         8.64427         136.124 
        2.39305         62.9459         8.53555         135.141 
        2.40534         61.9029          8.4287         134.022 
        2.41762         61.3465         8.32369         132.981 
        2.42989         60.2626         8.22062         131.987 
        2.44216         59.7449         8.11932         130.908 
         2.4544         59.0088         8.01996         129.977 
        2.46667         57.9418         7.92203          128.99 
        2.47897         57.5515          7.8255           127.9 
        2.49124         56.7323         7.73084         126.941 
        2.50349         55.7188          7.6379         126.018 
        2.51578         55.3061         7.54619         125.131 
        2.52805         54.3644         7.45616         124.126 
        2.54029         53.8681         7.36782         123.199 
        2.55257         53.1904         7.28065         122.322 
        2.56487         52.6972         7.19472         121.417 
        2.57716         52.0756          7.1103           120.5 
        2.58942         51.3461         7.02742         119.625 
        2.60167         50.6724         6.94595         118.773 
        2.61395         50.2463         6.86564         117.862 
        2.62624         49.5485          6.7865         116.942 
        2.63849         48.9353         6.70885         116.147 
        2.65073         48.2587          6.6325         115.259 
        2.66302         47.8289         6.55706         114.464 
         2.6753         47.1517         6.48285         113.642 
        2.68756         46.7962         6.40993         112.791 
        2.69983         46.2778         6.33809         111.978 
        2.71213         45.7728          6.2672         111.179 
        2.72441         45.2892         6.19752         110.362 
        2.73665         44.7474         6.12906         109.601 
         2.7489          44.318         6.06168         108.835 
        2.76118         43.9004         5.99511          108.03 
        2.77349         43.4521         5.92937         107.284 
        2.78576         42.9937         5.86488         106.512 
        2.79802         42.6269         5.80139         105.814 
        2.81031         42.1632         5.73868          105.06 
        2.82259         41.7231         5.67693         104.271 
        2.83483         41.2791         5.61632         103.588 
         2.8471         40.8189         5.55648         102.846 
         2.8594         40.4652         5.49733         102.131 
         2.8717          40.157         5.43906         101.464 
        2.88396         39.7128         5.38185         100.763 
        2.89619         39.4938         5.32556         100.038 
        2.90847         39.0985         5.26987         99.3054 
        2.92072         38.7443         5.21507         98.6985 
        2.93299         38.5004         5.16103         98.0352 
        2.94526         38.1925          5.1077         97.3335 
        2.95753         37.9524         5.05513         96.6777 
        2.96982         37.5128         5.00322         96.0495 
        2.98209         37.2818         4.95215         95.3866 
        2.99436         37.1461         4.90174         94.7211 
        3.00666         36.9146         4.85195         94.0863 
        3.01894         36.6562         4.80295         93.4629 
        3.03119         36.4182          4.7547          92.869 
        3.04345         36.1805          4.7071         92.2661 
        3.05573         36.1582         4.66006         91.6435 
          3.068         35.8435         4.61372         91.0439 
        3.08026         35.6417         4.56805         90.4412 
        3.09254         35.6658         4.52291         89.8528 
        3.10483         35.4553         4.47838         89.2665 
         3.1171         35.3518         4.43451         88.6718 
        3.12933            35.2         4.39134         88.0858 
        3.14159         35.1146         4.34866           87.51 
