# k  (h/Mpc)    Pcb(k)  (Mpc/h)^3    Pcb_linear(k) (Mpc/h)^3    Pcb_NL(k) (Mpc/h)^3   ShotnoiseSubtracted = false
      0.0156606         9676.51            9701         9643.11 
      0.0273761         8354.62         8390.19         8342.51 
      0.0384619            6342         6321.97         6287.45 
      0.0498308         4935.79         4973.05         4941.04 
      0.0625568         4165.91         4226.69         4195.93 
      0.0751274         3663.38         3591.14         3545.54 
      0.0867833          2868.1         2891.32         2880.01 
      0.0984825         2371.78         2288.13          2306.9 
       0.111151         2004.18         1910.57         1930.45 
       0.123864          1799.8         1721.82         1738.53 
       0.135742         1626.38         1548.35         1565.54 
        0.14762         1395.68         1323.92         1366.87 
       0.160083         1162.88         1103.57         1153.45 
       0.172465         1034.86         963.208         1025.25 
       0.184281         954.066         887.965         952.701 
       0.196406         875.781         820.034         873.333 
       0.209011         803.487         729.622         787.082 
       0.221538         723.321         637.622         717.659 
       0.233611          669.32         570.506         660.328 
       0.245665          621.59         526.556         607.406 
       0.258103         581.379         490.179         570.554 
       0.270422         533.088         450.418         530.423 
       0.282519          489.23          408.78         492.766 
       0.294636         483.287         372.444         460.777 
       0.306978         429.219         344.573         436.381 
       0.319417         412.541         322.156          410.21 
        0.33169         387.319         300.698         385.685 
       0.343948         369.353         278.614          368.27 
       0.356249         344.977         257.904         351.173 
       0.368458         333.988         240.557         330.634 
        0.38068          318.56          226.05         315.076 
       0.392856         298.075         212.807         301.677 
       0.405069          285.96         199.859         290.158 
       0.417459         272.922         187.321         274.759 
       0.429752         263.161         176.066          264.09 
       0.441978          254.19         166.188         255.509 
       0.454294         237.504         157.218         243.273 
        0.46658         237.065         148.801         235.815 
       0.478753         225.091         140.861          227.25 
       0.490964         217.902         133.403         218.903 
       0.503334         206.076         126.518          212.12 
       0.515665         202.571         120.241         206.907 
       0.527909         196.504         114.446           198.9 
       0.540159         190.377         108.963         193.134 
        0.55248         185.859         103.761         186.907 
       0.564743           180.5         98.9441         182.427 
        0.57686          174.46         94.5169         176.525 
       0.589077         167.147         90.3377         172.537 
       0.601441         164.016         86.3638         168.146 
        0.61382         162.094          82.617         163.482 
       0.626067         156.756         79.1206         159.412 
       0.638306         150.257         75.8282         155.895 
       0.650632         145.491         72.7087         150.629 
       0.662899           145.6         69.7855         147.614 
       0.675076         140.401          67.046         144.153 
       0.687267          136.88         64.4501         140.912 
       0.699615         133.501         61.9591         138.017 
       0.711937         129.903         59.6044         134.724 
       0.724148         128.171          57.392         132.811 
       0.736433         124.265         55.2809         129.491 
       0.748747         121.546         53.2729         126.754 
       0.761037         119.418         51.3695         123.894 
       0.773197          116.81         49.5788         122.512 
       0.785376         114.854         47.8714         119.519 
       0.797761         113.111          46.218         117.885 
       0.810096         109.533         44.6493         115.356 
       0.822371         106.916          43.161         113.322 
       0.834626          104.93         41.7433         111.369 
       0.846916          103.84         40.3859         109.565 
       0.859215         101.976         39.0884         107.526 
       0.871383         100.376         37.8611         105.723 
        0.88363          97.903         36.6795         104.358 
       0.895928         96.0699          35.544         102.775 
       0.908253         93.5724         34.4548           100.9 
       0.920535         93.1218         33.4151         99.5311 
       0.932774         90.8645         32.4221         97.7601 
        0.94508          89.903         31.4647         96.2753 
       0.957324          88.118         30.5507         95.0161 
        0.96953         88.1366         29.6761         93.3859 
       0.981769         85.2086         28.8336         92.4312 
       0.994071         84.3738         28.0201         91.0699 
         1.0064          82.479         27.2366         89.7434 
        1.01868         81.6916         26.4855          88.618 
        1.03092          80.111         25.7663         87.4162 
         1.0432         78.7609         25.0712         86.1771 
        1.05553          76.709         24.3993         85.4132 
        1.06777         76.5559         23.7569         84.2835 
           1.08         74.9913         23.1384         83.1474 
        1.09227         73.8375           22.54         81.9635 
         1.1046         72.6358         21.9607         80.9821 
         1.1169         71.8011         21.4028         79.8208 
        1.12915         70.8666         20.8671         79.0177 
        1.14142         69.4974         20.3487         78.0497 
        1.15365         68.2089         19.8495         77.1565 
        1.16585          67.348         19.3685         76.1654 
        1.17807         66.3186         18.9029         75.3489 
        1.19037         66.2215         18.4496         74.6012 
        1.20276         64.8403         18.0081          73.735 
        1.21504         64.3608         17.5846         72.8446 
        1.22728         62.9664         17.1765         72.1102 
        1.23954         62.3281         16.7805         71.1899 
        1.25184         61.2728         16.3962         70.5756 
        1.26414          60.286         16.0238         69.7539 
        1.27632         59.7535         15.6664          69.132 
         1.2886         59.0408         15.3174         68.2717 
        1.30093         58.2409         14.9778         67.4284 
        1.31316         57.3957          14.651         66.9829 
        1.32541         57.0249          14.334         66.2285 
        1.33772         56.0331         14.0246         65.5377 
        1.35005         55.4879         13.7241         64.9219 
        1.36225          54.533         13.4355         64.2568 
        1.37447         53.2752         13.1547         63.5869 
        1.38676         53.4255         12.8807         62.9524 
        1.39907         52.5505          12.614         62.4613 
        1.41133         51.5279          12.356         61.9412 
        1.42358         50.9251         12.1056         61.1881 
        1.43591         50.5433         11.8603         60.7011 
        1.44818         49.8508         11.6232         59.9888 
        1.46037         49.2671         11.3941         59.5594 
        1.47263         48.7343         11.1698         59.0763 
        1.48494         47.8832         10.9507         58.4471 
        1.49724         47.4183         10.7377         57.9071 
        1.50952         47.0624         10.5308           57.37 
        1.52178         46.3553         10.3297         56.9202 
        1.53409         45.9397          10.133         56.4172 
        1.54637         45.0623         9.94188          55.873 
        1.55858         44.2975         9.75677         55.3349 
        1.57081         44.1846         9.57611         54.9667 
        1.58313         43.6341         9.39892         54.5074 
        1.59544         42.9302         9.22631         53.9734 
        1.60767         42.3966         9.05915          53.509 
        1.61994         41.7959         8.89555         53.0786 
        1.63225         41.5041         8.73567         52.5879 
        1.64452         41.0455         8.58016         52.1971 
        1.65676          40.455         8.42893         51.7144 
          1.669          40.137         8.28124         51.3644 
        1.68133         39.7732         8.13615         50.8646 
        1.69363         39.0905         7.99497         50.4779 
        1.70585         38.8526         7.85805         50.1353 
        1.71809         38.1383         7.72406         49.6255 
        1.73038         37.9295         7.59277         49.3147 
        1.74268         37.2998         7.46446         48.8256 
        1.75493         36.9471          7.3397         48.4678 
        1.76714         36.5083         7.21812         48.1013 
        1.77942         36.2307         7.09868         47.7252 
        1.79173         35.7339         6.98164         47.3134 
        1.80402         35.3291         6.86748         47.0386 
         1.8163         34.9905         6.75594         46.5356 
         1.8286         34.4884         6.64669         46.2662 
         1.8409          34.128         6.53995         45.8409 
        1.85315         33.7753         6.43592         45.5746 
        1.86537         33.3412         6.33435         45.2263 
        1.87765          33.129         6.23461         44.8472 
        1.88995           32.61         6.13677          44.437 
        1.90221         32.3591         6.04137         44.1154 
        1.91445         31.8294         5.94816         43.8324 
        1.92674         31.5692          5.8566         43.4624 
        1.93902         31.2295         5.76696         43.1566 
        1.95124         30.7335         5.67968         42.8819 
         1.9635         30.4609         5.59398          42.528 
        1.97583         30.1518         5.50951         42.2596 
        1.98812         29.8016          5.4271         41.9212 
        2.00039         29.4449         5.34655         41.6046 
        2.01264         29.0865          5.2677         41.3398 
        2.02492         28.8453         5.19034         41.0185 
        2.03717         28.4697         5.11466         40.7074 
        2.04942         28.1935         5.04058         40.3966 
        2.06171         27.9007         4.96772         40.1243 
        2.07397         27.6269         4.89647          39.821 
        2.08629            27.3         4.82631         39.5329 
        2.09857         27.0053          4.7577          39.268 
        2.11081         26.6846          4.6907         38.9756 
        2.12309         26.4764         4.62483         38.6881 
        2.13538         26.0103         4.56014          38.462 
        2.14763         25.8938          4.4969         38.1651 
        2.15986         25.5832           4.435         37.8749 
        2.17214         25.3044         4.37402         37.6468 
        2.18443         25.0235         4.31413         37.3335 
        2.19671         24.7036         4.25543          37.089 
        2.20898         24.4584          4.1979         36.8121 
        2.22126         24.3525         4.14137         36.5569 
        2.23354         24.0352          4.0859         36.3489 
         2.2458         23.8002         4.03154         36.0834 
        2.25807         23.4538         3.97812         35.8091 
        2.27035           23.21         3.92562         35.5894 
        2.28263         23.0327          3.8741         35.3536 
         2.2949         22.7902         3.82353         35.1099 
        2.30718         22.5889         3.77385         34.8454 
        2.31946         22.4016         3.72502         34.6144 
        2.33169         22.1194         3.67727         34.3826 
        2.34393         21.8763         3.63029         34.1482 
        2.35622         21.6765         3.58397         33.9465 
        2.36847         21.4337         3.53859         33.6814 
        2.38076         21.2764         3.49387         33.4941 
        2.39305         20.9882         3.44993         33.2783 
        2.40534         20.8263         3.40674         33.0066 
        2.41762         20.5903         3.36429         32.8376 
        2.42989         20.4937         3.32264         32.5726 
        2.44216         20.1701         3.28169          32.388 
         2.4544         20.0887         3.24153          32.166 
        2.46667         19.8622         3.20195         31.9588 
        2.47897         19.6156         3.16293         31.7384 
        2.49124         19.5178         3.12468         31.5349 
        2.50349         19.2508         3.08711         31.3285 
        2.51578         19.1014         3.05005          31.138 
        2.52805         18.9075         3.01366         30.9257 
        2.54029         18.7547         2.97795          30.723 
        2.55257          18.628         2.94272         30.5161 
        2.56487          18.375         2.90799          30.332 
        2.57716         18.2923         2.87386         30.1141 
        2.58942         18.1271         2.84037         29.9489 
        2.60167         17.9112         2.80744         29.7498 
        2.61395         17.7701         2.77498         29.5556 
        2.62624         17.6927         2.74299         29.3617 
        2.63849         17.4837          2.7116         29.1944 
        2.65073         17.2912         2.68074          28.994 
        2.66302         17.1491         2.65026         28.8244 
         2.6753         17.0773         2.62026         28.6388 
        2.68756         16.9498         2.59079         28.4763 
        2.69983         16.7676         2.56175         28.2654 
        2.71213         16.5979          2.5331         28.0878 
        2.72441         16.4801         2.50493         27.9088 
        2.73665         16.3732         2.47727         27.7337 
         2.7489         16.2478         2.45003         27.5669 
        2.76118         16.1418         2.42312           27.39 
        2.77349         16.0223         2.39655         27.2283 
        2.78576         15.8884         2.37049         27.0725 
        2.79802         15.7843         2.34482         26.8905 
        2.81031         15.6825         2.31948         26.7234 
        2.82259         15.5563         2.29452         26.5742 
        2.83483         15.4999         2.27002         26.4038 
         2.8471         15.4122         2.24584         26.2238 
         2.8594         15.2606         2.22193         26.0598 
         2.8717         15.2056         2.19838         25.9067 
        2.88396         15.0975         2.17525         25.7444 
        2.89619         15.0463          2.1525         25.5897 
        2.90847         14.9326            2.13         25.4467 
        2.92072         14.8516         2.10785         25.2718 
        2.93299         14.7735           2.086         25.1397 
        2.94526          14.721         2.06445         24.9941 
        2.95753         14.6863          2.0432         24.8294 
        2.96982         14.5744         2.02222         24.6828 
        2.98209         14.4941         2.00158         24.5403 
        2.99436         14.4725          1.9812         24.3866 
        3.00666         14.4248         1.96108         24.2344 
        3.01894         14.3606         1.94127         24.0999 
        3.03119         14.3243         1.92177         23.9563 
        3.04345         14.2638         1.90253         23.8082 
        3.05573         14.2682         1.88352         23.6693 
          3.068         14.1752         1.86479          23.529 
        3.08026          14.167         1.84633         23.3798 
        3.09254         14.0805         1.82809         23.2458 
        3.10483         14.1103         1.81009         23.1164 
         3.1171         14.1631         1.79235         22.9822 
        3.12933         14.1034         1.77491         22.8473 
        3.14159          14.028         1.75766         22.7028 
