# k  (h/Mpc)    P(k)  (Mpc/h)^3    P_linear(k)  (Mpc/h)^3     P_NL(k)  ShotnoiseSubtracted = false
      0.0156606          2738.4         2775.23         2761.53 
      0.0273761         2375.94         2398.17         2391.44 
      0.0384619         1804.33         1806.32         1804.01 
      0.0498308         1413.81         1420.61          1419.4 
      0.0625568         1192.62         1207.24         1205.08 
      0.0751274         1032.05         1025.63         1021.63 
      0.0867833         818.571         825.724         825.205 
      0.0984825         663.465         653.442         656.032 
       0.111151         555.753         545.604          548.12 
       0.123864         499.209         491.694         493.595 
       0.135742         448.545         442.152         444.034 
        0.14762         381.153         378.059         382.537 
       0.160083         316.498         315.132         320.241 
       0.172465         278.915         275.049         281.181 
       0.184281         258.565         253.562         260.073 
       0.196406         235.831         234.163          239.17 
       0.209011         212.551         208.345          214.03 
       0.221538         188.791         182.073         190.031 
       0.233611         170.174         162.908         171.748 
       0.245665         159.807         150.358         158.218 
       0.258103         144.061          139.97         147.797 
       0.270422         135.227         128.616         136.216 
       0.282519         122.698         116.726         124.843 
       0.294636         116.947          106.35          114.91 
       0.306978         103.482          98.392         107.237 
       0.319417         98.7306         91.9907         100.545 
        0.33169          91.778         85.8634         94.1297 
       0.343948         87.1059         79.5574         87.9632 
       0.356249          79.934         73.6435         82.8478 
       0.368458         76.2607           68.69         77.1779 
        0.38068         71.4916         64.5481         72.9652 
       0.392856         66.8268         60.7665         69.2564 
       0.405069         63.2289         57.0688         65.3126 
       0.417459         59.1824         53.4889         61.7924 
       0.429752         56.6709         50.2752         58.5841 
       0.441978         53.9574         47.4543         56.0739 
       0.454294         50.2065         44.8929         53.0678 
        0.46658          49.752         42.4895          50.626 
       0.478753         46.2672         40.2222         48.3802 
       0.490964          44.686         38.0924          46.382 
       0.503334         42.8094         36.1268         44.1851 
       0.515665         40.6575         34.3343         42.6866 
       0.527909         38.9032         32.6795         40.4444 
       0.540159         37.2775         31.1139          38.887 
        0.55248         34.8546         29.6284         37.2435 
       0.564743         34.3771          28.253         36.0055 
        0.57686          33.215         26.9888          34.625 
       0.589077         31.2766         25.7955         33.4956 
       0.601441         30.1739         24.6607         32.2699 
        0.61382         29.1191         23.5909         30.9887 
       0.626067         27.9431         22.5925          30.023 
       0.638306         27.0134         21.6524         28.9181 
       0.650632         26.2635         20.7616         27.9909 
       0.662899         25.1388         19.9269         27.0141 
       0.675076         23.9894         19.1446         26.1462 
       0.687267         23.6295         18.4034         25.2884 
       0.699615         22.8185         17.6921         24.5768 
       0.711937         21.6645         17.0197         23.7712 
       0.724148         21.5437          16.388         23.1586 
       0.736433         20.2926         15.7852         22.4152 
       0.748747         19.9197         15.2118         21.7958 
       0.761037         19.4203         14.6683         21.2195 
       0.773197         18.7357         14.1569         20.6654 
       0.785376          18.026         13.6694          20.103 
       0.797761         17.6256         13.1973         19.5599 
       0.810096         17.2129         12.7493         19.0854 
       0.822371         16.7359         12.3244         18.5239 
       0.834626         16.2044         11.9196         18.1211 
       0.846916         15.7055          11.532         17.6476 
       0.859215         15.1346         11.1615         17.2304 
       0.871383         14.8532          10.811         16.8589 
        0.88363          14.463         10.4736         16.4505 
       0.895928         14.1786         10.1494         16.0282 
       0.908253         13.8082         9.83837          15.699 
       0.920535         13.3921         9.54148         15.3242 
       0.932774         13.1787         9.25794         14.9351 
        0.94508         12.7418         8.98455         14.6527 
       0.957324         12.5037         8.72358         14.3641 
        0.96953         12.0655         8.47383         14.0377 
       0.981769         11.9611         8.23328         13.7471 
       0.994071         11.6331         8.00096         13.4552 
         1.0064         11.2667         7.77725         13.1955 
        1.01868         11.0502         7.56279         12.9381 
        1.03092         10.8716         7.35741         12.6646 
         1.0432          10.475         7.15895         12.4101 
        1.05553         10.3095         6.96707         12.2162 
        1.06777         10.0075         6.78364         11.9517 
           1.08         9.82966         6.60704         11.7391 
        1.09227         9.62949         6.43617         11.5253 
         1.1046         9.44987         6.27074         11.2918 
         1.1169         9.15555         6.11144         11.0891 
        1.12915         9.13208         5.95848         10.9367 
        1.14142         8.77886         5.81046         10.7146 
        1.15365         8.67919         5.66792         10.5266 
        1.16585         8.56668         5.53056         10.3743 
        1.17807           8.313         5.39761         10.1657 
        1.19037         8.16908         5.26817         10.0099 
        1.20276         7.97241         5.14211          9.8335 
        1.21504         7.85902         5.02118         9.69119 
        1.22728         7.65643         4.90466         9.51713 
        1.23954          7.5404         4.79157         9.38815 
        1.25184         7.38136         4.68185         9.23322 
        1.26414         7.28795         4.57552         9.07215 
        1.27632         7.08262         4.47346         8.94325 
         1.2886         7.00074          4.3738         8.81039 
        1.30093         6.85954         4.27684         8.70604 
        1.31316         6.70649         4.18352         8.55493 
        1.32541          6.6082         4.09299         8.45222 
        1.33772         6.48053         4.00464         8.30734 
        1.35005         6.39661         3.91884         8.20047 
        1.36225          6.2674         3.83644         8.06802 
        1.37447         6.15726         3.75626         7.97153 
        1.38676          6.0422           3.678         7.86435 
        1.39907         5.93095         3.60186         7.75554 
        1.41133         5.84587          3.5282         7.64873 
        1.42358         5.72851         3.45667         7.54068 
        1.43591         5.66606         3.38665         7.45707 
        1.44818         5.52775         3.31895         7.35462 
        1.46037         5.43644         3.25351         7.25461 
        1.47263         5.35883         3.18947         7.17075 
        1.48494         5.30014         3.12692         7.06992 
        1.49724         5.19647          3.0661         6.98592 
        1.50952         5.16771         3.00702         6.90274 
        1.52178         5.04652         2.94958         6.81615 
        1.53409         4.94925         2.89343         6.72353 
        1.54637         4.89253         2.83885         6.64299 
        1.55858         4.82881         2.78599          6.5589 
        1.57081           4.725          2.7344         6.49939 
        1.58313         4.67083         2.68381         6.41536 
        1.59544         4.58416         2.63452         6.34872 
        1.60767         4.53514         2.58679         6.26692 
        1.61994         4.46004         2.54007         6.20639 
        1.63225         4.38315         2.49442         6.13243 
        1.64452         4.31044         2.45001         6.06091 
        1.65676         4.24976         2.40683         5.99668 
          1.669         4.21261         2.36466         5.93136 
        1.68133          4.1059         2.32323         5.86604 
        1.69363         4.08647         2.28292         5.81043 
        1.70585         4.02341         2.24382         5.74001 
        1.71809         3.97936         2.20556         5.68601 
        1.73038         3.92171         2.16807         5.62323 
        1.74268         3.85762         2.13143         5.56705 
        1.75493         3.80796         2.09581         5.50479 
        1.76714         3.77726         2.06109         5.44973 
        1.77942         3.71412         2.02699         5.39394 
        1.79173         3.66369         1.99357         5.33545 
        1.80402         3.61793         1.96097         5.28556 
         1.8163         3.58729         1.92912          5.2398 
         1.8286          3.5262         1.89793         5.19083 
         1.8409          3.4695         1.86745         5.14213 
        1.85315          3.4339         1.83774         5.08046 
        1.86537         3.40386         1.80874         5.04091 
        1.87765         3.34404         1.78026         4.98829 
        1.88995         3.29874         1.75232         4.94664 
        1.90221         3.26025         1.72508         4.89696 
        1.91445         3.22561         1.69846         4.86321 
        1.92674         3.20057         1.67232         4.80663 
        1.93902         3.14397         1.64672         4.76045 
        1.95124         3.10519          1.6218         4.72038 
         1.9635         3.08666         1.59733          4.6813 
        1.97583         3.03258         1.57321         4.64085 
        1.98812         2.99342         1.54968         4.59637 
        2.00039         2.96304         1.52668         4.55708 
        2.01264         2.92544         1.50416         4.52452 
        2.02492         2.89626         1.48207         4.48338 
        2.03717         2.85935         1.46046         4.44209 
        2.04942         2.82295         1.43931         4.40645 
        2.06171         2.78987         1.41851          4.3666 
        2.07397         2.76472         1.39816         4.33039 
        2.08629         2.73874         1.37813         4.29959 
        2.09857         2.70531         1.35853         4.26111 
        2.11081         2.66885          1.3394         4.22694 
        2.12309         2.64858          1.3206          4.1922 
        2.13538         2.61415         1.30212         4.16201 
        2.14763         2.59791         1.28406         4.12586 
        2.15986          2.5708         1.26639         4.09649 
        2.17214          2.5283         1.24898         4.05685 
        2.18443         2.51674         1.23188         4.02688 
        2.19671         2.48107         1.21512         3.99647 
        2.20898          2.4583         1.19869         3.96862 
        2.22126          2.4385         1.18254         3.93779 
        2.23354          2.4075         1.16671         3.90647 
         2.2458         2.39522         1.15118          3.8727 
        2.25807         2.36202         1.13593         3.84792 
        2.27035          2.3366         1.12094         3.82153 
        2.28263         2.31204         1.10623         3.79199 
         2.2949         2.29743         1.09179         3.76594 
        2.30718         2.27311          1.0776         3.74115 
        2.31946         2.24799         1.06366         3.71331 
        2.33169         2.22955         1.05003         3.68483 
        2.34393         2.21827         1.03661         3.65856 
        2.35622         2.19289         1.02338         3.63194 
        2.36847         2.16798         1.01043          3.6051 
        2.38076         2.15119        0.997655         3.57903 
        2.39305         2.12859        0.985108         3.55197 
        2.40534         2.11044        0.972776         3.53057 
        2.41762         2.08608        0.960656         3.50907 
        2.42989         2.07396        0.948762         3.48223 
        2.44216            2.06         0.93707         3.46045 
         2.4544         2.03968        0.925602         3.43811 
        2.46667         2.02232          0.9143         3.41468 
        2.47897         2.00704        0.903159         3.39072 
        2.49124         1.98619        0.892235         3.36891 
        2.50349          1.9742        0.881508         3.34613 
        2.51578         1.95365        0.870924         3.32128 
        2.52805         1.93594        0.860534         3.30121 
        2.54029         1.92688        0.850338         3.28001 
        2.55257          1.9084        0.840277           3.259 
        2.56487         1.89476         0.83036          3.2372 
        2.57716         1.88748        0.820617         3.21665 
        2.58942         1.86754        0.811052         3.19669 
        2.60167         1.85548        0.801649         3.17501 
        2.61395          1.8328        0.792381          3.1579 
        2.62624         1.82874        0.783246         3.13778 
        2.63849         1.81521        0.774285         3.11628 
        2.65073          1.7996        0.765473         3.09721 
        2.66302         1.78643        0.756767         3.07945 
         2.6753         1.78579        0.748201         3.06054 
        2.68756         1.76277        0.739786         3.04227 
        2.69983         1.75186        0.731495         3.02239 
        2.71213         1.74553        0.723313          3.0045 
        2.72441         1.73339        0.715271         2.98673 
        2.73665         1.71918         0.70737         2.97053 
         2.7489         1.70908        0.699594         2.95484 
        2.76118         1.69972         0.69191         2.93709 
        2.77349          1.6968        0.684324         2.91938 
        2.78576         1.68673        0.676881         2.90178 
        2.79802          1.6786        0.669553          2.8849 
        2.81031         1.66298        0.662316         2.86739 
        2.82259         1.65621        0.655189         2.85057 
        2.83483         1.65198        0.648194         2.83561 
         2.8471         1.64323        0.641287         2.81937 
         2.8594         1.63424        0.634461         2.80411 
         2.8717         1.62713        0.627735         2.78843 
        2.88396         1.62379        0.621133         2.77191 
        2.89619         1.61066        0.614637         2.75614 
        2.90847         1.60699         0.60821         2.73982 
        2.92072           1.602        0.601885         2.72601 
        2.93299         1.60094        0.595647         2.71117 
        2.94526         1.59369        0.589492         2.69686 
        2.95753         1.58526        0.583426         2.68202 
        2.96982         1.58353        0.577435         2.66702 
        2.98209         1.58272         0.57154         2.65374 
        2.99436         1.57595        0.565723         2.63953 
        3.00666         1.57867        0.559977         2.62571 
        3.01894         1.57184        0.554321         2.61017 
        3.03119         1.57185        0.548752          2.5966 
        3.04345         1.56872        0.543259         2.58434 
        3.05573         1.56694         0.53783         2.57123 
          3.068         1.56739        0.532481          2.5577 
        3.08026         1.56356         0.52721         2.54316 
        3.09254         1.56835        0.522001          2.5296 
        3.10483         1.56852        0.516862         2.51755 
         3.1171         1.56837        0.511798         2.50516 
        3.12933         1.56916        0.506817         2.49156 
        3.14159         1.56928         0.50189         2.47813 
