# k  (h/Mpc)    Pcb(k)  (Mpc/h)^3    Pcb_linear(k) (Mpc/h)^3    Pcb_NL(k) (Mpc/h)^3   ShotnoiseSubtracted = false
      0.0156606         1153.82         1154.41         1149.01 
      0.0273761         1004.86         999.222          997.05 
      0.0384619         763.377         753.167         752.933 
      0.0498308         599.995         592.572          592.79 
      0.0625568         506.338         503.696         503.347 
      0.0751274         435.073         427.986           427.1 
      0.0867833         347.173         344.596         344.519 
      0.0984825         279.234         272.715         273.351 
       0.111151         233.421         227.719         228.307 
       0.123864         209.589         205.226         205.554 
       0.135742         188.068         184.552         184.828 
        0.14762         159.824         157.803         158.611 
       0.160083         132.923         131.539         132.518 
       0.172465          116.57          114.81          115.96 
       0.184281         107.934         105.842         107.034 
       0.196406         98.6545         97.7449          98.623 
       0.209011         88.4161         86.9684         87.9958 
       0.221538         78.0253         76.0025         77.4708 
       0.233611         69.9634         68.0027         69.6301 
       0.245665         65.3934         62.7641         64.1987 
       0.258103         59.1643         58.4281         59.8481 
       0.270422         55.3401         53.6887         55.0521 
       0.282519         50.1924         48.7256          50.208 
       0.294636         46.9589         44.3945         45.9584 
       0.306978         41.9849         41.0724         42.6813 
       0.319417         39.8449         38.4004         39.9598 
        0.33169         37.0436         35.8427         37.3457 
       0.343948         34.8503         33.2104         34.7128 
       0.356249         31.8896         30.7417          32.443 
       0.368458         30.1695          28.674         30.1961 
        0.38068         28.1519         26.9448         28.4587 
       0.392856         26.4412         25.3663         26.8947 
       0.405069         24.9679         23.8229         25.2762 
       0.417459         23.0941         22.3284         23.8388 
       0.429752         22.0057         20.9868         22.4805 
       0.441978         20.8976         19.8094         21.3807 
       0.454294         19.5141         18.7401         20.2259 
        0.46658         19.0081         17.7369         19.1963 
       0.478753         17.7616         16.7905         18.2458 
       0.490964         17.0577         15.9015         17.4228 
       0.503334         16.2657         15.0809          16.521 
       0.515665         15.3194         14.3326         15.8428 
       0.527909           14.68         13.6418         15.0353 
       0.540159          13.937         12.9883          14.366 
        0.55248         13.0784         12.3682         13.6994 
       0.564743         12.8271          11.794         13.1945 
        0.57686         12.2868         11.2663         12.6246 
       0.589077         11.5468         10.7682         12.1593 
       0.601441         11.0804         10.2945           11.66 
        0.61382         10.6419         9.84787         11.1653 
       0.626067         10.1807         9.43111         10.7429 
       0.638306         9.80968         9.03866          10.321 
       0.650632         9.53114         8.66682         9.96239 
       0.662899         9.07735         8.31838          9.5757 
       0.675076         8.62941         7.99183         9.23664 
       0.687267         8.37505          7.6824         8.88281 
       0.699615         8.12632         7.38548         8.57695 
       0.711937         7.71057          7.1048          8.3046 
       0.724148          7.5882         6.84108         8.02512 
       0.736433         7.18227         6.58944         7.73566 
       0.748747         6.97105          6.3501         7.51425 
       0.761037         6.77143         6.12321         7.26469 
       0.773197         6.47355         5.90976         7.05627 
       0.785376         6.25394         5.70624         6.82777 
       0.797761          6.0553         5.50916         6.60178 
       0.810096         5.89253         5.32216         6.43658 
       0.822371          5.7399         5.14476         6.22028 
       0.834626         5.54101         4.97577         6.03892 
       0.846916         5.33995         4.81397         5.87991 
       0.859215         5.13105         4.65931         5.72118 
       0.871383         4.98749         4.51302         5.56217 
        0.88363         4.85522         4.37217         5.40635 
       0.895928         4.74457         4.23683         5.25198 
       0.908253         4.59739         4.10699         5.11458 
       0.920535         4.44112         3.98306         4.97084 
       0.932774          4.3305         3.86469         4.82542 
        0.94508          4.2004         3.75057         4.71563 
       0.957324         4.09253         3.64163         4.60989 
        0.96953         3.95118         3.53737         4.49065 
       0.981769         3.84095         3.43695         4.36468 
       0.994071         3.76768         3.33997         4.27311 
         1.0064         3.64123         3.24659         4.16711 
        1.01868         3.52919         3.15706         4.06463 
        1.03092         3.47273         3.07132         3.96134 
         1.0432         3.34736         2.98848         3.87337 
        1.05553         3.27494         2.90838         3.79155 
        1.06777         3.16991         2.83181         3.70944 
           1.08         3.11497         2.75808         3.61905 
        1.09227         3.01731         2.68676         3.53523 
         1.1046         2.94778          2.6177         3.46126 
         1.1169         2.86073          2.5512         3.38579 
        1.12915         2.81285         2.48734          3.3179 
        1.14142         2.73142         2.42555         3.24026 
        1.15365         2.67191         2.36605         3.17861 
        1.16585          2.6167         2.30871          3.1127 
        1.17807         2.56709         2.25321         3.04629 
        1.19037         2.47171         2.19918         2.98171 
        1.20276          2.4197         2.14655         2.91662 
        1.21504         2.37157         2.09607         2.87033 
        1.22728         2.31658         2.04743         2.80358 
        1.23954         2.27292         2.00022         2.76249 
        1.25184         2.21918         1.95442         2.69878 
        1.26414         2.17344         1.91003          2.6436 
        1.27632         2.10814         1.86743         2.60312 
         1.2886         2.08024         1.82583         2.54818 
        1.30093         2.01687         1.78535         2.50782 
        1.31316         1.96064          1.7464         2.45774 
        1.32541         1.93705          1.7086         2.41762 
        1.33772         1.90422         1.67172         2.37254 
        1.35005         1.86297         1.63591         2.33175 
        1.36225         1.82143         1.60151         2.28677 
        1.37447         1.78333         1.56804         2.25295 
        1.38676         1.74508         1.53537         2.20767 
        1.39907         1.70245         1.50358          2.1757 
        1.41133         1.66953         1.47283         2.13837 
        1.42358         1.64971         1.44298         2.09596 
        1.43591         1.61469         1.41374         2.07324 
        1.44818         1.57899         1.38548         2.03636 
        1.46037         1.54229         1.35817         1.99866 
        1.47263         1.51167         1.33143         1.96992 
        1.48494           1.487         1.30532         1.93804 
        1.49724         1.45418         1.27993          1.9064 
        1.50952         1.43703         1.25527         1.87432 
        1.52178         1.40015         1.23129         1.84904 
        1.53409         1.37534         1.20785         1.81638 
        1.54637          1.3435         1.18507         1.78733 
        1.55858         1.32584           1.163         1.76009 
        1.57081         1.30476         1.14147         1.73363 
        1.58313         1.27553         1.12035         1.71168 
        1.59544         1.25516         1.09977         1.68452 
        1.60767         1.23475         1.07985         1.65978 
        1.61994         1.20837         1.06035         1.63691 
        1.63225         1.19172         1.04129         1.61414 
        1.64452         1.16979         1.02275         1.58882 
        1.65676         1.14519         1.00472         1.56725 
          1.669         1.12813        0.987119         1.54293 
        1.68133         1.10551        0.969825         1.52512 
        1.69363         1.09429        0.952996         1.50233 
        1.70585         1.07291        0.936675         1.48235 
        1.71809          1.0576        0.920703         1.46125 
        1.73038           1.035        0.905054         1.44178 
        1.74268         1.01528        0.889759         1.42157 
        1.75493         1.00679        0.874889         1.40497 
        1.76714        0.985959        0.860396         1.38352 
        1.77942        0.965694        0.846159         1.36601 
        1.79173        0.954659        0.832208         1.34794 
        1.80402        0.938881          0.8186         1.33054 
         1.8163        0.923687        0.805305         1.31214 
         1.8286        0.903053        0.792282         1.29969 
         1.8409        0.898884        0.779559         1.28195 
        1.85315        0.884973        0.767158         1.26384 
        1.86537        0.864127        0.755051         1.24989 
        1.87765        0.853442        0.743162         1.23356 
        1.88995        0.841694        0.731499           1.219 
        1.90221         0.82678        0.720128         1.20337 
        1.91445        0.814533        0.709018         1.19007 
        1.92674        0.801758        0.698104           1.175 
        1.93902        0.786845        0.687419         1.15998 
        1.95124        0.776911        0.677015         1.14636 
         1.9635        0.765655        0.666799         1.13241 
        1.97583        0.752613         0.65673         1.11824 
        1.98812        0.741061        0.646908         1.10763 
        2.00039        0.730157        0.637306         1.09352 
        2.01264        0.720315        0.627908         1.08153 
        2.02492        0.711442        0.618686         1.07044 
        2.03717        0.703653        0.609664         1.05793 
        2.04942        0.690084        0.600835         1.04459 
        2.06171        0.681182         0.59215         1.03305 
        2.07397        0.671029        0.583656         1.02274 
        2.08629        0.663306        0.575294         1.01146 
        2.09857        0.652249        0.567115         1.00051 
        2.11081        0.641989        0.559129        0.988819 
        2.12309        0.633852        0.551278        0.979105 
        2.13538        0.626955        0.543566        0.967467 
        2.14763        0.619022        0.536028        0.957779 
        2.15986        0.610737         0.52865        0.948831 
        2.17214        0.598961        0.521381        0.936804 
        2.18443        0.593522        0.514242        0.927974 
        2.19671        0.586249        0.507246         0.91858 
        2.20898        0.577514        0.500387        0.908745 
        2.22126        0.568322        0.493649        0.899601 
        2.23354        0.560785        0.487037        0.890822 
         2.2458        0.555839        0.480557        0.880732 
        2.25807        0.547115         0.47419        0.872284 
        2.27035        0.541472        0.467932        0.863428 
        2.28263        0.532704        0.461791         0.85547 
         2.2949        0.526896        0.455763        0.846584 
        2.30718        0.520972        0.449841         0.83872 
        2.31946        0.514042        0.444021        0.830789 
        2.33169        0.506427        0.438329        0.822444 
        2.34393        0.502145        0.432728        0.814387 
        2.35622        0.495156        0.427208        0.806201 
        2.36847        0.490063        0.421799        0.798788 
        2.38076        0.482954        0.416467          0.7912 
        2.39305        0.477902        0.411229        0.784087 
        2.40534        0.471207        0.406081        0.776673 
        2.41762        0.466212        0.401022        0.768657 
        2.42989        0.459429        0.396057        0.761892 
        2.44216        0.455983        0.391176        0.755491 
         2.4544        0.452046        0.386389        0.748401 
        2.46667        0.446045        0.381671        0.741172 
        2.47897        0.440823         0.37702        0.734903 
        2.49124        0.434784         0.37246        0.727868 
        2.50349        0.430433        0.367982        0.721037 
        2.51578        0.425562        0.363564        0.714645 
        2.52805        0.422231        0.359226        0.708612 
        2.54029        0.416868         0.35497         0.70221 
        2.55257        0.412319         0.35077        0.696658 
        2.56487         0.40861        0.346631        0.690352 
        2.57716        0.404332        0.342563         0.68406 
        2.58942        0.401022         0.33857        0.678654 
        2.60167        0.396758        0.334645        0.672182 
        2.61395        0.391663        0.330776        0.666656 
        2.62624        0.387978        0.326963        0.661611 
        2.63849        0.384317        0.323222        0.655751 
        2.65073          0.3808        0.319543        0.650073 
        2.66302        0.377342        0.315909        0.644515 
         2.6753        0.373764        0.312334        0.639272 
        2.68756        0.370782        0.308821         0.63418 
        2.69983        0.366385        0.305359        0.628824 
        2.71213        0.361797        0.301944        0.623752 
        2.72441        0.360286        0.298587        0.618787 
        2.73665        0.357187        0.295289        0.614144 
         2.7489        0.355129        0.292042        0.609219 
        2.76118        0.351196        0.288835        0.603984 
        2.77349        0.348972        0.285668        0.599535 
        2.78576        0.346262        0.282561        0.594331 
        2.79802        0.343441        0.279502        0.589374 
        2.81031        0.340528        0.276481        0.585468 
        2.82259        0.338651        0.273506        0.580302 
        2.83483        0.335695        0.270586        0.575843 
         2.8471        0.333609        0.267703        0.571585 
         2.8594        0.331912        0.264853        0.567483 
         2.8717         0.32886        0.262045        0.563158 
        2.88396        0.326754        0.259289        0.558676 
        2.89619        0.325163        0.256577        0.554715 
        2.90847         0.32306        0.253894        0.550727 
        2.92072        0.321496        0.251254         0.54622 
        2.93299        0.319078         0.24865        0.541975 
        2.94526        0.317507        0.246081        0.538117 
        2.95753        0.316713        0.243549        0.534258 
        2.96982        0.314571        0.241048        0.530184 
        2.98209         0.31394        0.238587        0.526186 
        2.99436        0.311128        0.236158         0.52249 
        3.00666        0.310975         0.23376        0.518978 
        3.01894        0.310398        0.231399        0.515138 
        3.03119        0.309172        0.229074        0.511216 
        3.04345        0.307748        0.226781        0.507715 
        3.05573        0.307727        0.224515        0.504443 
          3.068        0.305355        0.222282        0.500792 
        3.08026        0.305699        0.220082        0.496813 
        3.09254        0.304775        0.217907        0.493302 
        3.10483        0.304165        0.215761        0.490161 
         3.1171        0.304637        0.213648        0.486908 
        3.12933        0.304076        0.211568        0.483536 
        3.14159         0.30313        0.209512         0.48017 
