# k  (h/Mpc)    Pcb(k)  (Mpc/h)^3    Pcb_linear(k) (Mpc/h)^3    Pcb_NL(k) (Mpc/h)^3   ShotnoiseSubtracted = false
      0.0156606         18840.2         18931.2         18790.8 
      0.0273761         16172.5         16368.2         16210.4 
      0.0384619         12241.1         12331.6           12195 
      0.0498308          9467.3         9699.56         9563.36 
      0.0625568         7996.26         8243.38         8120.95 
      0.0751274         7105.88         7003.61         6830.49 
      0.0867833         5514.14         5638.66         5586.36 
      0.0984825         4639.33         4462.27         4513.05 
       0.111151          3958.2          3725.9         3786.69 
       0.123864         3547.85         3357.78         3407.33 
       0.135742         3228.03         3019.48         3069.49 
        0.14762         2802.89          2581.8         2714.63 
       0.160083         2368.68         2152.08         2314.05 
       0.172465         2112.78         1878.35            2084 
       0.184281         1922.01         1731.62         1939.33 
       0.196406         1800.86         1599.14         1783.47 
       0.209011         1678.33         1422.83         1614.67 
       0.221538         1512.94         1243.42         1501.98 
       0.233611         1441.13         1112.53         1403.22 
       0.245665         1310.36         1026.83          1294.2 
       0.258103         1285.64         955.886          1220.8 
       0.270422         1149.14         878.348         1144.71 
       0.282519         1079.42          797.15         1079.48 
       0.294636          1064.6         726.292         1020.46 
       0.306978         966.288         671.942         976.069 
       0.319417         942.433         628.227         919.685 
        0.33169         887.178         586.382         869.352 
       0.343948          848.75         543.317         841.305 
       0.356249         801.643          502.93          808.84 
       0.368458         773.763         469.102         770.271 
        0.38068         755.882         440.812         739.602 
       0.392856         715.684         414.988         712.427 
       0.405069         681.604         389.737         690.265 
       0.417459         655.075         365.287         662.623 
       0.429752          645.98          343.34         639.214 
       0.441978         623.717         324.077         622.181 
       0.454294         593.984         306.584         596.142 
        0.46658         578.546         290.171         583.116 
       0.478753         565.135         274.687         564.617 
       0.490964          543.39         260.143         546.882 
       0.503334         517.454         246.719         533.745 
       0.515665         516.285         234.477         522.092 
       0.527909         495.876         223.177          509.54 
       0.540159         483.232         212.485          495.84 
        0.55248         473.708          202.34         482.716 
       0.564743         469.365         192.947         474.298 
        0.57686         451.797         184.314         461.241 
       0.589077         439.943         176.164         450.916 
       0.601441         433.103         168.415         441.494 
        0.61382         422.626         161.108         433.674 
       0.626067         417.042          154.29         424.887 
       0.638306         400.756          147.87         416.609 
       0.650632         396.027         141.786         405.608 
       0.662899          392.46         136.086         400.859 
       0.675076         377.886         130.744         394.353 
       0.687267         368.078         125.681         384.957 
       0.699615         364.247         120.824         378.778 
       0.711937          358.49         116.232         371.909 
       0.724148         346.416         111.918         366.512 
       0.736433          338.45         107.801         359.566 
       0.748747         333.919         103.885         352.993 
       0.761037         327.538         100.174         348.166 
       0.773197         323.488         96.6816         342.996 
       0.785376         318.467         93.3521         337.586 
       0.797761         309.895         90.1279         332.247 
       0.810096         307.239         87.0687         328.005 
       0.822371         296.728         84.1664         322.591 
       0.834626         295.178         81.4018         318.315 
       0.846916         288.922         78.7548         313.499 
       0.859215         288.301         76.2246         309.021 
       0.871383         280.731         73.8313         304.652 
        0.88363         278.926         71.5271         301.517 
       0.895928         273.135         69.3129         296.721 
       0.908253         266.113         67.1888          291.97 
       0.920535         263.624         65.1613         288.257 
       0.932774         256.998         63.2249         284.199 
        0.94508         253.866         61.3579         281.239 
       0.957324         252.671         59.5757         277.293 
        0.96953         248.944         57.8701          273.69 
       0.981769         241.805         56.2273         270.902 
       0.994071         240.848         54.6407         267.472 
         1.0064         235.608         53.1129         263.527 
        1.01868         232.707         51.6483         260.254 
        1.03092         226.677         50.2457         257.789 
         1.0432         223.269         48.8904         254.648 
        1.05553         220.447           47.58         251.296 
        1.06777         219.483         46.3273         248.676 
           1.08         214.024         45.1212         245.718 
        1.09227         211.779         43.9543         242.874 
         1.1046         208.489         42.8245         240.444 
         1.1169         203.934         41.7366         237.155 
        1.12915          201.18          40.692         235.006 
        1.14142         197.849         39.6811         232.009 
        1.15365         195.077         38.7077         229.565 
        1.16585         191.972         37.7697         226.717 
        1.17807          189.65         36.8617         224.783 
        1.19037         187.522         35.9777         222.676 
        1.20276         184.801         35.1168         219.826 
        1.21504         180.863          34.291         217.443 
        1.22728         177.676         33.4952         214.679 
        1.23954         177.035         32.7229          213.09 
        1.25184         173.512         31.9735         210.694 
        1.26414         170.404         31.2474         208.561 
        1.27632         169.688         30.5504         207.009 
         1.2886         167.914         29.8698         204.375 
        1.30093         163.058         29.2076         202.048 
        1.31316         160.532         28.5704         199.785 
        1.32541         159.192         27.9521         198.141 
        1.33772         157.535         27.3487         196.078 
        1.35005         154.979         26.7628         193.878 
        1.36225         152.483         26.2001         192.104 
        1.37447         150.359         25.6525         189.784 
        1.38676         148.498         25.1181         188.209 
        1.39907         146.045          24.598         186.173 
        1.41133         143.684          24.095         184.465 
        1.42358         141.863         23.6065         182.731 
        1.43591         140.155         23.1283         180.808 
        1.44818         138.152          22.666         179.151 
        1.46037         136.179         22.2191         177.274 
        1.47263         134.442         21.7817         175.868 
        1.48494         132.374         21.3545         173.733 
        1.49724         130.549         20.9392          172.34 
        1.50952         128.153         20.5357         170.648 
        1.52178         127.568         20.1435         168.805 
        1.53409         124.768           19.76         167.418 
        1.54637         123.305         19.3872         166.011 
        1.55858         121.122         19.0263         164.224 
        1.57081         119.436          18.674         162.829 
        1.58313         117.894         18.3284         161.178 
        1.59544         116.115         17.9918         159.776 
        1.60767         115.034         17.6659         158.271 
        1.61994         112.927         17.3468          157.01 
        1.63225         111.532          17.035         155.228 
        1.64452         109.447         16.7318         153.839 
        1.65676         107.843         16.4369         152.563 
          1.669          107.15         16.1489         151.272 
        1.68133         104.794          15.866         149.876 
        1.69363         103.539         15.5906         148.539 
        1.70585         101.644         15.3236         147.221 
        1.71809         100.454         15.0624         145.697 
        1.73038          99.719         14.8063         144.524 
        1.74268         98.4987         14.5561         143.163 
        1.75493         96.2884         14.3128          141.92 
        1.76714          95.311         14.0758         140.773 
        1.77942         93.8834         13.8428         139.348 
        1.79173         92.5225         13.6146         138.248 
        1.80402         91.7527          13.392         137.044 
         1.8163         89.8166         13.1745         135.774 
         1.8286         88.5966         12.9614         134.577 
         1.8409         87.9614         12.7533         133.363 
        1.85315           86.39         12.5504         132.301 
        1.86537           85.38         12.3523         131.197 
        1.87765         84.5727         12.1578         130.051 
        1.88995         83.1118          11.967         128.938 
        1.90221         81.9592          11.781         127.847 
        1.91445          80.902         11.5993         126.659 
        1.92674         79.5114         11.4207         125.617 
        1.93902         78.5146         11.2459         124.492 
        1.95124         77.6766         11.0757         123.481 
         1.9635         76.4395         10.9086         122.343 
        1.97583         75.2772         10.7439         121.418 
        1.98812          74.305         10.5832         120.407 
        2.00039         73.3853         10.4261         119.351 
        2.01264         72.5712         10.2723         118.359 
        2.02492         71.6509         10.1215         117.341 
        2.03717         70.4348         9.97387         116.339 
        2.04942          70.077         9.82942         115.483 
        2.06171           68.46         9.68734         114.475 
        2.07397         67.6937         9.54839         113.566 
        2.08629         66.9041         9.41158         112.577 
        2.09857         65.8682         9.27778          111.68 
        2.11081         64.8362         9.14713          110.65 
        2.12309           64.05         9.01869         109.894 
        2.13538         63.2499         8.89253         108.936 
        2.14763         62.3856         8.76921         108.064 
        2.15986         61.3027         8.64851         107.139 
        2.17214         60.7902         8.52959         106.255 
        2.18443         60.0393          8.4128          105.55 
        2.19671         58.8937         8.29834         104.646 
        2.20898         58.5601         8.18614         103.759 
        2.22126         57.6575          8.0759         102.922 
        2.23354         56.9731         7.96773         102.137 
         2.2458         56.0854         7.86173         101.345 
        2.25807         55.3291         7.75756         100.492 
        2.27035         54.6966         7.65519          99.676 
        2.28263         53.9354         7.55472          98.892 
         2.2949         53.3332          7.4561         98.1208 
        2.30718         52.3501         7.35922         97.3816 
        2.31946         52.0228         7.26401         96.5802 
        2.33169         51.0907         7.17089         95.8396 
        2.34393          50.554         7.07927         95.1258 
        2.35622         49.8537         6.98895         94.3744 
        2.36847         49.4067         6.90046         93.7305 
        2.38076         48.5275         6.81324          92.886 
        2.39305         47.9803         6.72755         92.2486 
        2.40534         47.4601         6.64333         91.4912 
        2.41762         46.8784         6.56056         90.7433 
        2.42989          46.296         6.47933         90.1267 
        2.44216         45.7684         6.39949         89.3914 
         2.4544         45.1492         6.32117         88.7148 
        2.46667         44.6273         6.24398         88.0167 
        2.47897         44.1451          6.1679         87.3468 
        2.49124         43.5646          6.0933         86.7253 
        2.50349         43.2516         6.02004           86.04 
        2.51578         42.5367         5.94776         85.4818 
        2.52805         42.0532          5.8768         84.7776 
        2.54029         41.6314         5.80717         84.0958 
        2.55257         41.0209         5.73846         83.5241 
        2.56487         40.6801         5.67074         82.9432 
        2.57716         40.1074          5.6042         82.3332 
        2.58942         39.5549         5.53888            81.7 
        2.60167         39.2541         5.47466         81.1074 
        2.61395         38.6755         5.41136         80.5202 
        2.62624         38.4273         5.34898         79.8769 
        2.63849         37.9124         5.28778          79.318 
        2.65073         37.5668          5.2276         78.7307 
        2.66302         37.0672         5.16815          78.146 
         2.6753         36.6389         5.10965         77.5986 
        2.68756         36.2499         5.05218          77.014 
        2.69983         35.8882         4.99556         76.5006 
        2.71213          35.522         4.93968         75.9617 
        2.72441         35.1557         4.88476         75.4001 
        2.73665         34.6514         4.83081         74.8586 
         2.7489          34.517          4.7777         74.3308 
        2.76118         34.0341         4.72522         73.8135 
        2.77349         33.7463         4.67341         73.2822 
        2.78576         33.4854         4.62259         72.7338 
        2.79802         33.1018         4.57254         72.2912 
        2.81031         32.7194         4.52312         71.7603 
        2.82259           32.65         4.47445         71.2295 
        2.83483         32.1906         4.42667         70.7704 
         2.8471         31.8666         4.37951          70.272 
         2.8594         31.6237         4.33289         69.7597 
         2.8717         31.4519         4.28696         69.2933 
        2.88396         31.0855         4.24187         68.8044 
        2.89619         30.9484         4.19751         68.2949 
        2.90847         30.6136         4.15361          67.825 
        2.92072         30.4279         4.11042         67.3875 
        2.93299         30.2428         4.06782         66.9275 
        2.94526         29.9297         4.02579          66.476 
        2.95753         29.7427         3.98436         66.0187 
        2.96982         29.5981         3.94344         65.5683 
        2.98209         29.3264         3.90319         65.1335 
        2.99436          29.133         3.86346          64.663 
        3.00666         29.0716         3.82421         64.2411 
        3.01894         28.8069         3.78559         63.7967 
        3.03119         28.6871         3.74756         63.3825 
        3.04345         28.5703         3.71005         62.9831 
        3.05573         28.3061         3.67297         62.5609 
          3.068         28.3122         3.63644         62.1398 
        3.08026         28.1447         3.60045         61.7218 
        3.09254         28.0295         3.56487         61.3167 
        3.10483         28.0223         3.52977         60.9203 
         3.1171         27.8112         3.49519         60.5187 
        3.12933         27.7963         3.46117         60.1093 
        3.14159         27.6662         3.42753         59.7017 
