# k  (h/Mpc)    P(k)  (Mpc/h)^3    P_linear(k)  (Mpc/h)^3     P_NL(k)  ShotnoiseSubtracted = false
      0.0156606         8577.16         8597.39         8547.39 
      0.0273761         7399.95         7424.35         7385.34 
      0.0384619         5614.32         5590.03         5562.94 
      0.0498308         4371.42         4395.34          4370.7 
      0.0625568         3688.13         3734.58          3710.5 
      0.0751274            3237         3172.44         3136.35 
      0.0867833         2537.65         2553.92         2545.36 
      0.0984825         2093.22         2020.96         2036.62 
       0.111151          1766.5         1687.38         1703.77 
       0.123864         1586.55          1520.6         1534.39 
       0.135742         1432.48         1367.36         1381.55 
        0.14762         1227.24         1169.14         1204.17 
       0.160083         1021.39         974.523         1014.97 
       0.172465         908.245         850.559         900.693 
       0.184281         838.441         784.106         836.624 
       0.196406         768.252         724.113         766.954 
       0.209011         703.253         644.269         690.726 
       0.221538         632.425         563.026          627.85 
       0.233611         582.877         503.759         576.447 
       0.245665          542.89         464.948         530.234 
       0.258103         504.297         432.825         497.758 
       0.270422         464.481         397.714         462.209 
       0.282519         425.193         360.946         428.661 
       0.294636         419.012         328.861         400.143 
       0.306978         371.381         304.251         378.352 
       0.319417         356.517         284.456         355.566 
        0.33169         334.226         265.509          334.14 
       0.343948         318.864         246.009          318.24 
       0.356249         297.287         227.721         303.109 
       0.368458          287.41         212.404         284.995 
        0.38068         273.548         199.596          271.32 
       0.392856         255.638         187.902         259.592 
       0.405069          244.94         176.468         249.098 
       0.417459         233.543         165.398         235.761 
       0.429752         224.955         155.461         226.377 
       0.441978         216.977         146.738         218.813 
       0.454294         202.376         138.817          208.12 
        0.46658         202.397         131.386         201.418 
       0.478753         191.298         124.375         194.003 
       0.490964         185.323         117.789         186.735 
       0.503334         175.654         111.711         180.713 
       0.515665         171.942         106.168         176.126 
       0.527909         166.739         101.051         168.883 
       0.540159         161.316         96.2098         163.948 
        0.55248         156.875         91.6164         158.478 
       0.564743         152.271         87.3634         154.481 
        0.57686         147.338         83.4543         149.424 
       0.589077         140.968         79.7642         145.922 
       0.601441         138.085         76.2554         142.097 
        0.61382         136.145         72.9471         137.927 
       0.626067         131.191           69.86         134.429 
       0.638306         126.196         66.9529         131.286 
       0.650632         121.894         64.1985         126.742 
       0.662899         121.855         61.6174         124.025 
       0.675076         117.507         59.1985         121.056 
       0.687267           114.7         56.9064         118.243 
       0.699615         111.504          54.707         115.816 
       0.711937         108.332         52.6279         112.785 
       0.724148         107.144         50.6744         111.202 
       0.736433         103.343         48.8104         108.301 
       0.748747          101.23         47.0375         105.964 
       0.761037         99.2263         45.3568          103.49 
       0.773197         97.0537         43.7757         102.298 
       0.785376         95.0745         42.2681         99.7274 
       0.797761         93.9391         40.8083         98.2684 
       0.810096         90.7127         39.4231         96.0854 
       0.822371         88.8527          38.109         94.3088 
       0.834626         86.9669         36.8573         92.6993 
       0.846916         85.9076         35.6587         91.1154 
       0.859215         84.1817         34.5131         89.3242 
       0.871383         82.9924         33.4295          87.827 
        0.88363         80.7655         32.3862         86.6414 
       0.895928         79.2075         31.3836          85.225 
       0.908253         77.2012         30.4219          83.713 
       0.920535         76.8397         29.5038          82.483 
       0.932774         75.1505         28.6271         81.0313 
        0.94508         74.2232         27.7817         79.6825 
       0.957324         72.4811         26.9748          78.654 
        0.96953         72.5528         26.2025         77.2665 
       0.981769          70.114         25.4586         76.4136 
       0.994071         69.3599         24.7403         75.2849 
         1.0064         67.8336         24.0485          74.161 
        1.01868         67.0179         23.3854         73.1903 
        1.03092         65.8096         22.7503         72.1483 
         1.0432         64.6904         22.1366         71.0611 
        1.05553          63.026         21.5433         70.4673 
        1.06777         62.7345         20.9761          69.457 
           1.08          61.358           20.43         68.4926 
        1.09227         60.5014         19.9017         67.4986 
         1.1046         59.5675         19.3901         66.6596 
         1.1169         58.8926         18.8976         65.6938 
        1.12915         58.0143         18.4246         65.0245 
        1.14142          56.897         17.9669         64.2231 
        1.15365         55.9519         17.5261         63.4884 
        1.16585         55.1578         17.1014         62.6174 
        1.17807         54.2975         16.6903         61.8841 
        1.19037         54.1851           16.29         61.2959 
        1.20276         53.1425         15.9002         60.5713 
        1.21504         52.6299         15.5263          59.861 
        1.22728         51.5311          15.166         59.2141 
        1.23954         50.9611         14.8163         58.4242 
        1.25184         50.1285          14.477         57.9155 
        1.26414         49.3423         14.1482         57.1956 
        1.27632          48.943         13.8326          56.647 
         1.2886         48.4254         13.5245         55.9979 
        1.30093         47.6998         13.2247         55.2783 
        1.31316         46.9558         12.9361         54.8883 
        1.32541         46.6745         12.6562         54.2573 
        1.33772         45.8078          12.383         53.6905 
        1.35005         45.3315         12.1177          53.179 
        1.36225         44.5535         11.8629         52.6483 
        1.37447         43.5044         11.6149         52.0884 
        1.38676         43.6805          11.373         51.6011 
        1.39907         42.9854         11.1375         51.1639 
        1.41133         42.0972         10.9098         50.6896 
        1.42358          41.636         10.6886         50.1168 
        1.43591         41.2564         10.4721         49.7082 
        1.44818          40.764         10.2627          49.117 
        1.46037          40.229         10.0604         48.7306 
        1.47263         39.9217         9.86235         48.3389 
        1.48494         39.1289         9.66893         47.8232 
        1.49724         38.9063         9.48085         47.3856 
        1.50952         38.4787         9.29818         46.9756 
        1.52178         37.8814         9.12058         46.5728 
        1.53409         37.5826         8.94693         46.1581 
        1.54637         36.9786         8.77816          45.707 
        1.55858         36.2024         8.61472          45.289 
        1.57081         36.2416         8.45521         44.9696 
        1.58313         35.8183         8.29875         44.5707 
        1.59544          35.181         8.14635         44.1639 
        1.60767         34.7436         7.99875         43.7563 
        1.61994          34.321         7.85431         43.4045 
        1.63225         34.1045         7.71314         43.0453 
        1.64452         33.6906         7.57583         42.7058 
        1.65676         33.2686          7.4423         42.3205 
          1.669         32.9584          7.3119         42.0301 
        1.68133         32.6351          7.1838          41.628 
        1.69363         32.0884         7.05914          41.275 
        1.70585         31.8776         6.93824         41.0302 
        1.71809          31.326         6.81994         40.5916 
        1.73038         31.1573         6.70402         40.3517 
        1.74268         30.6938         6.59073         39.9428 
        1.75493         30.3796         6.48057         39.6611 
        1.76714         30.1111         6.37323         39.3756 
        1.77942         29.7968         6.26777         39.0554 
        1.79173         29.3836         6.16442         38.7347 
        1.80402          29.058         6.06363         38.5256 
         1.8163         28.8623         5.96514         38.0797 
         1.8286         28.3701         5.86868         37.8601 
         1.8409         28.1295         5.77444         37.5488 
        1.85315         27.8145         5.68258         37.3105 
        1.86537         27.4539          5.5929         37.0297 
        1.87765          27.321         5.50483         36.7327 
        1.88995         26.9062         5.41844         36.3957 
        1.90221         26.6453         5.33422         36.1372 
        1.91445         26.2672         5.25192         35.8945 
        1.92674         26.0344         5.17107         35.6088 
        1.93902         25.7427         5.09192         35.3715 
        1.95124         25.3111         5.01486         35.1576 
         1.9635         25.1653         4.93919         34.8587 
        1.97583         24.8997         4.86461         34.6325 
        1.98812         24.6791         4.79185         34.3761 
        2.00039         24.3826         4.72072         34.1212 
        2.01264         24.0912         4.65111         33.8998 
        2.02492          23.918          4.5828         33.6264 
        2.03717         23.5458         4.51597          33.395 
        2.04942         23.3474         4.45057         33.1379 
        2.06171         23.1745         4.38624         32.9284 
        2.07397         22.9192         4.32332         32.6639 
        2.08629         22.6808         4.26138         32.4296 
        2.09857          22.422          4.2008         32.2219 
        2.11081         22.1691         4.14164          31.989 
        2.12309         22.0105         4.08349         31.7619 
        2.13538          21.675         4.02636          31.567 
        2.14763         21.5461         3.97053         31.3365 
        2.15986         21.2877         3.91588         31.1137 
        2.17214         21.0787         3.86203         30.9202 
        2.18443         20.8742         3.80915         30.6755 
        2.19671         20.6145         3.75733          30.469 
        2.20898         20.4321         3.70653         30.2506 
        2.22126         20.3109         3.65661         30.0573 
        2.23354         20.1202         3.60763          29.874 
         2.2458          19.928         3.55964         29.6791 
        2.25807         19.6346         3.51247         29.4411 
        2.27035         19.4481         3.46612          29.267 
        2.28263         19.2982         3.42063         29.0764 
         2.2949         19.1308         3.37598         28.8866 
        2.30718         18.9459         3.33211         28.6834 
        2.31946         18.8178           3.289           28.49 
        2.33169         18.5854         3.24684         28.3033 
        2.34393         18.4136         3.20535         28.1314 
        2.35622         18.2269         3.16446         27.9505 
        2.36847         18.0261         3.12439         27.7452 
        2.38076         17.8741          3.0849         27.5936 
        2.39305         17.7271          3.0461         27.4162 
        2.40534         17.5389         3.00797         27.1986 
        2.41762         17.3602          2.9705         27.0708 
        2.42989         17.2434         2.93372         26.8541 
        2.44216         17.0215         2.89756         26.7041 
         2.4544         17.0113          2.8621         26.5176 
        2.46667         16.7804         2.82715         26.3577 
        2.47897         16.5737         2.79271         26.1777 
        2.49124         16.5073         2.75893         26.0129 
        2.50349         16.2855         2.72576         25.8393 
        2.51578         16.1884         2.69303         25.7011 
        2.52805           16.03          2.6609          25.528 
        2.54029         15.9024         2.62937         25.3663 
        2.55257         15.7935         2.59826         25.2006 
        2.56487         15.6059          2.5676         25.0527 
        2.57716         15.4999         2.53747         24.8745 
        2.58942         15.4139          2.5079         24.7439 
        2.60167         15.1862         2.47882         24.5846 
        2.61395         15.1331         2.45016         24.4305 
        2.62624         15.0409         2.42191         24.2705 
        2.63849         14.8707          2.3942          24.145 
        2.65073         14.7452         2.36696         23.9805 
        2.66302         14.6536         2.34004         23.8465 
         2.6753         14.5915         2.31355         23.6909 
        2.68756         14.4441         2.28753         23.5565 
        2.69983         14.3165         2.26189         23.3977 
        2.71213         14.1899         2.23659         23.2447 
        2.72441         14.1121         2.21172         23.1109 
        2.73665         14.0005          2.1873          22.973 
         2.7489         13.9624         2.16325         22.8324 
        2.76118         13.8085         2.13949          22.697 
        2.77349         13.7309         2.11603         22.5629 
        2.78576         13.6263         2.09302         22.4365 
        2.79802         13.5662         2.07036         22.2893 
        2.81031         13.4705         2.04798          22.151 
        2.82259         13.3382         2.02594         22.0339 
        2.83483         13.3334         2.00431         21.9019 
         2.8471         13.2588         1.98296         21.7576 
         2.8594         13.1527         1.96185         21.6222 
         2.8717         13.0955         1.94105         21.5037 
        2.88396         13.0138         1.92064         21.3738 
        2.89619         12.9848         1.90055         21.2451 
        2.90847          12.893         1.88067          21.135 
        2.92072          12.851         1.86112         20.9866 
        2.93299         12.7454         1.84183           20.88 
        2.94526         12.7041          1.8228         20.7664 
        2.95753         12.6735         1.80404          20.634 
        2.96982         12.6067         1.78552         20.5149 
        2.98209         12.5773         1.76729         20.3987 
        2.99436         12.5252          1.7493         20.2721 
        3.00666         12.5071         1.73153         20.1524 
        3.01894         12.4552         1.71404         20.0507 
        3.03119          12.437         1.69682         19.9323 
        3.04345         12.3615         1.67984         19.8058 
        3.05573         12.3601         1.66305         19.6947 
          3.068         12.3167         1.64651         19.5884 
        3.08026         12.3128         1.63021         19.4627 
        3.09254         12.2656         1.61411         19.3582 
        3.10483         12.2792         1.59821         19.2577 
         3.1171         12.3088         1.58256         19.1443 
        3.12933         12.2681         1.56715         19.0336 
        3.14159         12.2242         1.55192         18.9186 
