# k  (h/Mpc)    Pcb(k)  (Mpc/h)^3    Pcb_linear(k) (Mpc/h)^3    Pcb_NL(k) (Mpc/h)^3   ShotnoiseSubtracted = false
      0.0156606         16900.4           16974         16853.5 
      0.0273761         14523.5         14676.7         14547.6 
      0.0384619         11000.4         11057.5         10948.3 
      0.0498308         8517.44         8697.55         8589.44 
      0.0625568         7192.81         7391.88         7293.89 
      0.0751274         6380.82         6280.21         6140.83 
      0.0867833         4958.75         5056.27         5015.13 
      0.0984825         4158.47         4001.39         4044.51 
       0.111151         3541.23         3341.08         3391.31 
       0.123864         3175.45         3010.99         3052.19 
       0.135742         2884.92         2707.63         2749.42 
        0.14762         2499.78         2315.16         2425.66 
       0.160083         2105.13         1929.82         2063.33 
       0.172465          1877.6         1684.36          1853.4 
       0.184281         1712.82         1552.78         1724.51 
       0.196406         1597.26         1433.99         1584.27 
       0.209011         1484.24         1275.88         1433.06 
       0.221538          1338.7            1115          1328.7 
       0.233611         1268.51         997.636         1238.03 
       0.245665         1157.13          920.78         1140.87 
       0.258103         1126.44         857.167         1075.32 
       0.270422         1009.83         787.636         1006.72 
       0.282519         944.325         714.824         946.418 
       0.294636         933.623         651.284         893.072 
       0.306978         843.346         602.547         852.836 
       0.319417         819.603         563.347         803.153 
        0.33169         772.123         525.824         758.176 
       0.343948         737.245         487.206         732.508 
       0.356249         694.662          450.99         703.264 
       0.368458         672.356         420.655         668.011 
        0.38068         653.159         395.287         640.489 
       0.392856         617.105          372.13         616.088 
       0.405069         589.329         349.487         597.052 
       0.417459         565.787         327.563         571.046 
       0.429752         554.375         307.882          550.63 
       0.441978         535.716         290.608         535.349 
       0.454294          508.47         274.922         512.462 
        0.46658         496.991         260.204         500.579 
       0.478753         483.526         246.319         484.168 
       0.490964         465.418         233.277         468.547 
       0.503334         441.388         221.239         456.647 
       0.515665         440.306         210.262         446.742 
       0.527909         423.684         200.128         434.914 
       0.540159         412.957         190.541          422.85 
        0.55248         404.795         181.444         411.432 
       0.564743         399.903         173.021         403.938 
        0.57686         384.406         165.279         392.432 
       0.589077         372.451         157.971         383.698 
       0.601441         367.889         151.022         375.247 
        0.61382         360.252          144.47          368.25 
       0.626067          354.73         138.356         360.406 
       0.638306          339.92         132.598         353.511 
       0.650632         334.915         127.144         343.596 
       0.662899         332.021         122.032         339.416 
       0.675076         319.237         117.241         333.257 
       0.687267         311.213         112.702         325.443 
       0.699615          306.96         108.346         319.989 
       0.711937         302.232         104.228         314.245 
       0.724148         292.541          100.36         309.545 
       0.736433         286.058          96.668         303.377 
       0.748747         281.746         93.1567         297.684 
       0.761037         276.461         89.8283         293.169 
       0.773197         272.971         86.6969         289.116 
       0.785376         268.842         83.7112          284.11 
       0.797761         262.134           80.82         279.787 
       0.810096         259.294         78.0768         275.925 
       0.822371         249.647         75.4742         271.353 
       0.834626         248.886         72.9951         267.432 
       0.846916         243.453         70.6215         263.496 
       0.859215         243.401         68.3526         259.706 
       0.871383         236.767         66.2065         255.794 
        0.88363         235.138         64.1402         253.151 
       0.895928         229.748         62.1547         249.149 
       0.908253         223.547           60.25         245.092 
       0.920535         222.432         58.4319         241.815 
       0.932774         215.603         56.6955         238.479 
        0.94508         213.404         55.0212         235.991 
       0.957324         212.763         53.4231         232.513 
        0.96953         209.675         51.8936         229.256 
       0.981769         203.224         50.4205         227.083 
       0.994071         202.288         48.9978         224.139 
         1.0064         197.757         47.6278         220.763 
        1.01868         195.049         46.3144         218.187 
        1.03092         191.075         45.0566         215.946 
         1.0432         187.498         43.8413         213.282 
        1.05553         184.839         42.6662         210.618 
        1.06777         184.516         41.5429         208.484 
           1.08         179.861         40.4614         205.838 
        1.09227         177.647          39.415         203.636 
         1.1046         174.944         38.4019         201.461 
         1.1169         171.785         37.4263         198.701 
        1.12915         169.264         36.4896         196.872 
        1.14142         166.539         35.5831         194.306 
        1.15365         164.232         34.7102         192.266 
        1.16585         161.893         33.8691         189.772 
        1.17807         159.694         33.0548         188.344 
        1.19037         158.343         32.2621         186.446 
        1.20276         155.717         31.4901         184.129 
        1.21504         152.874         30.7496         182.152 
        1.22728         149.897          30.036         179.845 
        1.23954         149.351         29.3435         178.527 
        1.25184         146.477         28.6715          176.48 
        1.26414         144.129         28.0204         174.631 
        1.27632         143.582         27.3953         173.575 
         1.2886         141.308          26.785         171.191 
        1.30093         137.274         26.1912         169.339 
        1.31316         136.189         25.6198         167.445 
        1.32541         134.458         25.0654         166.186 
        1.33772         133.182         24.5243         164.389 
        1.35005         131.172         23.9989         162.546 
        1.36225         129.445         23.4943         161.091 
        1.37447         127.323         23.0032         159.235 
        1.38676         125.878          22.524         157.731 
        1.39907         123.458         22.0577         156.188 
        1.41133         121.681         21.6066         154.865 
        1.42358         119.934         21.1686         153.403 
        1.43591          118.73         20.7398         151.682 
        1.44818         117.534         20.3252         150.407 
        1.46037         115.325         19.9244          148.85 
        1.47263         114.163         19.5323         147.724 
        1.48494         112.433         19.1492         146.023 
        1.49724         110.874         18.7767         144.649 
        1.50952          108.83         18.4149         143.338 
        1.52178         108.289         18.0632         141.899 
        1.53409         106.243         17.7193         140.713 
        1.54637         104.799          17.385         139.487 
        1.55858         103.016         17.0613         138.065 
        1.57081         101.642         16.7454          136.89 
        1.58313         100.448         16.4356          135.56 
        1.59544         99.2579         16.1337         134.385 
        1.60767         97.9218         15.8414         133.082 
        1.61994         96.2734         15.5554         132.167 
        1.63225         95.0297         15.2758         130.584 
        1.64452         93.3574         15.0038         129.459 
        1.65676          92.079         14.7394          128.41 
          1.669         91.4709         14.4811         127.366 
        1.68133         89.7426         14.2274         126.162 
        1.69363         88.8577         13.9805         125.094 
        1.70585         87.2758         13.7411         123.951 
        1.71809         86.1065         13.5068         122.814 
        1.73038         85.3917         13.2772          121.75 
        1.74268         84.0948         13.0529         120.664 
        1.75493         82.9747         12.8347         119.586 
        1.76714         81.6725         12.6221         118.626 
        1.77942         80.8352         12.4132         117.486 
        1.79173         79.4977         12.2086         116.566 
        1.80402         78.8693         12.0089         115.605 
         1.8163          77.426         11.8139         114.452 
         1.8286         76.3381         11.6229         113.538 
         1.8409         75.6617         11.4362         112.556 
        1.85315          74.439         11.2543          111.67 
        1.86537         73.5833         11.0767         110.714 
        1.87765         72.9105         10.9022         109.695 
        1.88995         71.6814         10.7312         108.856 
        1.90221         70.7327         10.5644         107.913 
        1.91445         69.5298         10.4014         106.982 
        1.92674         68.6137         10.2412         106.122 
        1.93902         67.7498         10.0845         105.166 
        1.95124         67.1741         9.93187         104.391 
         1.9635          66.092         9.78201         103.358 
        1.97583         65.2078          9.6343         102.655 
        1.98812          64.375         9.49019         101.759 
        2.00039         63.3624         9.34933         100.914 
        2.01264         62.8578         9.21146         100.063 
        2.02492         61.9028         9.07617         99.2536 
        2.03717          60.909         8.94383         98.3776 
        2.04942         60.5116          8.8143         97.6896 
        2.06171         59.2908          8.6869         96.8384 
        2.07397         58.6811         8.56229         96.1021 
        2.08629         58.0719         8.43961         95.2636 
        2.09857         57.1767         8.31963          94.517 
        2.11081         56.1853         8.20247          93.665 
        2.12309         55.8163          8.0873          93.028 
        2.13538         54.9306         7.97416         92.2417 
        2.14763         54.2432         7.86358         91.5086 
        2.15986         53.2149         7.75534          90.759 
        2.17214         52.8352         7.64871         90.0256 
        2.18443         52.1973         7.54398          89.406 
        2.19671         51.2864         7.44134          88.636 
        2.20898         51.0916         7.34073          87.933 
        2.22126         50.2384         7.24187         87.2052 
        2.23354         49.5562         7.14487         86.5637 
         2.2458         48.9625         7.04982         85.9187 
        2.25807         48.3604         6.95641         85.1837 
        2.27035         47.8313         6.86461         84.5163 
        2.28263         47.0251         6.77452         83.8445 
         2.2949          46.652         6.68608         83.2034 
        2.30718         45.8145         6.59921          82.593 
        2.31946         45.3313         6.51382         81.9662 
        2.33169         44.7096         6.43033         81.3277 
        2.34393         44.0169         6.34816         80.7112 
        2.35622         43.7353         6.26718         80.0806 
        2.36847         43.1543         6.18782         79.5244 
        2.38076         42.5535         6.10961         78.8509 
        2.39305         42.0371         6.03277          78.295 
        2.40534         41.5871         5.95725          77.651 
        2.41762         41.1748         5.88303         77.0295 
        2.42989         40.5884         5.81019         76.5238 
        2.44216         40.1989         5.73859         75.9191 
         2.4544         39.6911         5.66836           75.34 
        2.46667         39.2781         5.59915         74.7469 
        2.47897         38.8021         5.53092         74.2082 
        2.49124         38.2694         5.46402         73.6685 
        2.50349          37.792         5.39833         73.0962 
        2.51578         37.3079         5.33351         72.6178 
        2.52805         37.0672         5.26988         72.0485 
        2.54029         36.5664         5.20744         71.4832 
        2.55257         36.0114         5.14583         70.9875 
        2.56487         35.7494          5.0851         70.4972 
        2.57716         35.2782         5.02543          69.999 
        2.58942         34.8313         4.96686          69.462 
        2.60167         34.4387         4.90927         68.9489 
        2.61395         34.0594         4.85251         68.4553 
        2.62624         33.8203         4.79657         67.9417 
        2.63849         33.4841         4.74169         67.4726 
        2.65073         33.1123         4.68773         66.9582 
        2.66302         32.6424         4.63441         66.4783 
         2.6753         32.2809         4.58196         66.0126 
        2.68756          31.835         4.53043         65.5081 
        2.69983         31.6642         4.47965         65.0839 
        2.71213         31.3398         4.42954         64.6397 
        2.72441         31.0274         4.38029           64.16 
        2.73665         30.6793         4.33191         63.6957 
         2.7489         30.5515         4.28429         63.2516 
        2.76118         30.0707         4.23723         62.8181 
        2.77349          29.938         4.19077         62.3761 
        2.78576         29.7018          4.1452         61.9162 
        2.79802         29.2573         4.10032         61.5215 
        2.81031         28.9938           4.056         61.0869 
        2.82259         28.8553         4.01235          60.638 
        2.83483         28.5019         3.96952         60.2308 
         2.8471         28.1915         3.92722         59.8235 
         2.8594         28.0866         3.88541         59.4116 
         2.8717         27.8143         3.84423         59.0019 
        2.88396         27.5605         3.80379         58.5754 
        2.89619         27.3234         3.76401         58.1635 
        2.90847         27.1546         3.72465         57.7851 
        2.92072         26.9171         3.68592         57.3868 
        2.93299         26.7789         3.64772          56.992 
        2.94526         26.5341         3.61003         56.6241 
        2.95753         26.3897         3.57288         56.2458 
        2.96982         26.3002         3.53619         55.8607 
        2.98209         26.0307         3.50009         55.4912 
        2.99436          25.865         3.46446         55.1013 
        3.00666         25.7804         3.42927         54.7423 
        3.01894         25.5631         3.39464         54.3573 
        3.03119         25.4753         3.36054          54.004 
        3.04345          25.304          3.3269         53.6693 
        3.05573         25.2581         3.29365         53.3144 
          3.068         25.1437         3.26089         52.9569 
        3.08026          24.964         3.22862         52.6007 
        3.09254         24.8857         3.19672         52.2558 
        3.10483         24.8992         3.16524         51.9212 
         3.1171         24.8225         3.13423         51.5832 
        3.12933         24.7414         3.10372         51.2399 
        3.14159         24.6181         3.07356         50.9015 
