# k  (h/Mpc)    Pcb(k)  (Mpc/h)^3    Pcb_linear(k) (Mpc/h)^3    Pcb_NL(k) (Mpc/h)^3   ShotnoiseSubtracted = false
      0.0156606           18859         18950.2         18809.6 
      0.0273761         16188.4         16384.6         16226.6 
      0.0384619           12253         12343.9         12207.3 
      0.0498308         9476.24         9709.28         9572.94 
      0.0625568         8003.72         8251.64         8129.09 
      0.0751274         7112.54         7010.62         6837.33 
      0.0867833         5519.18         5644.31         5591.95 
      0.0984825          4643.6         4466.73         4517.57 
       0.111151         3961.84         3729.63         3790.48 
       0.123864         3551.03         3361.15         3410.74 
       0.135742         3230.95          3022.5         3072.57 
        0.14762         2805.43         2584.39         2717.35 
       0.160083         2370.83         2154.23         2316.36 
       0.172465         2114.67         1880.23         2086.09 
       0.184281         1923.65         1733.35         1941.27 
       0.196406         1802.43         1600.74         1785.25 
       0.209011         1679.78         1424.25         1616.28 
       0.221538          1514.2         1244.66         1503.48 
       0.233611         1442.36         1113.65         1404.62 
       0.245665         1311.44         1027.85          1295.5 
       0.258103         1286.74         956.843         1222.02 
       0.270422         1150.05         879.227         1145.86 
       0.282519          1080.3         797.948         1080.56 
       0.294636         1065.42         727.019         1021.48 
       0.306978         967.051         672.614         977.046 
       0.319417         943.173         628.855         920.606 
        0.33169         887.844         586.969         870.222 
       0.343948         849.385         543.861         842.147 
       0.356249         802.229         503.433          809.65 
       0.368458         774.289         469.571         771.042 
        0.38068         756.408         441.253         740.342 
       0.392856          716.18         415.403          713.14 
       0.405069         682.034         390.127         690.956 
       0.417459         655.469         365.653         663.286 
       0.429752         646.381         343.683         639.854 
       0.441978         624.089         324.401         622.804 
       0.454294         594.327         306.891         596.739 
        0.46658         578.855         290.462         583.699 
       0.478753         565.429         274.962         565.182 
       0.490964         543.645         260.404         547.429 
       0.503334           517.7         246.966         534.279 
       0.515665         516.517         234.712         522.615 
       0.527909         496.072           223.4          510.05 
       0.540159         483.405         212.698         496.336 
        0.55248          473.86         202.543         483.199 
       0.564743         469.502          193.14         474.772 
        0.57686         451.926         184.498         461.703 
       0.589077         440.073          176.34         451.367 
       0.601441         433.191         168.583         441.935 
        0.61382         422.692         161.269         434.108 
       0.626067         417.089         154.444         425.313 
       0.638306           400.8         148.018         417.026 
       0.650632         396.063         141.928         406.014 
       0.662899          392.48         136.222          401.26 
       0.675076         377.898         130.875         394.748 
       0.687267         368.068         125.807         385.342 
       0.699615         364.234         120.945         379.157 
       0.711937         358.456         116.348         372.281 
       0.724148         346.368          112.03         366.879 
       0.736433          338.39         107.909         359.926 
       0.748747          333.85         103.989         353.346 
       0.761037         327.454         100.274         348.515 
       0.773197         323.388         96.7783         343.339 
       0.785376         318.358         93.4455         337.924 
       0.797761         309.773         90.2181          332.58 
       0.810096         307.104         87.1559         328.333 
       0.822371         296.595         84.2507         322.914 
       0.834626         295.025         81.4833         318.634 
       0.846916          288.77         78.8336         313.813 
       0.859215         288.125         76.3009         309.331 
       0.871383         280.552         73.9052         304.957 
        0.88363         278.729         71.5987         301.819 
       0.895928          272.94         69.3823         297.018 
       0.908253         265.915         67.2561         292.262 
       0.920535         263.403         65.2266         288.545 
       0.932774         256.786         63.2882         284.483 
        0.94508         253.637         61.4193         281.521 
       0.957324         252.429         59.6353         277.571 
        0.96953         248.695          57.928         273.964 
       0.981769         241.556         56.2835         271.173 
       0.994071         240.589         54.6954          267.74 
         1.0064         235.347         53.1661         263.791 
        1.01868         232.443            51.7         260.515 
        1.03092         226.398          50.296         258.047 
         1.0432          222.99         48.9393         254.903 
        1.05553         220.166         47.6276         251.548 
        1.06777         219.187         46.3737         248.925 
           1.08         213.723         45.1664         245.964 
        1.09227         211.483         43.9983         243.117 
         1.1046         208.182         42.8674         240.684 
         1.1169          203.62         41.7784         237.392 
        1.12915         200.865         40.7328         235.241 
        1.14142         197.531         39.7209         232.242 
        1.15365         194.753         38.7465         229.795 
        1.16585          191.64         37.8075         226.944 
        1.17807         189.315         36.8986         225.008 
        1.19037         187.178         36.0137         222.898 
        1.20276         184.457         35.1519         220.046 
        1.21504         180.515         34.3253          217.66 
        1.22728         177.327         33.5287         214.894 
        1.23954         176.679         32.7556         213.303 
        1.25184         173.154         32.0056         210.905 
        1.26414         170.043         31.2787          208.77 
        1.27632         169.321          30.581         207.216 
         1.2886         167.545         29.8997          204.58 
        1.30093         162.698         29.2369         202.251 
        1.31316         160.159          28.599         199.985 
        1.32541         158.818         27.9801         198.339 
        1.33772         157.159         27.3761         196.274 
        1.35005         154.602         26.7896         194.072 
        1.36225         152.099         26.2263         192.297 
        1.37447         149.974         25.6781         189.974 
        1.38676         148.113         25.1432         188.398 
        1.39907         145.666         24.6226         186.359 
        1.41133         143.297         24.1191         184.649 
        1.42358         141.478         23.6302         182.913 
        1.43591         139.767         23.1515         180.989 
        1.44818         137.759         22.6887          179.33 
        1.46037         135.792         22.2413         177.451 
        1.47263         134.049         21.8035         176.044 
        1.48494         131.983         21.3759         173.907 
        1.49724         130.158         20.9601         172.512 
        1.50952         127.766         20.5563         170.819 
        1.52178         127.174         20.1637         168.974 
        1.53409         124.375         19.7798         167.585 
        1.54637         122.913         19.4066         166.177 
        1.55858         120.734         19.0453         164.388 
        1.57081         119.044         18.6927         162.992 
        1.58313         117.503         18.3468         161.339 
        1.59544         115.721         18.0098         159.936 
        1.60767         114.644         17.6835          158.43 
        1.61994         112.537         17.3642         157.167 
        1.63225         111.143         17.0521         155.383 
        1.64452          109.06         16.7485         153.993 
        1.65676          107.46         16.4533         152.716 
          1.669         106.763          16.165         151.423 
        1.68133         104.409         15.8818         150.026 
        1.69363         103.153         15.6063         148.688 
        1.70585          101.26          15.339         147.368 
        1.71809         100.071         15.0774         145.843 
        1.73038          99.335         14.8212         144.669 
        1.74268         98.1158         14.5707         143.306 
        1.75493         95.9062         14.3272         142.062 
        1.76714         94.9351         14.0898         140.913 
        1.77942         93.5037         13.8567         139.488 
        1.79173         92.1453         13.6282         138.387 
        1.80402         91.3745         13.4054         137.182 
         1.8163         89.4429         13.1877          135.91 
         1.8286         88.2243         12.9744         134.712 
         1.8409         87.5901          12.766         133.496 
        1.85315         86.0188          12.563         132.433 
        1.86537         85.0121         12.3647         131.328 
        1.87765         84.2054           12.17         130.182 
        1.88995         82.7474          11.979         129.067 
        1.90221         81.5952         11.7928         127.974 
        1.91445         80.5423         11.6109         126.786 
        1.92674         79.1525         11.4321         125.743 
        1.93902          78.158         11.2572         124.617 
        1.95124          77.318         11.0868         123.605 
         1.9635         76.0847         10.9195         122.466 
        1.97583         74.9245         10.7546         121.539 
        1.98812         73.9549         10.5938         120.528 
        2.00039         73.0379         10.4365          119.47 
        2.01264         72.2225         10.2826         118.477 
        2.02492         71.3068         10.1316         117.458 
        2.03717         70.0946         9.98385         116.456 
        2.04942         69.7343         9.83926         115.598 
        2.06171         68.1231         9.69704         114.589 
        2.07397         67.3586         9.55795          113.68 
        2.08629         66.5712           9.421          112.69 
        2.09857         65.5382         9.28707         111.792 
        2.11081         64.5083         9.15629         110.761 
        2.12309         63.7218         9.02772         110.004 
        2.13538         62.9249         8.90143         109.045 
        2.14763         62.0647         8.77798         108.172 
        2.15986         60.9855         8.65717         107.247 
        2.17214         60.4735         8.53813         106.361 
        2.18443         59.7245         8.42122         105.656 
        2.19671         58.5827         8.30665         104.751 
        2.20898         58.2483         8.19434         103.863 
        2.22126         57.3495         8.08399         103.025 
        2.23354         56.6675         7.97571         102.239 
         2.2458         55.7812          7.8696         101.446 
        2.25807         55.0282         7.76533         100.592 
        2.27035         54.3946         7.66285         99.7758 
        2.28263         53.6383         7.56228          98.991 
         2.2949         53.0359         7.46357         98.2191 
        2.30718          52.059         7.36659         97.4791 
        2.31946         51.7317         7.27128         96.6769 
        2.33169         50.8022         7.17807         95.9355 
        2.34393         50.2696         7.08635          95.221 
        2.35622          49.568         6.99595         94.4689 
        2.36847         49.1249         6.90737         93.8243 
        2.38076         48.2491         6.82006          92.979 
        2.39305         47.7031         6.73429          92.341 
        2.40534         47.1847         6.64998         91.5828 
        2.41762          46.605         6.56713         90.8342 
        2.42989         46.0233         6.48582         90.2169 
        2.44216         45.4993         6.40589         89.4809 
         2.4544         44.8815          6.3275         88.8036 
        2.46667         44.3616         6.25023         88.1048 
        2.47897         43.8814         6.17408         87.4342 
        2.49124          43.305          6.0994         86.8121 
        2.50349         42.9924         6.02606         86.1261 
        2.51578         42.2802         5.95372         85.5674 
        2.52805         41.7979         5.88268         84.8625 
        2.54029          41.379         5.81299           84.18 
        2.55257         40.7714         5.74421         83.6077 
        2.56487         40.4324         5.67642         83.0263 
        2.57716         39.8615         5.60981         82.4156 
        2.58942         39.3116         5.54442         81.7818 
        2.60167         39.0119         5.48014         81.1886 
        2.61395         38.4366         5.41678         80.6008 
        2.62624         38.1878         5.35434         79.9568 
        2.63849         37.6749         5.29308         79.3974 
        2.65073         37.3312         5.23284         78.8095 
        2.66302         36.8358         5.17332         78.2242 
         2.6753         36.4094         5.11477         77.6763 
        2.68756         36.0222         5.05724         77.0911 
        2.69983         35.6607         5.00056         76.5772 
        2.71213         35.2966         4.94463         76.0378 
        2.72441         34.9319         4.88965         75.4756 
        2.73665          34.431         4.83564         74.9335 
         2.7489         34.2955         4.78248         74.4052 
        2.76118         33.8165         4.72995         73.8874 
        2.77349         33.5286         4.67809         73.3555 
        2.78576         33.2686         4.62721         72.8066 
        2.79802         32.8881         4.57712         72.3636 
        2.81031          32.508         4.52765         71.8322 
        2.82259          32.438         4.47893         71.3008 
        2.83483         31.9812         4.43111         70.8412 
         2.8471           31.66         4.38389         70.3423 
         2.8594         31.4174         4.33722         69.8295 
         2.8717          31.247         4.29125         69.3627 
        2.88396         30.8818         4.24611         68.8732 
        2.89619         30.7458         4.20171         68.3633 
        2.90847         30.4123         4.15777         67.8929 
        2.92072         30.2288         4.11453          67.455 
        2.93299         30.0445         4.07189         66.9945 
        2.94526         29.7322         4.02982         66.5426 
        2.95753         29.5463         3.98835         66.0848 
        2.96982         29.4012         3.94739         65.6339 
        2.98209         29.1328         3.90709         65.1987 
        2.99436         28.9398         3.86733         64.7277 
        3.00666          28.879         3.82804         64.3054 
        3.01894          28.615         3.78938         63.8605 
        3.03119         28.4974         3.75131         63.4459 
        3.04345         28.3814         3.71376         63.0461 
        3.05573         28.1168         3.67665         62.6235 
          3.068         28.1235         3.64008          62.202 
        3.08026         27.9564         3.60405         61.7836 
        3.09254         27.8429         3.56844         61.3781 
        3.10483         27.8359         3.53331         60.9813 
         3.1171         27.6252         3.49869         60.5793 
        3.12933         27.6101         3.46464         60.1695 
        3.14159          27.481         3.43096         59.7614 
