# k  (h/Mpc)    P(k)  (Mpc/h)^3    P_linear(k)  (Mpc/h)^3     P_NL(k)  ShotnoiseSubtracted = false
      0.0156606         11741.3         11630.2         11557.1 
      0.0273761         10106.5         10041.6         9975.68 
      0.0384619         7660.81         7559.89         7509.07 
      0.0498308          5949.4         5943.79         5895.36 
      0.0625568         5020.42         5049.98         5004.59 
      0.0751274         4427.24         4289.69         4223.56 
      0.0867833         3456.83         3453.27         3435.68 
      0.0984825         2871.23         2732.58         2757.28 
       0.111151         2431.83          2281.5         2308.34 
       0.123864         2182.85         2055.99         2078.42 
       0.135742         1975.52         1848.78         1871.78 
        0.14762         1700.59         1580.75         1639.54 
       0.160083         1420.62         1317.61          1386.7 
       0.172465         1265.56            1150         1236.48 
       0.184281         1163.33         1060.15         1149.64 
       0.196406         1072.26         979.034          1054.1 
       0.209011         987.813         871.079         951.143 
       0.221538          890.46         761.233          872.18 
       0.233611         830.291         681.101         805.773 
       0.245665         766.534         628.626         741.377 
       0.258103         726.517         585.194         697.176 
       0.270422         660.646         537.722         649.585 
       0.282519         609.598          488.01         605.541 
       0.294636         603.782         444.629         567.996 
       0.306978         538.699         411.356         539.465 
       0.319417         519.196         384.593         507.371 
        0.33169         488.544         358.975         477.532 
       0.343948         465.562          332.61         458.009 
       0.356249         436.134         307.885          437.72 
       0.368458         422.987         287.175         413.169 
        0.38068         405.317         269.858         394.488 
       0.392856          380.31         254.048         378.204 
       0.405069         365.103         238.589         365.144 
       0.417459         349.084         223.622         346.404 
       0.429752         337.616         210.186         333.429 
       0.441978         326.563         198.393         323.124 
       0.454294         306.508         187.684         308.247 
        0.46658         304.163         177.636         299.619 
       0.478753         291.346         168.157          289.03 
       0.490964         281.521         159.253         278.835 
       0.503334         265.652         151.035         270.736 
       0.515665         262.924         143.541         264.462 
       0.527909         254.683         136.623         255.366 
       0.540159         247.508         130.077         248.028 
        0.55248           242.5         123.867         240.553 
       0.564743          236.46         118.117         235.301 
        0.57686         227.965         112.832         227.931 
       0.589077         218.917         107.843         222.974 
       0.601441         215.665         103.099          217.54 
        0.61382         213.286         98.6258          212.21 
       0.626067          207.76         94.4519         207.155 
       0.638306         198.286         90.5215         202.948 
       0.650632         193.144         86.7975         196.474 
       0.662899         192.862         83.3078           193.1 
       0.675076         185.807         80.0374         188.779 
       0.687267         181.031         76.9384         184.638 
       0.699615         177.484         73.9648         180.952 
       0.711937         173.308         71.1538          177.26 
       0.724148         170.018         68.5126         174.659 
       0.736433         165.923         65.9925         170.625 
       0.748747         162.283         63.5954         167.142 
       0.761037         159.825         61.3232         163.732 
       0.773197         156.553         59.1855         161.861 
       0.785376         154.695         57.1472         158.199 
       0.797761          151.42         55.1735         156.179 
       0.810096         147.928         53.3007         153.158 
       0.822371         143.172          51.524          150.58 
       0.834626         141.484         49.8316         148.008 
       0.846916          139.86         48.2112         145.778 
       0.859215         138.128         46.6623         143.362 
       0.871383         135.275         45.1972         140.956 
        0.88363         132.805         43.7866         139.299 
       0.895928         130.174         42.4311         137.311 
       0.908253          126.68         41.1308         134.779 
       0.920535         126.095         39.8897         133.067 
       0.932774         122.371         38.7042         130.819 
        0.94508         121.415         37.5613         129.159 
       0.957324         120.048         36.4703         127.324 
        0.96953         119.356         35.4262         125.251 
       0.981769         115.547         34.4205         124.103 
       0.994071         114.791         33.4493         122.326 
         1.0064         112.016          32.514         120.526 
        1.01868         110.959         31.6174         119.148 
        1.03092         108.983         30.7588         117.672 
         1.0432         107.107         29.9291         116.112 
        1.05553         104.628         29.1269         114.966 
        1.06777         104.442         28.3601         113.632 
           1.08         102.368         27.6217         112.116 
        1.09227         100.956         26.9074         110.784 
         1.1046         99.1803         26.2158         109.419 
         1.1169         98.0201         25.5498         107.923 
        1.12915         96.5941         24.9103         106.798 
        1.14142         95.0041         24.2915         105.466 
        1.15365         93.1862         23.6956         104.287 
        1.16585         92.0791         23.1214         103.034 
        1.17807         90.6242         22.5655         102.126 
        1.19037         90.4449         22.0244         101.056 
        1.20276         88.4465         21.4973         99.8533 
        1.21504         87.8105         20.9918         98.6718 
        1.22728         85.8815         20.5047         97.6767 
        1.23954          85.234         20.0319         96.5651 
        1.25184         83.5193         19.5731         95.6526 
        1.26414         82.4468         19.1286         94.6712 
        1.27632         81.6445         18.7019         94.0081 
         1.2886         80.2859         18.2853          92.663 
        1.30093         79.1262         17.8799         91.6233 
        1.31316         78.3388         17.4898         90.9351 
        1.32541         77.5507         17.1113         90.0407 
        1.33772          76.345          16.742         89.1085 
        1.35005         75.6388         16.3833         88.2253 
        1.36225         74.4678         16.0388          87.354 
        1.37447         72.8439         15.7036         86.4235 
        1.38676         72.8743         15.3764         85.4897 
        1.39907         71.4309         15.0581         84.8749 
        1.41133         70.1973         14.7501         84.2135 
        1.42358         69.4246         14.4511         83.1705 
        1.43591         68.9217         14.1584         82.4351 
        1.44818         67.9281         13.8753          81.601 
        1.46037         67.0676         13.6018         80.9749 
        1.47263         66.0387          13.334          80.318 
        1.48494         65.3682         13.0725         79.5011 
        1.49724          64.304         12.8183         78.6946 
        1.50952         63.8144         12.5713          77.949 
        1.52178         62.9717         12.3312         77.3514 
        1.53409         62.4277         12.0964         76.6838 
        1.54637         60.9234         11.8682         75.9339 
        1.55858         60.3359         11.6472         75.2073 
        1.57081         59.8462         11.4316         74.6662 
        1.58313         58.8629           11.22         74.0487 
        1.59544          58.121          11.014         73.3121 
        1.60767         57.5424         10.8144         72.7064 
        1.61994         56.6663         10.6191         72.1779 
        1.63225         55.9422         10.4283          71.388 
        1.64452         55.3358         10.2426          70.887 
        1.65676         54.5087         10.0621         70.2106 
          1.669          54.135         9.88579         69.6842 
        1.68133          53.557          9.7126         69.0419 
        1.69363         52.6195         9.54406         68.5562 
        1.70585         52.3138         9.38061         67.9695 
        1.71809         51.2028         9.22066          67.433 
        1.73038         50.8155         9.06393          66.852 
        1.74268         50.1077         8.91076         66.2869 
        1.75493         49.5798         8.76183         65.7324 
        1.76714         48.9647         8.61669         65.1782 
        1.77942         48.6669         8.47411         64.6794 
        1.79173         47.8128         8.33439         64.0812 
        1.80402         47.3734         8.19811         63.6632 
         1.8163         46.7454         8.06496         63.0576 
         1.8286         46.0806         7.93454          62.688 
         1.8409         45.5134         7.80712         62.0651 
        1.85315         45.0192         7.68293         61.7111 
        1.86537         44.4902         7.56168         61.1883 
        1.87765         44.0606         7.44261         60.6202 
        1.88995         43.4561         7.32581         60.1311 
        1.90221         43.0944         7.21194         59.6624 
        1.91445         42.4132         7.10067         59.2697 
        1.92674         41.9871         6.99136         58.7544 
        1.93902         41.5228         6.88436         58.2823 
        1.95124         41.1178         6.78016         57.9134 
         1.9635         40.4346         6.67785         57.4061 
        1.97583         40.0722         6.57702         57.0389 
        1.98812         39.4076         6.47865         56.5428 
        2.00039         39.1849         6.38248         56.0982 
        2.01264          38.549         6.28836         55.7248 
        2.02492         38.2218         6.19601         55.3043 
        2.03717         37.6613         6.10566         54.8381 
        2.04942         37.2156         6.01723         54.4436 
        2.06171         36.8763         5.93026         53.9843 
        2.07397         36.3545         5.84519          53.635 
        2.08629         35.9667         5.76145          53.203 
        2.09857         35.6454         5.67954         52.8508 
        2.11081         35.1283         5.59956         52.4171 
        2.12309         34.8075         5.52093          52.019 
        2.13538         34.3249          5.4437         51.6856 
        2.14763         34.0141         5.36821         51.2855 
        2.15986         33.8106         5.29432          50.881 
        2.17214         33.1875         5.22152          50.584 
        2.18443         32.9375         5.15003         50.1299 
        2.19671         32.4249         5.07996         49.7713 
        2.20898         32.0012         5.01127         49.3961 
        2.22126         31.8433         4.94379         49.0295 
        2.23354         31.4285         4.87757         48.7345 
         2.2458         31.1066         4.81268         48.3547 
        2.25807         30.5829         4.74891          47.984 
        2.27035         30.2887         4.68624         47.6598 
        2.28263          29.937         4.62474         47.3285 
         2.2949          29.679         4.56437         46.9933 
        2.30718         29.3652         4.50506          46.639 
        2.31946         29.0454         4.44677         46.3127 
        2.33169         28.7534         4.38977         45.9706 
        2.34393         28.3589         4.33368         45.6182 
        2.35622          28.036         4.27839         45.3533 
        2.36847         27.7188         4.22422          44.983 
        2.38076         27.4831         4.17083         44.7153 
        2.39305          27.156         4.11837          44.405 
        2.40534         26.8979         4.06682         44.0291 
        2.41762          26.526         4.01615         43.7514 
        2.42989         26.3391         3.96642         43.4457 
        2.44216         26.0199         3.91755         43.1511 
         2.4544         25.7571          3.8696         42.8631 
        2.46667         25.3996         3.82235         42.5477 
        2.47897         25.2051         3.77578         42.2692 
        2.49124         24.9791         3.73011         41.9662 
        2.50349         24.6567         3.68526         41.7056 
        2.51578         24.3174         3.64101         41.4221 
        2.52805         24.1566         3.59757         41.1176 
        2.54029         23.9603         3.55495         40.8399 
        2.55257         23.7033         3.51289         40.5598 
        2.56487         23.4899         3.47143         40.2859 
        2.57716         23.2197          3.4307          39.999 
        2.58942         22.9802         3.39071         39.7601 
        2.60167         22.7499          3.3514          39.467 
        2.61395         22.5408         3.31265          39.201 
        2.62624         22.3437         3.27446         38.9527 
        2.63849         22.1717           3.237         38.6871 
        2.65073         21.8998         3.20016         38.4102 
        2.66302         21.6214         3.16376         38.1767 
         2.6753         21.5044         3.12795         37.9255 
        2.68756         21.3368         3.09277         37.6924 
        2.69983         21.1472         3.05811         37.4134 
        2.71213         20.9545          3.0239         37.1737 
        2.72441         20.7864         2.99028         36.9103 
        2.73665         20.5657         2.95725         36.6679 
         2.7489         20.3628         2.92474         36.4328 
        2.76118         20.2378         2.89262         36.1694 
        2.77349         20.1264          2.8609         35.9564 
        2.78576         19.9011         2.82979         35.7305 
        2.79802         19.6927         2.79915         35.4896 
        2.81031         19.5933          2.7689         35.2764 
        2.82259          19.492          2.7391         35.0414 
        2.83483         19.2427         2.70986         34.7981 
         2.8471         19.1886         2.68099          34.565 
         2.8594         19.0217         2.65244         34.3531 
         2.8717         18.8419         2.62433          34.123 
        2.88396         18.6804         2.59673         33.8943 
        2.89619         18.6469         2.56957         33.6871 
        2.90847         18.5021          2.5427         33.4689 
        2.92072         18.3487         2.51626         33.2674 
        2.93299         18.2923         2.49018         33.0616 
        2.94526         18.1989         2.46445         32.8455 
        2.95753         18.1015         2.43909         32.6338 
        2.96982         18.0392         2.41404         32.4323 
        2.98209         17.8875          2.3894         32.2315 
        2.99436         17.8622         2.36508         32.0274 
        3.00666         17.7362         2.34105         31.8191 
        3.01894         17.6771         2.31741         31.6098 
        3.03119         17.5318         2.29413         31.4114 
        3.04345         17.5659         2.27116         31.2234 
        3.05573         17.4776         2.24847         31.0288 
          3.068         17.4075         2.22611         30.8226 
        3.08026         17.3961         2.20407         30.6338 
        3.09254         17.3181         2.18229         30.4506 
        3.10483         17.2829         2.16081         30.2651 
         3.1171         17.2882         2.13964         30.0801 
        3.12933         17.2317         2.11881         29.8932 
        3.14159         17.1674         2.09822         29.7025 
