# k  (h/Mpc)    Pcb(k)  (Mpc/h)^3    Pcb_linear(k) (Mpc/h)^3    Pcb_NL(k) (Mpc/h)^3   ShotnoiseSubtracted = false
      0.0156606         2224.33         2225.69         2214.92 
      0.0273761         1933.84         1926.05         1921.11 
      0.0384619         1469.44         1451.64         1450.31 
      0.0498308         1152.69         1142.05         1141.62 
      0.0625568         972.578         970.735         969.414 
      0.0751274         840.016          824.81         822.177 
      0.0867833         667.423         664.096         663.798 
      0.0984825          539.76         525.565         527.347 
       0.111151         451.828         438.848         440.558 
       0.123864         405.828         395.499         396.715 
       0.135742         364.476         355.656          356.83 
        0.14762         309.634         304.107         306.975 
       0.160083         257.195         253.493         256.797 
       0.172465         226.328         221.252         225.195 
       0.184281         209.787         203.969         208.142 
       0.196406         191.412         188.366         191.542 
       0.209011         172.214         167.598         171.233 
       0.221538         152.671         146.466         151.567 
       0.233611         137.362         131.049          136.71 
       0.245665         128.881         120.953         125.978 
       0.258103         116.166         112.597         117.596 
       0.270422         109.019         103.464         108.299 
       0.282519         98.8922         93.8997         99.0893 
       0.294636         93.7477         85.5532         91.0245 
       0.306978         83.1382         79.1511         84.7966 
       0.319417         79.2226         74.0018         79.4683 
        0.33169         73.6236         69.0728         74.3527 
       0.343948         69.7218              64         69.3366 
       0.356249         63.8872         59.2426         65.1483 
       0.368458         60.8184         55.2579         60.6515 
        0.38068         56.9105         51.9256           57.28 
       0.392856         53.2712         48.8837         54.2875 
       0.405069         50.3608         45.9093         51.1183 
       0.417459         46.9572         43.0292         48.3285 
       0.429752         44.9068         40.4439         45.7282 
       0.441978         42.7177         38.1748         43.6799 
       0.454294         39.7723         36.1143           41.33 
        0.46658         39.2488         34.1809         39.3507 
       0.478753         36.5264          32.357         37.5351 
       0.490964         35.2231         30.6438         35.9502 
       0.503334         33.7121         29.0624         34.1783 
       0.515665         31.9195         27.6204         32.9447 
       0.527909         30.5416         26.2893         31.2217 
       0.540159         29.1843         25.0299         29.9497 
        0.55248         27.2768         23.8349         28.6391 
       0.564743         26.8924         22.7284         27.6615 
        0.57686          25.932         21.7114          26.553 
       0.589077         24.3852         20.7514         25.6525 
       0.601441         23.4749         19.8386          24.673 
        0.61382         22.6211         18.9779         23.6649 
       0.626067         21.7048         18.1748         22.8749 
       0.638306         20.9498         17.4184         22.0099 
       0.650632         20.3838         16.7019         21.2974 
       0.662899         19.4366         16.0304         20.5204 
       0.675076         18.5287         15.4011         19.8331 
       0.687267         18.1897         14.8048         19.1434 
       0.699615         17.5871         14.2326         18.5606 
       0.711937         16.6705         13.6917         17.9664 
       0.724148         16.5524         13.1835         17.4509 
       0.736433         15.5983         12.6986         16.8667 
       0.748747         15.2574         12.2373         16.3965 
       0.761037         14.8868         11.8001         15.9266 
       0.773197         14.2971         11.3887         15.4955 
       0.785376          13.778         10.9965         15.0486 
       0.797761         13.4279         10.6167         14.6068 
       0.810096         13.0889         10.2564         14.2565 
       0.822371         12.7342         9.91449         13.8139 
       0.834626         12.3185         9.58883         13.4797 
       0.846916         11.9131         9.27702         13.1229 
       0.859215         11.4719         8.97897         12.7996 
       0.871383         11.2271         8.69706         12.5011 
        0.88363         10.9346         8.42563         12.1765 
       0.895928         10.7151         8.16481         11.8554 
       0.908253         10.4128          7.9146          11.586 
       0.920535         10.0773         7.67577         11.2945 
       0.932774         9.90319         7.44766          10.987 
        0.94508         9.56504         7.22773         10.7756 
       0.957324         9.36645          7.0178          10.555 
        0.96953         9.03449         6.81688         10.3039 
       0.981769         8.92366         6.62337         10.0604 
       0.994071         8.70581         6.43648         9.84842 
         1.0064         8.40728         6.25651         9.64187 
        1.01868         8.23057         6.08398         9.43601 
        1.03092         8.07652         5.91876         9.22409 
         1.0432         7.77814         5.75911         9.03408 
        1.05553         7.65039         5.60475         8.87333 
        1.06777         7.42108         5.45719         8.68674 
           1.08         7.29324         5.31512         8.51196 
        1.09227         7.12656         5.17766         8.34021 
         1.1046         6.97067         5.04458         8.16726 
         1.1169         6.74599         4.91642         8.01456 
        1.12915         6.72426         4.79337         7.89219 
        1.14142         6.46878         4.67429         7.71815 
        1.15365         6.36688         4.55963         7.57861 
        1.16585         6.27866         4.44913         7.45834 
        1.17807         6.10835         4.34217          7.3009 
        1.19037         5.96742         4.23804          7.1744 
        1.20276         5.82958         4.13663         7.03862 
        1.21504           5.725         4.03935         6.93268 
        1.22728         5.58332         3.94561         6.79683 
        1.23954         5.49248         3.85464          6.7042 
        1.25184         5.37127         3.76637         6.57828 
        1.26414         5.30154         3.68083          6.4566 
        1.27632         5.13935         3.59873         6.36564 
         1.2886         5.07729         3.51856          6.2583 
        1.30093         4.96689         3.44055         6.17368 
        1.31316         4.83816         3.36549         6.06337 
        1.32541         4.77098         3.29266         5.98118 
        1.33772         4.68246         3.22158         5.87445 
        1.35005          4.6068         3.15256         5.79087 
        1.36225         4.51469         3.08627         5.69172 
        1.37447         4.42817         3.02177         5.62011 
        1.38676         4.33742         2.95882         5.53142 
        1.39907         4.25158         2.89756         5.45623 
        1.41133         4.18745          2.8383         5.37331 
        1.42358         4.11278         2.78077         5.29017 
        1.43591         4.05575         2.72443         5.22933 
        1.44818         3.95143         2.66997          5.1515 
        1.46037         3.87717         2.61733         5.07575 
        1.47263         3.82121         2.56581         5.00991 
        1.48494         3.76881         2.51549         4.93934 
        1.49724         3.69446         2.46656         4.87028 
        1.50952         3.67471         2.41903         4.80718 
        1.52178         3.58028         2.37283          4.7469 
        1.53409         3.50731         2.32765          4.6731 
        1.54637         3.46105         2.28375         4.61562 
        1.55858         3.40756         2.24122         4.54662 
        1.57081         3.34343         2.19973         4.50385 
        1.58313         3.28718         2.15902         4.44134 
        1.59544          3.2362         2.11937         4.39097 
        1.60767         3.19606         2.08097         4.33119 
        1.61994         3.13174          2.0434         4.28343 
        1.63225         3.08024         2.00667         4.22921 
        1.64452         3.03075         1.97095         4.17433 
        1.65676         2.97841         1.93621         4.12689 
          1.669          2.9467         1.90228         4.07785 
        1.68133         2.87095         1.86895         4.03259 
        1.69363         2.86454         1.83652         3.98636 
        1.70585         2.81627         1.80507         3.93647 
        1.71809         2.78198         1.77429         3.89432 
        1.73038         2.73269         1.74413         3.84669 
        1.74268         2.68328         1.71466         3.80543 
        1.75493         2.65243           1.686         3.76341 
        1.76714         2.62198         1.65807         3.71606 
        1.77942         2.57895         1.63064          3.6793 
        1.79173         2.54445         1.60375         3.63472 
        1.80402         2.50621         1.57753         3.59765 
         1.8163         2.48491         1.55191         3.56133 
         1.8286         2.43678         1.52681         3.52815 
         1.8409         2.39989         1.50229         3.49005 
        1.85315          2.3739         1.47839          3.4442 
        1.86537         2.34433         1.45506         3.41645 
        1.87765         2.30972         1.43215         3.38007 
        1.88995         2.27374         1.40968         3.34633 
        1.90221          2.2444         1.38776         3.31051 
        1.91445         2.22045         1.36635         3.28402 
        1.92674         2.19843         1.34532         3.24364 
        1.93902         2.15693         1.32473         3.20785 
        1.95124         2.12722         1.30468         3.18242 
         1.9635         2.11185         1.28499         3.14919 
        1.97583         2.07129         1.26559         3.11941 
        1.98812         2.04746         1.24666         3.09038 
        2.00039         2.02256         1.22815         3.05832 
        2.01264         1.99121         1.21004         3.03635 
        2.02492         1.97289         1.19227         3.00678 
        2.03717         1.95166         1.17489         2.97572 
        2.04942         1.92354         1.15787         2.94682 
        2.06171          1.8966         1.14113         2.91858 
        2.07397         1.87686         1.12477           2.894 
        2.08629         1.85867         1.10865         2.87125 
        2.09857          1.8346         1.09289         2.84323 
        2.11081         1.81074          1.0775         2.81677 
        2.12309         1.79482         1.06237         2.79493 
        2.13538         1.76696         1.04751         2.76903 
        2.14763          1.7582         1.03298         2.74408 
        2.15986          1.7351         1.01876         2.72334 
        2.17214         1.70414         1.00476         2.69392 
        2.18443         1.69511        0.990998         2.67385 
        2.19671         1.67488        0.977515          2.6519 
        2.20898         1.65455        0.964299          2.6304 
        2.22126         1.63788        0.951313         2.60871 
        2.23354         1.61884        0.938571         2.58626 
         2.2458         1.60802        0.926084         2.56227 
        2.25807         1.58277        0.913813         2.54227 
        2.27035         1.56636        0.901755         2.52365 
        2.28263         1.54458         0.88992         2.50337 
         2.2949         1.53715        0.878303          2.4833 
        2.30718         1.51931         0.86689         2.46442 
        2.31946         1.49792        0.855674         2.44431 
        2.33169          1.4869        0.844706         2.42526 
        2.34393          1.4788        0.833913         2.40706 
        2.35622         1.45698        0.823274         2.38825 
        2.36847         1.44443         0.81285         2.36852 
        2.38076          1.4247        0.802576         2.35008 
        2.39305         1.41273        0.792482         2.33036 
        2.40534         1.40078        0.782561         2.31552 
        2.41762         1.38347        0.772812         2.29791 
        2.42989         1.37223        0.763243         2.28191 
        2.44216         1.36183        0.753837         2.26402 
         2.4544         1.35057        0.744612         2.24897 
        2.46667         1.33313        0.735519         2.23206 
        2.47897         1.32325        0.726557          2.2138 
        2.49124         1.30769        0.717769         2.19912 
        2.50349         1.29768        0.709139         2.18201 
        2.51578         1.28582        0.700625         2.16454 
        2.52805         1.27054        0.692267         2.15075 
        2.54029         1.26432        0.684065         2.13525 
        2.55257         1.24898        0.675971         2.12004 
        2.56487         1.23833        0.667993         2.10636 
        2.57716         1.23282        0.660155         2.09052 
        2.58942         1.22305         0.65246          2.0766 
        2.60167         1.21225        0.644896         2.06177 
        2.61395         1.19763         0.63744         2.04912 
        2.62624         1.19092        0.630091         2.03453 
        2.63849         1.18161        0.622882         2.02018 
        2.65073         1.17176        0.615793         2.00651 
        2.66302         1.16224         0.60879         1.99309 
         2.6753         1.15994        0.601899         1.98032 
        2.68756         1.14651         0.59513         1.96799 
        2.69983         1.13811        0.588459         1.95443 
        2.71213         1.12795        0.581877         1.94204 
        2.72441         1.12076        0.575408         1.92914 
        2.73665         1.11353        0.569052         1.91826 
         2.7489         1.10604        0.562796         1.90691 
        2.76118          1.0972        0.556615         1.89254 
        2.77349         1.09377        0.550512         1.88087 
        2.78576         1.08806        0.544525         1.86919 
        2.79802         1.08118        0.538629          1.8565 
        2.81031          1.0716        0.532808         1.84556 
        2.82259          1.0646        0.527074         1.83325 
        2.83483         1.06149        0.521447         1.82254 
         2.8471         1.05553        0.515891         1.81097 
         2.8594         1.04963        0.510399         1.80012 
         2.8717         1.04569        0.504989         1.79016 
        2.88396         1.03802        0.499677         1.77904 
        2.89619         1.03358        0.494452         1.76781 
        2.90847         1.02809        0.489281         1.75723 
        2.92072         1.02597        0.484193         1.74717 
        2.93299         1.02189        0.479175         1.73614 
        2.94526         1.01979        0.474224         1.72621 
        2.95753         1.01483        0.469344         1.71644 
        2.96982         1.01112        0.464524         1.70593 
        2.98209         1.00899        0.459782         1.69621 
        2.99436         1.00639        0.455102         1.68641 
        3.00666         1.00579        0.450479         1.67648 
        3.01894         1.00206         0.44593         1.66729 
        3.03119         1.00011        0.441449         1.65754 
        3.04345        0.996858        0.437031         1.64823 
        3.05573        0.995689        0.432663         1.63973 
          3.068        0.994373         0.42836         1.63044 
        3.08026        0.992907         0.42412         1.62087 
        3.09254         0.99488         0.41993          1.6117 
        3.10483        0.995394        0.415795         1.60321 
         3.1171        0.995993        0.411721         1.59453 
        3.12933        0.995557        0.407714         1.58536 
        3.14159        0.994895        0.403751         1.57674 
