# k  (h/Mpc)    Pcb(k)  (Mpc/h)^3    Pcb_linear(k) (Mpc/h)^3    Pcb_NL(k) (Mpc/h)^3   ShotnoiseSubtracted = false
      0.0156606         1617.28         1618.09          1610.4 
      0.0273761         1407.34         1400.42         1397.12 
      0.0384619         1069.28         1055.53          1054.9 
      0.0498308          839.65         830.443         830.462 
      0.0625568         708.512         705.881         705.178 
      0.0751274          610.29         599.776         598.227 
      0.0867833         485.983         482.913         482.759 
      0.0984825         391.889         382.178         383.264 
       0.111151         327.781         319.121         320.145 
       0.123864         294.365         287.599         288.263 
       0.135742         264.236         258.627         259.239 
        0.14762         224.468         221.141         222.727 
       0.160083         186.562         184.336         186.195 
       0.172465         163.868         160.891         163.096 
       0.184281         151.822         148.323          150.64 
       0.196406         138.633         136.977         138.717 
       0.209011         124.463         121.875         123.885 
       0.221538         110.066         106.508         109.346 
       0.233611          98.833         95.2969          98.444 
       0.245665         92.5672         87.9556         90.7418 
       0.258103         83.5386         81.8793         84.6463 
       0.270422         78.2996         75.2377         77.9041 
       0.282519         71.0138         68.2826         71.1611 
       0.294636         66.8493         62.2131         65.2479 
       0.306978         59.5067         57.5576         60.6844 
       0.319417         56.5936         53.8131         56.8432 
        0.33169          52.594         50.2288         53.1532 
       0.343948         49.6397           46.54         49.4786 
       0.356249         45.4348         43.0805         46.3691 
       0.368458         43.1141         40.1828          43.156 
        0.38068         40.2671         37.7596         40.7141 
       0.392856         37.7618         35.5476         38.5303 
       0.405069         35.6733         33.3846         36.2397 
       0.417459         33.1069         31.2903         34.2256 
       0.429752         31.6014         29.4103         32.3256 
       0.441978         30.0329         27.7602         30.8115 
       0.454294         27.9989         26.2618         29.1501 
        0.46658         27.4508         24.8559          27.706 
       0.478753         25.5913         23.5296          26.379 
       0.490964         24.6281         22.2838         25.2317 
       0.503334         23.5256         21.1338         23.9506 
       0.515665         22.2043         20.0852         23.0283 
       0.527909         21.2565         19.1172          21.837 
       0.540159         20.2404         18.2014         20.9026 
        0.55248         18.9419         17.3324         19.9582 
       0.564743         18.6346         16.5278         19.2539 
        0.57686         17.9102         15.7883         18.4498 
       0.589077         16.8277         15.0902         17.7985 
       0.601441          16.164         14.4264         17.0922 
        0.61382         15.5461         13.8005         16.3782 
       0.626067         14.9005         13.2165         15.7935 
       0.638306         14.3627         12.6665          15.184 
       0.650632         13.9727         12.1454         14.6781 
       0.662899         13.2956         11.6571         14.1236 
       0.675076         12.6563         11.1995         13.6355 
       0.687267         12.3515         10.7659         13.1351 
       0.699615         11.9651         10.3498          12.707 
       0.711937           11.34         9.95643         12.3057 
       0.724148         11.2151         9.58686         11.9196 
       0.736433         10.5864         9.23423         11.5039 
       0.748747         10.3102         8.89881         11.1805 
       0.761037         10.0487         8.58086         10.8335 
       0.773197         9.60902         8.28174         10.5324 
       0.785376         9.28046         7.99653         10.2088 
       0.797761         9.01022         7.72035         9.88802 
       0.810096         8.76478          7.4583         9.64937 
       0.822371         8.53868         7.20969         9.33598 
       0.834626          8.2478         6.97288         9.08602 
       0.846916         7.95862         6.74613         8.84543 
       0.859215         7.65768          6.5294         8.61765 
       0.871383         7.46186         6.32439         8.39855 
        0.88363         7.27165         6.12701         8.16998 
       0.895928          7.1121         5.93735         7.94622 
       0.908253         6.89695          5.7554         7.75054 
       0.920535         6.66199         5.58172         7.54419 
       0.932774         6.52397         5.41585         7.32909 
        0.94508         6.31195         5.25592         7.17819 
       0.957324         6.16088         5.10326          7.0248 
        0.96953         5.94555         4.95715         6.85066 
       0.981769         5.82067         4.81643         6.67109 
       0.994071         5.70075         4.68053          6.5318 
         1.0064         5.50177         4.54966         6.38279 
        1.01868         5.36078          4.4242         6.23452 
        1.03092         5.26162         4.30405         6.08562 
         1.0432         5.06571         4.18795         5.95616 
        1.05553         4.97073          4.0757         5.83917 
        1.06777         4.81758          3.9684         5.71728 
           1.08         4.73622         3.86509         5.58834 
        1.09227         4.60416         3.76513          5.4664 
         1.1046         4.49706         3.66835         5.35229 
         1.1169         4.35267         3.57516         5.24538 
        1.12915          4.3161         3.48568         5.15315 
        1.14142         4.16736         3.39909         5.03377 
        1.15365         4.08272         3.31571          4.9418 
        1.16585         4.01548         3.23535         4.85234 
        1.17807         3.92434         3.15757         4.74716 
        1.19037         3.79784         3.08185          4.6562 
        1.20276         3.71978         3.00811         4.56106 
        1.21504          3.6402         2.93737         4.49052 
        1.22728          3.5562          2.8692         4.39444 
        1.23954         3.49427         2.80305         4.33335 
        1.25184         3.41131         2.73886         4.24157 
        1.26414         3.35727         2.67666          4.1586 
        1.27632         3.25047         2.61695         4.10003 
         1.2886         3.21214         2.55865         4.02167 
        1.30093         3.12552         2.50193          3.9612 
        1.31316         3.03969         2.44734         3.88656 
        1.32541         3.00122         2.39438         3.82877 
        1.33772         2.94805         2.34269         3.75887 
        1.35005          2.8884          2.2925         3.69936 
        1.36225         2.82906          2.2443         3.63249 
        1.37447         2.76888         2.19739         3.58331 
        1.38676         2.70923         2.15162         3.51761 
        1.39907         2.64791         2.10707         3.46988 
        1.41133         2.60291         2.06398         3.41393 
        1.42358         2.56571         2.02214         3.35312 
        1.43591         2.52015         1.98117         3.31643 
        1.44818          2.4564         1.94157         3.26209 
        1.46037         2.40363         1.90329         3.20798 
        1.47263          2.3602         1.86583         3.16373 
        1.48494         2.32572         1.82923         3.11646 
        1.49724         2.27547         1.79365         3.06818 
        1.50952         2.26081         1.75909         3.02388 
        1.52178         2.19966         1.72549         2.98546 
        1.53409          2.1557         1.69264          2.9343 
        1.54637         2.11715         1.66071         2.89355 
        1.55858         2.08372         1.62979         2.84832 
        1.57081         2.04772         1.59961         2.81523 
        1.58313          2.0055         1.57001         2.77709 
        1.59544         1.97549         1.54118         2.74033 
        1.60767         1.94674         1.51326         2.70161 
        1.61994         1.90327         1.48593         2.66734 
        1.63225         1.87861         1.45922         2.63232 
        1.64452         1.84603         1.43325         2.59473 
        1.65676         1.80636         1.40799         2.56244 
          1.669         1.78365         1.38332         2.52735 
        1.68133         1.74159         1.35908         2.49948 
        1.69363         1.73332          1.3355         2.46602 
        1.70585         1.70243         1.31262         2.43444 
        1.71809         1.67708         1.29024         2.40367 
        1.73038         1.64283         1.26831         2.37316 
        1.74268         1.61317         1.24688         2.34433 
        1.75493         1.59601         1.22604         2.31794 
        1.76714         1.57034         1.20573         2.28448 
        1.77942         1.54214         1.18578         2.25985 
        1.79173         1.52004         1.16623         2.23118 
        1.80402         1.49682         1.14716         2.20539 
         1.8163         1.47658         1.12853         2.17925 
         1.8286         1.44629         1.11028         2.15875 
         1.8409         1.43452         1.09245         2.13278 
        1.85315         1.41285         1.07507         2.10337 
        1.86537         1.38763          1.0581         2.08354 
        1.87765         1.37092         1.04144         2.06029 
        1.88995         1.34842          1.0251         2.03631 
        1.90221         1.32969         1.00916         2.01283 
        1.91445         1.30864        0.993594         1.99379 
        1.92674         1.29221        0.978299          1.9685 
        1.93902         1.26864        0.963326         1.94541 
        1.95124         1.25125        0.948746         1.92695 
         1.9635         1.23503         0.93443          1.9046 
        1.97583          1.2137         0.92032         1.88362 
        1.98812         1.19931        0.906555         1.86614 
        2.00039         1.18067        0.893099         1.84476 
        2.01264         1.16201        0.879929         1.82828 
        2.02492         1.15199        0.867005         1.81027 
        2.03717         1.14167        0.854363         1.79036 
        2.04942         1.11806         0.84199         1.76992 
        2.06171         1.10336        0.829819         1.75181 
        2.07397         1.08888        0.817916         1.73616 
        2.08629         1.07731        0.806197         1.71999 
        2.09857         1.06036        0.794736         1.70259 
        2.11081          1.0466        0.783545         1.68459 
        2.12309         1.03516        0.772542         1.67037 
        2.13538         1.02201        0.761735         1.65198 
        2.14763          1.0127        0.751171         1.63649 
        2.15986        0.998804        0.740832         1.62288 
        2.17214        0.978424        0.730646         1.60342 
        2.18443        0.970046        0.720642         1.59131 
        2.19671        0.960267        0.710837         1.57647 
        2.20898        0.946164        0.701226         1.56157 
        2.22126        0.933774        0.691783         1.54723 
        2.23354        0.921619        0.682517         1.53266 
         2.2458        0.913286        0.673437         1.51775 
        2.25807        0.899288        0.664514         1.50354 
        2.27035        0.891896        0.655745         1.49114 
        2.28263        0.875868        0.647139         1.47861 
         2.2949        0.868051        0.638691         1.46486 
        2.30718        0.859707        0.630392         1.45256 
        2.31946        0.846619        0.622236         1.43962 
        2.33169        0.836904         0.61426         1.42731 
        2.34393        0.833133        0.606411           1.415 
        2.35622        0.817903        0.598675         1.40271 
        2.36847        0.811764        0.591095         1.39061 
        2.38076        0.797741        0.583623         1.37854 
        2.39305        0.794009        0.576283         1.36662 
        2.40534        0.782602        0.569069         1.35559 
        2.41762        0.774733        0.561979         1.34334 
        2.42989        0.764825        0.555021         1.33398 
        2.44216        0.759383        0.548181          1.3225 
         2.4544        0.752077        0.541473         1.31182 
        2.46667        0.742443        0.534861         1.30097 
        2.47897        0.734702        0.528343         1.29001 
        2.49124        0.724154        0.521953          1.2796 
        2.50349        0.718768        0.515677         1.26894 
        2.51578        0.711837        0.509486         1.25817 
        2.52805        0.702676        0.503408          1.2489 
        2.54029        0.697062        0.497443         1.23882 
        2.55257         0.68873        0.491558         1.22954 
        2.56487        0.681256        0.485756         1.22052 
        2.57716        0.676815        0.480057         1.21003 
        2.58942        0.672053        0.474461         1.20162 
        2.60167        0.665484         0.46896         1.19199 
        2.61395        0.657572        0.463538         1.18286 
        2.62624        0.652336        0.458195         1.17453 
        2.63849        0.644699        0.452952         1.16522 
        2.65073        0.638959        0.447797          1.1563 
        2.66302        0.634564        0.442704         1.14724 
         2.6753        0.630586        0.437694         1.13929 
        2.68756        0.623548        0.432771         1.13171 
        2.69983        0.618185         0.42792         1.12319 
        2.71213        0.610353        0.423134         1.11512 
        2.72441        0.608085        0.418429          1.1068 
        2.73665        0.603981        0.413808         1.09979 
         2.7489        0.598301        0.409258         1.09234 
        2.76118        0.593291        0.404764         1.08315 
        2.77349        0.589745        0.400325         1.07599 
        2.78576        0.586694        0.395972         1.06826 
        2.79802        0.580842        0.391684         1.06025 
        2.81031        0.577143        0.387451         1.05404 
        2.82259         0.57327        0.383282          1.0457 
        2.83483        0.569843         0.37919         1.03876 
         2.8471        0.565227        0.375149         1.03136 
         2.8594        0.562942        0.371156         1.02467 
         2.8717        0.557882        0.367222         1.01841 
        2.88396        0.554286        0.363359         1.01125 
        2.89619        0.551823        0.359559         1.00448 
        2.90847        0.548618        0.355799        0.998008 
        2.92072         0.54765        0.352099        0.991273 
        2.93299        0.541492         0.34845        0.984148 
        2.94526        0.541159         0.34485        0.977991 
        2.95753        0.539175        0.341301        0.971939 
        2.96982        0.536719        0.337796        0.965172 
        2.98209        0.534764        0.334348        0.958819 
        2.99436        0.531926        0.330944        0.952797 
        3.00666        0.531359        0.327583        0.946884 
        3.01894         0.53035        0.324275        0.941246 
        3.03119        0.527121        0.321017        0.934773 
        3.04345        0.525153        0.317803        0.928837 
        3.05573        0.525048        0.314627        0.923836 
          3.068         0.52343        0.311498        0.918062 
        3.08026        0.523684        0.308415         0.91191 
        3.09254        0.522011        0.305368        0.905842 
        3.10483        0.520391        0.302361        0.900567 
         3.1171        0.521603        0.299399        0.895515 
        3.12933        0.521073        0.296484        0.889934 
        3.14159        0.521241        0.293603        0.884477 
