# k  (h/Mpc)    Pcb(k)  (Mpc/h)^3    Pcb_linear(k) (Mpc/h)^3    Pcb_NL(k) (Mpc/h)^3   ShotnoiseSubtracted = false
      0.0156606         8727.32         8747.25         8696.37 
      0.0273761         7540.39         7565.65          7525.9 
      0.0384619         5725.26         5700.79         5673.17 
      0.0498308         4459.31         4484.46         4459.32 
      0.0625568         3763.45         3811.46         3786.88 
      0.0751274         3304.35         3238.36         3201.52 
      0.0867833         2590.32         2607.29         2598.55 
      0.0984825         2137.37         2063.37         2079.35 
       0.111151         1804.09         1722.89         1739.63 
       0.123864         1620.33         1552.69         1566.76 
       0.135742         1463.15         1396.26         1410.75 
        0.14762         1253.74         1193.88         1229.65 
       0.160083         1043.56         995.168         1036.47 
       0.172465         928.051         868.594         919.791 
       0.184281         856.611         800.742         854.375 
       0.196406         785.035         739.484         783.235 
       0.209011         718.777         657.953         705.397 
       0.221538         646.459          574.99         641.192 
       0.233611         596.047         514.467         588.701 
       0.245665         554.998         474.834         541.508 
       0.258103           515.9          442.03         508.344 
       0.270422          474.94         406.175         472.041 
       0.282519         434.871         368.627         437.782 
       0.294636         428.664          335.86         408.659 
       0.306978         380.011         310.727         386.406 
       0.319417         364.834         290.512         363.135 
        0.33169         342.073         271.162         341.254 
       0.343948         326.334         251.247         325.016 
       0.356249         304.305         232.571         309.564 
       0.368458         294.236         216.928         291.065 
        0.38068           280.1         203.846         277.097 
       0.392856         261.793         191.904          265.12 
       0.405069         250.867         180.227         254.404 
       0.417459         239.216         168.921         240.782 
       0.429752         230.437         158.772         231.198 
       0.441978         222.301         149.864         223.474 
       0.454294         207.369         141.775         212.553 
        0.46658         207.355         134.185         205.709 
       0.478753         196.069         127.025         198.136 
       0.490964         189.928         120.299         190.714 
       0.503334         179.971         114.091         184.563 
       0.515665         176.247          108.43         179.878 
       0.527909          170.92         103.204         172.481 
       0.540159         165.378         98.2604         167.443 
        0.55248         160.899         93.5691         161.856 
       0.564743          156.17         89.2252         157.773 
        0.57686         151.095         85.2329         152.609 
       0.589077         144.581         81.4642         149.032 
       0.601441         141.644         77.8806         145.125 
        0.61382         139.694         74.5019         140.867 
       0.626067         134.652         71.3489         137.295 
       0.638306         129.476         68.3799         134.085 
       0.650632         125.087         65.5669         129.443 
       0.662899         125.067         62.9308         126.668 
       0.675076         120.603         60.4603         123.636 
       0.687267         117.703         58.1194         120.763 
       0.699615         114.459         55.8731         118.284 
       0.711937         111.218         53.7497         115.189 
       0.724148         109.971         51.7546         113.573 
       0.736433         106.127         49.8509          110.61 
       0.748747         103.934         48.0402         108.222 
       0.761037         101.902         46.3237         105.696 
       0.773197         99.6677         44.7089         104.479 
       0.785376         97.6709         43.1692         101.853 
       0.797761          96.473         41.6782         100.363 
       0.810096         93.1754         40.2636         98.1338 
       0.822371         91.2386         38.9215         96.3193 
       0.834626         89.3198          37.643         94.6755 
       0.846916         88.2512         36.4189         93.0578 
       0.859215         86.4941         35.2489         91.2285 
       0.871383         85.2607         34.1422         89.6993 
        0.88363         82.9849         33.0766         88.4885 
       0.895928         81.3906         32.0527         87.0419 
       0.908253         79.3188         31.0704         85.4977 
       0.920535         78.9473         30.1329         84.2416 
       0.932774         77.1942         29.2374         82.7588 
        0.94508          76.253          28.374         81.3814 
       0.957324         74.4832         27.5499         80.3309 
        0.96953          74.557         26.7611         78.9139 
       0.981769         72.0506         26.0014         78.0428 
       0.994071         71.2801         25.2678           76.89 
         1.0064         69.7079         24.5613         75.7422 
        1.01868         68.8888          23.884         74.7508 
        1.03092         67.6302         23.2354         73.6866 
         1.0432         66.4792         22.6086         72.5762 
        1.05553          64.762         22.0026         71.9698 
        1.06777         64.4854         21.4234         70.9379 
           1.08         63.0785         20.8656         69.9529 
        1.09227         62.1839          20.326         68.9377 
         1.1046         61.2182         19.8036         68.0808 
         1.1169         60.5222         19.3005         67.0944 
        1.12915          59.632         18.8174         66.4108 
        1.14142         58.4802         18.3499         65.5923 
        1.15365         57.4948         17.8998          64.842 
        1.16585         56.6858          17.466         63.9525 
        1.17807         55.8032         17.0461         63.2035 
        1.19037           55.69         16.6373         62.6027 
        1.20276         54.6068         16.2392         61.8627 
        1.21504         54.0953         15.8573         61.1372 
        1.22728         52.9586         15.4893         60.4765 
        1.23954         52.3746         15.1322         59.6699 
        1.25184         51.5162         14.7857         59.1502 
        1.26414         50.7009         14.4499          58.415 
        1.27632         50.2862         14.1276         57.8548 
         1.2886         49.7504         13.8128         57.1918 
        1.30093         49.0115         13.5066         56.4569 
        1.31316         48.2474         13.2119         56.0586 
        1.32541         47.9576          12.926         55.4141 
        1.33772         47.0724          12.647         54.8352 
        1.35005         46.5851          12.376         54.3129 
        1.36225         45.7819         12.1158         53.7708 
        1.37447         44.7043         11.8626          53.199 
        1.38676         44.8792         11.6155         52.7013 
        1.39907         44.1642          11.375         52.2548 
        1.41133          43.254         11.1424         51.7704 
        1.42358         42.7745         10.9165         51.1854 
        1.43591          42.392         10.6953          50.768 
        1.44818         41.8762         10.4815         50.1642 
        1.46037         41.3302         10.2749         49.7696 
        1.47263         41.0034         10.0726         49.3695 
        1.48494         40.1944         9.87509         48.8429 
        1.49724         39.9487           9.683          48.396 
        1.50952         39.5241         9.49643         47.9772 
        1.52178         38.9101         9.31505         47.5658 
        1.53409         38.5985          9.1377         47.1423 
        1.54637         37.9659         8.96533         46.6816 
        1.55858         37.1795          8.7984         46.2547 
        1.57081         37.2053         8.63549         45.9284 
        1.58313         36.7719          8.4757          45.521 
        1.59544         36.1212         8.32005         45.1056 
        1.60767         35.6685         8.16931         44.6893 
        1.61994         35.2287         8.02178           44.33 
        1.63225         35.0032          7.8776         43.9632 
        1.64452          34.584         7.73737         43.6164 
        1.65676         34.1428         7.60099         43.2229 
          1.669         33.8286         7.46781         42.9263 
        1.68133         33.5011         7.33697         42.5156 
        1.69363         32.9345         7.20966         42.1551 
        1.70585         32.7188         7.08618          41.905 
        1.71809         32.1502         6.96536         41.4571 
        1.73038         31.9742         6.84696         41.2121 
        1.74268         31.4899         6.73126         40.7944 
        1.75493          31.172         6.61876         40.5068 
        1.76714         30.8845         6.50912         40.2152 
        1.77942         30.5675         6.40141         39.8882 
        1.79173         30.1507         6.29586         39.5606 
        1.80402         29.8118         6.19292         39.3471 
         1.8163         29.6015         6.09234         38.8917 
         1.8286         29.1033         5.99382         38.6674 
         1.8409         28.8513         5.89756         38.3494 
        1.85315         28.5276         5.80374          38.106 
        1.86537         28.1578         5.71216         37.8193 
        1.87765         28.0199         5.62221         37.5159 
        1.88995         27.5897         5.53398         37.1717 
        1.90221         27.3269         5.44795         36.9078 
        1.91445         26.9314          5.3639         36.6599 
        1.92674         26.6929         5.28133         36.3681 
        1.93902         26.3943          5.2005         36.1257 
        1.95124         25.9493         5.12179         35.9072 
         1.9635         25.7937         5.04451          35.602 
        1.97583         25.5209         4.96833         35.3709 
        1.98812         25.2895         4.89402         35.1091 
        2.00039         24.9823         4.82138         34.8488 
        2.01264         24.6839         4.75028         34.6227 
        2.02492         24.5044         4.68051         34.3434 
        2.03717         24.1284         4.61227         34.1071 
        2.04942         23.9207         4.54547         33.8445 
        2.06171         23.7369         4.47977         33.6306 
        2.07397         23.4764         4.41551         33.3604 
        2.08629         23.2286         4.35224         33.1211 
        2.09857         22.9611         4.29037         32.9089 
        2.11081         22.7027         4.22995          32.671 
        2.12309         22.5369         4.17056         32.4392 
        2.13538         22.1865         4.11222         32.2401 
        2.14763         22.0604         4.05519         32.0047 
        2.15986         21.7904         3.99937         31.7771 
        2.17214         21.5767         3.94438         31.5795 
        2.18443         21.3629         3.89037         31.3295 
        2.19671         21.0958         3.83744         31.1187 
        2.20898         20.9084         3.78556         30.8956 
        2.22126         20.7866         3.73458         30.6982 
        2.23354         20.5807         3.68456          30.511 
         2.2458         20.3886         3.63554          30.312 
        2.25807         20.0848         3.58737         30.0689 
        2.27035          19.892         3.54003          29.891 
        2.28263         19.7407         3.49357         29.6964 
         2.2949         19.5632         3.44796         29.5025 
        2.30718         19.3741         3.40316          29.295 
        2.31946         19.2413         3.35913         29.0975 
        2.33169         19.0016         3.31607         28.9068 
        2.34393         18.8236          3.2737         28.7313 
        2.35622         18.6371         3.23193         28.5464 
        2.36847         18.4268         3.19101         28.3368 
        2.38076         18.2742         3.15068         28.1819 
        2.39305         18.1144         3.11105         28.0008 
        2.40534         17.9265         3.07211         27.7785 
        2.41762         17.7426         3.03383          27.648 
        2.42989          17.627         2.99627         27.4267 
        2.44216         17.3912         2.95935         27.2735 
         2.4544         17.3787         2.92313          27.083 
        2.46667         17.1443         2.88744         26.9197 
        2.47897         16.9327         2.85225         26.7359 
        2.49124         16.8641         2.81775         26.5676 
        2.50349         16.6356         2.78388         26.3903 
        2.51578         16.5344         2.75045         26.2492 
        2.52805         16.3693         2.71764         26.0724 
        2.54029         16.2384         2.68544         25.9072 
        2.55257         16.1294         2.65367          25.738 
        2.56487         15.9348         2.62235         25.5869 
        2.57716         15.8297         2.59158         25.4049 
        2.58942         15.7376         2.56137         25.2715 
        2.60167         15.5078         2.53167         25.1088 
        2.61395         15.4448          2.5024         24.9514 
        2.62624         15.3534         2.47356          24.788 
        2.63849         15.1792         2.44526         24.6598 
        2.65073         15.0472         2.41743         24.4918 
        2.66302         14.9509         2.38993          24.355 
         2.6753         14.8874         2.36288         24.1961 
        2.68756         14.7383         2.33631         24.0587 
        2.69983         14.6054         2.31012         23.8966 
        2.71213         14.4756         2.28428         23.7403 
        2.72441         14.3896         2.25888         23.6037 
        2.73665         14.2792         2.23393         23.4629 
         2.7489         14.2357         2.20937         23.3193 
        2.76118         14.0839         2.18511          23.181 
        2.77349         14.0019         2.16115          23.044 
        2.78576         13.8971         2.13765         22.9149 
        2.79802         13.8308          2.1145         22.7645 
        2.81031          13.734         2.09165         22.6233 
        2.82259         13.5966         2.06914         22.5037 
        2.83483         13.5929         2.04705         22.3689 
         2.8471         13.5151         2.02524         22.2215 
         2.8594         13.4016         2.00368         22.0832 
         2.8717         13.3464         1.98244         21.9622 
        2.88396         13.2627         1.96159         21.8295 
        2.89619         13.2327         1.94107         21.6981 
        2.90847         13.1335         1.92078         21.5857 
        2.92072         13.0921          1.9008         21.4341 
        2.93299          12.987          1.8811         21.3252 
        2.94526         12.9419         1.86166         21.2092 
        2.95753         12.9143         1.84251          21.074 
        2.96982         12.8424         1.82359         20.9523 
        2.98209         12.8068         1.80497         20.8337 
        2.99436         12.7566          1.7866         20.7043 
        3.00666         12.7376         1.76845         20.5821 
        3.01894         12.6822         1.75059         20.4783 
        3.03119         12.6658           1.733         20.3573 
        3.04345         12.5882         1.71566         20.2281 
        3.05573         12.5868         1.69851         20.1146 
          3.068         12.5392         1.68162          20.006 
        3.08026         12.5361         1.66497         19.8776 
        3.09254         12.4811         1.64852          19.771 
        3.10483          12.499         1.63229         19.6683 
         3.1171         12.5294          1.6163         19.5525 
        3.12933         12.4882         1.60057         19.4394 
        3.14159          12.442         1.58501         19.3219 
