# k  (h/Mpc)    P(k)  (Mpc/h)^3    P_linear(k)  (Mpc/h)^3     P_NL(k)  ShotnoiseSubtracted = false
      0.0156606         7727.71         7632.65         7589.38 
      0.0273761         6671.55         6591.69         6559.81 
      0.0384619         5062.72         4963.29         4942.22 
      0.0498308         3944.88         3902.66         3883.93 
      0.0625568         3328.04         3316.02         3297.31 
      0.0751274         2916.53         2816.93         2788.49 
      0.0867833         2289.29         2267.74         2261.33 
      0.0984825          1884.4         1794.51         1807.56 
       0.111151         1588.64         1498.31         1511.81 
       0.123864         1426.93         1350.23         1361.58 
       0.135742         1287.53         1214.16         1225.84 
        0.14762         1101.56         1038.15         1066.62 
       0.160083         916.054         865.341         898.042 
       0.172465         813.964         755.267         795.642 
       0.184281         752.143         696.259         738.713 
       0.196406         688.277         642.988         677.308 
       0.209011         628.825          572.09         609.536 
       0.221538         564.885         499.949         552.261 
       0.233611         518.915         447.322         505.924 
       0.245665         484.395         412.859         465.389 
       0.258103         447.477         384.335         436.606 
       0.270422         413.637         353.158          404.95 
       0.282519         377.933         320.509         374.921 
       0.294636         371.468         292.019         349.342 
       0.306978         328.759         270.166         329.756 
       0.319417         315.307         252.589         309.812 
        0.33169         295.214         235.764         290.999 
       0.343948         281.719         218.449           276.4 
       0.356249         262.206          202.21         262.937 
       0.368458         253.149         188.609         246.876 
        0.38068         240.521         177.236         234.799 
       0.392856         224.574         166.852         224.469 
       0.405069         214.859         156.699         214.846 
       0.417459         204.662         146.869         203.295 
       0.429752         196.993         138.045         194.958 
       0.441978         189.719         130.299          188.25 
       0.454294          176.76         123.266         178.868 
        0.46658         176.946         116.667         172.806 
       0.478753         166.632         110.441         166.351 
       0.490964         161.495         104.593         160.004 
       0.503334         153.411         99.1962         154.595 
       0.515665         149.601         94.2744          150.54 
       0.527909         144.939         89.7307         143.972 
       0.540159         140.093         85.4317         139.714 
        0.55248         135.621         81.3528         134.892 
       0.564743         131.727         77.5763         131.308 
        0.57686         127.544         74.1051         126.968 
       0.589077         121.865         70.8285         123.851 
       0.601441          119.21         67.7127         120.483 
        0.61382         117.204         64.7751          116.76 
       0.626067          112.66         62.0338         113.755 
       0.638306         108.697         59.4524         110.905 
       0.650632         104.853         57.0065         107.004 
       0.662899         104.562         54.7146         104.549 
       0.675076         100.797         52.5667         101.991 
       0.687267         98.5455         50.5314          99.515 
       0.699615         95.5507         48.5784         97.4777 
       0.711937         92.6748         46.7321         94.6906 
       0.724148         91.8147         44.9975         93.3548 
       0.736433         88.1381         43.3423         90.8187 
       0.748747         86.4885          41.768         88.8022 
       0.761037         84.5798         40.2756         86.6923 
       0.773197         82.7342         38.8716         85.6116 
       0.785376         80.7806          37.533         83.4143 
       0.797761          79.973         36.2367         82.0975 
       0.810096         77.1853         35.0067         80.2226 
       0.822371         75.7194         33.8398         78.6438 
       0.834626          73.985         32.7283         77.3217 
       0.846916         72.8967          31.664         75.9121 
       0.859215         71.3009         30.6467         74.3516 
       0.871383         70.3429         29.6845         73.0991 
        0.88363         68.4047          28.758         72.0625 
       0.895928         67.0045         27.8678         70.7693 
       0.908253         65.3725         27.0138         69.5599 
       0.920535         65.0261         26.1986         68.4365 
       0.932774         63.6874         25.4201         67.2579 
        0.94508         62.8071         24.6694         66.0389 
       0.957324         61.2239         23.9529          65.169 
        0.96953         61.1877         23.2671         63.9873 
       0.981769         59.1489         22.6066         63.2242 
       0.994071         58.4705         21.9687           62.28 
         1.0064         57.1935         21.3545         61.3123 
        1.01868          56.348         20.7656         60.4799 
        1.03092         55.4477         20.2017         59.5744 
         1.0432         54.5023         19.6567         58.6082 
        1.05553         53.1453         19.1299         58.1428 
        1.06777         52.6942         18.6262         57.2271 
           1.08          51.467         18.1413         56.3986 
        1.09227         50.8402         17.6722         55.6156 
         1.1046         50.0821         17.2179         54.8598 
         1.1169         49.5039         16.7805         54.0737 
        1.12915         48.6698         16.3605         53.4864 
        1.14142         47.7399         15.9541         52.8108 
        1.15365         47.0216         15.5627         52.1991 
        1.16585         46.3121         15.1856         51.4511 
        1.17807         45.5694         14.8205         50.7864 
        1.19037         45.4403         14.4651         50.3322 
        1.20276         44.6251          14.119         49.7052 
        1.21504         44.0527          13.787         49.1508 
        1.22728         43.1905          13.467         48.5661 
        1.23954         42.7075         13.1565         47.8903 
        1.25184         41.9892         12.8552         47.4545 
        1.26414         41.3841         12.5633         46.8401 
        1.27632         41.0501          12.283          46.361 
         1.2886         40.6178         12.0094         45.8593 
        1.30093         39.9319         11.7432         45.2686 
        1.31316          39.317         11.4869         44.8975 
        1.32541         39.0575         11.2383         44.3878 
        1.33772         38.3051         10.9958         43.9216 
        1.35005         37.8772         10.7602         43.4904 
        1.36225         37.2568         10.5339         43.0685 
        1.37447         36.3805         10.3138         42.5832 
        1.38676         36.5142         10.0989         42.2091 
        1.39907         35.9276         9.88982         41.8213 
        1.41133         35.1835         9.68757         41.3806 
        1.42358         34.8229         9.49118         40.9487 
        1.43591         34.4264          9.2989         40.5979 
        1.44818         34.0684         9.11302         40.1298 
        1.46037         33.6207         8.93334         39.7652 
        1.47263         33.3828         8.75751         39.4489 
        1.48494         32.7234         8.58575         39.0317 
        1.49724         32.6227         8.41875         38.6697 
        1.50952         32.1407         8.25654         38.3583 
        1.52178         31.6554         8.09884          37.988 
        1.53409         31.4045         7.94464         37.6538 
        1.54637         30.9755         7.79478         37.2732 
        1.55858         30.2703         7.64964         36.9549 
        1.57081         30.3586           7.508         36.6683 
        1.58313         29.9828         7.36907         36.3186 
        1.59544         29.4241         7.23374          36.017 
        1.60767         29.0856         7.10268         35.6602 
        1.61994         28.7387         6.97442         35.3833 
        1.63225         28.5887         6.84906         35.1196 
        1.64452           28.17         6.72714         34.8243 
        1.65676         27.8657         6.60857         34.5083 
          1.669         27.5924         6.49277         34.2604 
        1.68133         27.2558         6.37902         33.9479 
        1.69363         26.8567         6.26833         33.6172 
        1.70585         26.6504         6.16098         33.4404 
        1.71809         26.2113         6.05593         33.0913 
        1.73038          26.078         5.95299         32.8843 
        1.74268         25.7378         5.85239         32.5537 
        1.75493         25.4231         5.75458         32.3272 
        1.76714         25.2727         5.65926          32.091 
        1.77942         24.9872         5.56561         31.8215 
        1.79173         24.5538         5.47385         31.5719 
        1.80402         24.3048         5.38434         31.4062 
         1.8163         24.1952         5.29689         31.0345 
         1.8286         23.7621         5.21124          30.856 
         1.8409         23.5616         5.12755         30.6247 
        1.85315         23.3211         5.04598         30.4094 
        1.86537         23.0086         4.96635         30.1786 
        1.87765         22.8814         4.88814         29.9433 
        1.88995         22.5615         4.81144         29.6798 
        1.90221         22.3343         4.73664         29.4685 
        1.91445         22.0499         4.66356         29.2544 
        1.92674          21.856         4.59178          29.037 
        1.93902         21.5995          4.5215         28.8522 
        1.95124         21.2697         4.45306         28.6898 
         1.9635         21.1523         4.38587         28.4314 
        1.97583         20.9292         4.31964         28.2313 
        1.98812         20.7564         4.25503         28.0474 
        2.00039         20.5258         4.19188         27.8378 
        2.01264         20.2833         4.13006         27.6575 
        2.02492          20.128          4.0694         27.4253 
        2.03717         19.8135         4.01007          27.248 
        2.04942         19.6582         3.95199         27.0424 
        2.06171         19.5188         3.89487         26.8655 
        2.07397         19.3166           3.839         26.6557 
        2.08629         19.1277         3.78399         26.4661 
        2.09857          18.935          3.7302         26.3016 
        2.11081         18.6975         3.67767         26.1181 
        2.12309         18.5708         3.62603         25.9357 
        2.13538         18.3294          3.5753         25.7629 
        2.14763         18.1613         3.52572          25.591 
        2.15986          18.021         3.47719         25.4258 
        2.17214         17.8185         3.42938         25.2584 
        2.18443         17.6497         3.38243         25.0701 
        2.19671         17.4567         3.33641         24.8929 
        2.20898         17.2926          3.2913         24.7293 
        2.22126         17.1664         3.24697         24.5779 
        2.23354         17.0663         3.20348         24.4119 
         2.2458         16.8566         3.16086         24.2765 
        2.25807         16.6374         3.11898         24.0706 
        2.27035         16.5018         3.07782         23.9307 
        2.28263         16.3404         3.03743         23.7752 
         2.2949         16.2444         2.99778         23.6325 
        2.30718         16.0913         2.95883         23.4834 
        2.31946         15.9704         2.92055         23.3177 
        2.33169         15.7943         2.88311         23.1674 
        2.34393         15.6481         2.84627         23.0385 
        2.35622           15.45         2.80996         22.8837 
        2.36847         15.3308         2.77438         22.7267 
        2.38076         15.1701         2.73931         22.5989 
        2.39305         15.0733         2.70486         22.4515 
        2.40534         14.9086           2.671         22.2823 
        2.41762         14.7634         2.63772         22.1787 
        2.42989         14.6466         2.60506         22.0159 
        2.44216         14.5036         2.57296         21.8825 
         2.4544         14.4886         2.54147         21.7326 
        2.46667         14.2914         2.51044         21.6113 
        2.47897         14.1145         2.47985         21.4661 
        2.49124         14.0604         2.44985         21.3347 
        2.50349         13.8895          2.4204         21.1921 
        2.51578         13.7938         2.39134         21.0901 
        2.52805         13.6838         2.36281         20.9513 
        2.54029         13.5901         2.33482          20.822 
        2.55257         13.4904         2.30719         20.6913 
        2.56487         13.3127         2.27996         20.5683 
        2.57716         13.2314         2.25321         20.4252 
        2.58942         13.1594         2.22695         20.3251 
        2.60167         12.9847         2.20113         20.2006 
        2.61395         12.9752         2.17568         20.0758 
        2.62624          12.871          2.1506         19.9522 
        2.63849         12.7318         2.12599         19.8505 
        2.65073         12.6331          2.1018          19.718 
        2.66302         12.5602         2.07789         19.6107 
         2.6753         12.5026         2.05437         19.4847 
        2.68756         12.3909         2.03127         19.3783 
        2.69983         12.2904          2.0085         19.2567 
        2.71213         12.1848         1.98604         19.1296 
        2.72441         12.1458         1.96395         19.0283 
        2.73665         12.0573         1.94226         18.9164 
         2.7489         12.0077         1.92091         18.7985 
        2.76118         11.8743         1.89981         18.6953 
        2.77349         11.8116         1.87898         18.5856 
        2.78576         11.7118         1.85854         18.4849 
        2.79802         11.6799         1.83842         18.3698 
        2.81031         11.6006         1.81855         18.2598 
        2.82259         11.5363         1.79898         18.1615 
        2.83483         11.4856         1.77978         18.0595 
         2.8471         11.4222         1.76081         17.9492 
         2.8594         11.3734         1.74207         17.8402 
         2.8717         11.3112          1.7236         17.7441 
        2.88396         11.2355         1.70547         17.6422 
        2.89619         11.2048         1.68764          17.539 
        2.90847         11.1572         1.66999         17.4478 
        2.92072         11.1136         1.65262         17.3326 
        2.93299         11.0229          1.6355         17.2442 
        2.94526         11.0069          1.6186         17.1534 
        2.95753         10.9585         1.60194         17.0499 
        2.96982         10.9129         1.58549         16.9527 
        2.98209         10.9075         1.56931         16.8581 
        2.99436         10.8755         1.55333         16.7578 
        3.00666         10.8488         1.53755         16.6653 
        3.01894         10.8202         1.52203          16.586 
        3.03119         10.7831         1.50673         16.4879 
        3.04345         10.7188         1.49165         16.3834 
        3.05573         10.7366         1.47674         16.2967 
          3.068         10.7133         1.46206         16.2147 
        3.08026         10.6917         1.44759         16.1115 
        3.09254         10.6928         1.43328         16.0303 
        3.10483         10.6835         1.41917         15.9519 
         3.1171         10.7074         1.40527         15.8584 
        3.12933         10.6738         1.39159         15.7694 
        3.14159         10.6395         1.37806         15.6794 
