# k  (h/Mpc)    Pcb(k)  (Mpc/h)^3    Pcb_linear(k) (Mpc/h)^3    Pcb_NL(k) (Mpc/h)^3   ShotnoiseSubtracted = false
      0.0156606         8704.36         8724.18         8673.44 
      0.0273761         7520.68         7545.71         7506.06 
      0.0384619         5710.34         5685.77         5658.22 
      0.0498308         4447.79         4472.65         4447.58 
      0.0625568         3753.73         3801.42         3776.91 
      0.0751274         3295.69         3229.83         3193.08 
      0.0867833         2583.63         2600.42         2591.71 
      0.0984825         2131.74         2057.93         2073.88 
       0.111151         1799.29         1718.36         1735.05 
       0.123864         1616.03          1548.6         1562.64 
       0.135742         1459.25         1392.58         1407.03 
        0.14762         1250.36         1190.73         1226.41 
       0.160083         1040.72         992.548         1033.74 
       0.172465         925.512         866.307         917.369 
       0.184281         854.294         798.634         852.125 
       0.196406         782.885         737.537         781.173 
       0.209011         716.776         656.221          703.54 
       0.221538         644.645         573.476         639.504 
       0.233611         594.326         513.113         587.151 
       0.245665          553.43         473.584         540.082 
       0.258103         514.368         440.866         507.006 
       0.270422         473.578         405.105         470.798 
       0.282519         433.602         367.656         436.629 
       0.294636          427.39         334.976         407.583 
       0.306978         378.866         309.909         385.388 
       0.319417         363.728         289.747         362.179 
        0.33169         341.025         270.448         340.356 
       0.343948         325.339         250.586          324.16 
       0.356249         303.365         231.958         308.748 
       0.368458         293.319         216.357         290.299 
        0.38068         279.216         203.309         276.367 
       0.392856          260.96         191.399         264.422 
       0.405069         250.062         179.753         253.734 
       0.417459         238.444         168.476         240.148 
       0.429752          229.69         158.354         230.589 
       0.441978         221.573         149.469         222.885 
       0.454294         206.684         141.401         211.994 
        0.46658         206.677         133.832         205.168 
       0.478753          195.41          126.69         197.615 
       0.490964         189.294         119.982         190.212 
       0.503334          179.38         113.791         184.077 
       0.515665         175.651         108.145         179.405 
       0.527909         170.341         102.933         172.027 
       0.540159         164.815         98.0017         167.002 
        0.55248         160.336         93.3227          161.43 
       0.564743         155.625         88.9903         157.358 
        0.57686         150.571         85.0085         152.207 
       0.589077         144.075         81.2497          148.64 
       0.601441         141.144         77.6756         144.743 
        0.61382         139.193         74.3057         140.496 
       0.626067          134.16         71.1611         136.933 
       0.638306         129.014         68.1999         133.732 
       0.650632         124.635         65.3942         129.103 
       0.662899         124.611         62.7651         126.335 
       0.675076         120.163         60.3011         123.311 
       0.687267         117.278         57.9664         120.445 
       0.699615         114.038          55.726         117.973 
       0.711937         110.806         53.6082         114.886 
       0.724148          109.57         51.6183         113.274 
       0.736433         105.728         49.7197         110.319 
       0.748747         103.547         47.9137         107.938 
       0.761037         101.518         46.2017         105.418 
       0.773197         99.2927         44.5912         104.204 
       0.785376         97.2958         43.0555         101.585 
       0.797761         96.1093         41.5685         100.099 
       0.810096         92.8206         40.1576         97.8754 
       0.822371         90.8969          38.819         96.0658 
       0.834626         88.9815         37.5439         94.4263 
       0.846916          87.913          36.323         92.8128 
       0.859215         86.1593         35.1561         90.9883 
       0.871383         84.9331         34.0523         89.4632 
        0.88363         82.6634         32.9895         88.2555 
       0.895928         81.0741         31.9683         86.8128 
       0.908253         79.0124         30.9886         85.2726 
       0.920535         78.6424         30.0535         84.0198 
       0.932774         76.8999         29.1604          82.541 
        0.94508         75.9599         28.2993         81.1671 
       0.957324         74.1925         27.4773         80.1194 
        0.96953         74.2663         26.6907         78.7061 
       0.981769         71.7696          25.933         77.8373 
       0.994071         71.0012         25.2012         76.6876 
         1.0064         69.4359         24.4966         75.5428 
        1.01868         68.6161         23.8211          74.554 
        1.03092         67.3658         23.1742         73.4926 
         1.0432         66.2196         22.5491         72.3851 
        1.05553         64.5104         21.9447         71.7803 
        1.06777         64.2302          21.367         70.7511 
           1.08         62.8272         20.8107         69.7687 
        1.09227         61.9391         20.2725         68.7562 
         1.1046         60.9785         19.7514         67.9015 
         1.1169         60.2856         19.2496         66.9178 
        1.12915         59.3964         18.7679          66.236 
        1.14142         58.2498         18.3016         65.4196 
        1.15365         57.2713         17.8527         64.6713 
        1.16585         56.4639           17.42         63.7841 
        1.17807         55.5844         17.0012         63.0371 
        1.19037         55.4713         16.5935         62.4379 
        1.20276         54.3948         16.1965         61.6998 
        1.21504         53.8821         15.8156         60.9762 
        1.22728         52.7513         15.4486         60.3173 
        1.23954         52.1692         15.0924         59.5128 
        1.25184         51.3149         14.7468         58.9945 
        1.26414         50.5043         14.4118         58.2612 
        1.27632         50.0921         14.0904         57.7025 
         1.2886         49.5593         13.7765         57.0412 
        1.30093         48.8219         13.4711         56.3082 
        1.31316         48.0606         13.1772          55.911 
        1.32541         47.7722          12.892         55.2682 
        1.33772         46.8893         12.6137         54.6908 
        1.35005         46.4034         12.3435         54.1699 
        1.36225         45.6041         12.0839         53.6293 
        1.37447         44.5306         11.8314         53.0589 
        1.38676         44.7062         11.5849         52.5626 
        1.39907         43.9941          11.345         52.1172 
        1.41133         43.0869          11.113         51.6341 
        1.42358         42.6104         10.8877         51.0506 
        1.43591         42.2278         10.6672         50.6343 
        1.44818         41.7162         10.4539         50.0322 
        1.46037         41.1714         10.2478         49.6385 
        1.47263         40.8483         10.0461         49.2395 
        1.48494         40.0411         9.84909         48.7143 
        1.49724            39.8         9.65751         48.2686 
        1.50952          39.374         9.47143         47.8509 
        1.52178         38.7624         9.29053         47.4406 
        1.53409          38.453         9.11364         47.0182 
        1.54637         37.8253         8.94173         46.5587 
        1.55858         37.0396         8.77524         46.1329 
        1.57081         37.0684         8.61276         45.8075 
        1.58313         36.6365         8.45339         45.4012 
        1.59544         35.9874         8.29814         44.9869 
        1.60767         35.5371          8.1478         44.5716 
        1.61994         35.1002         8.00066         44.2133 
        1.63225         34.8761         7.85686         43.8474 
        1.64452         34.4575           7.717         43.5015 
        1.65676         34.0195         7.58098         43.1091 
          1.669         33.7055         7.44814         42.8132 
        1.68133         33.3783         7.31766         42.4037 
        1.69363          32.815         7.19068         42.0441 
        1.70585         32.5999         7.06753         41.7947 
        1.71809         32.0339         6.94702          41.348 
        1.73038         31.8592         6.82894         41.1036 
        1.74268         31.3784         6.71353          40.687 
        1.75493         31.0607         6.60133         40.4002 
        1.76714         30.7768         6.49198         40.1093 
        1.77942         30.4597         6.38456         39.7832 
        1.79173          30.043         6.27929         39.4564 
        1.80402         29.7063         6.17662         39.2435 
         1.8163         29.4987          6.0763         38.7893 
         1.8286         29.0008         5.97804         38.5656 
         1.8409         28.7509         5.88203         38.2485 
        1.85315         28.4284         5.78846         38.0057 
        1.86537         28.0598         5.69712         37.7197 
        1.87765         27.9228          5.6074         37.4171 
        1.88995         27.4951         5.51941         37.0738 
        1.90221         27.2321         5.43361         36.8106 
        1.91445         26.8397         5.34978         36.5634 
        1.92674          26.602         5.26743         36.2723 
        1.93902         26.3043         5.18681         36.0306 
        1.95124         25.8612          5.1083         35.8127 
         1.9635         25.7075         5.03122         35.5082 
        1.97583         25.4357         4.95525         35.2778 
        1.98812         25.2062         4.88114         35.0167 
        2.00039         24.9007         4.80868          34.757 
        2.01264         24.6033         4.73777         34.5315 
        2.02492         24.4249         4.66819         34.2529 
        2.03717         24.0489         4.60012         34.0173 
        2.04942         23.8429          4.5335         33.7554 
        2.06171         23.6611         4.46797          33.542 
        2.07397         23.4011         4.40388         33.2726 
        2.08629          23.155         4.34078         33.0339 
        2.09857         22.8888         4.27907         32.8223 
        2.11081         22.6311         4.21882          32.585 
        2.12309         22.4666         4.15958         32.3538 
        2.13538         22.1187         4.10139         32.1552 
        2.14763         21.9918         4.04451         31.9204 
        2.15986         21.7237         3.98884         31.6935 
        2.17214         21.5106           3.934         31.4964 
        2.18443         21.2985         3.88013         31.2471 
        2.19671         21.0325         3.82734         31.0368 
        2.20898         20.8458         3.77559         30.8142 
        2.22126         20.7238         3.72475         30.6174 
        2.23354         20.5209         3.67486         30.4306 
         2.2458         20.3284         3.62597         30.2322 
        2.25807         20.0262         3.57792         29.9897 
        2.27035         19.8344         3.53071         29.8123 
        2.28263         19.6832         3.48437         29.6182 
         2.2949         19.5075         3.43888         29.4248 
        2.30718          19.319          3.3942         29.2179 
        2.31946         19.1869         3.35029         29.0209 
        2.33169         18.9483         3.30734         28.8307 
        2.34393         18.7714         3.26508         28.6556 
        2.35622         18.5845         3.22343         28.4713 
        2.36847         18.3758         3.18261         28.2622 
        2.38076         18.2229         3.14238         28.1078 
        2.39305         18.0657         3.10286         27.9271 
        2.40534         17.8774         3.06402         27.7054 
        2.41762         17.6942         3.02585         27.5753 
        2.42989         17.5781         2.98838         27.3545 
        2.44216         17.3449         2.95155         27.2017 
         2.4544         17.3329         2.91543         27.0117 
        2.46667         17.0988         2.87983         26.8488 
        2.47897         16.8878         2.84474         26.6655 
        2.49124         16.8196         2.81033         26.4976 
        2.50349         16.5921         2.77655         26.3208 
        2.51578         16.4916         2.74321         26.1801 
        2.52805         16.3276         2.71048         26.0037 
        2.54029         16.1971         2.67837          25.839 
        2.55257          16.088         2.64668         25.6702 
        2.56487         15.8945         2.61544         25.5196 
        2.57716          15.789         2.58475         25.3381 
        2.58942         15.6981         2.55463         25.2049 
        2.60167         15.4682         2.52501         25.0427 
        2.61395         15.4073         2.49582         24.8857 
        2.62624         15.3156         2.46704         24.7228 
        2.63849         15.1419         2.43882         24.5949 
        2.65073         15.0111         2.41106         24.4274 
        2.66302         14.9156         2.38364         24.2909 
         2.6753         14.8523         2.35666         24.1324 
        2.68756         14.7032         2.33016         23.9954 
        2.69983         14.5712         2.30404         23.8337 
        2.71213         14.4419         2.27827         23.6778 
        2.72441         14.3574         2.25294         23.5416 
        2.73665         14.2465         2.22805         23.4011 
         2.7489         14.2042         2.20356         23.2579 
        2.76118         14.0516         2.17936         23.1199 
        2.77349         13.9705         2.15546         22.9834 
        2.78576         13.8655         2.13202         22.8546 
        2.79802         13.8004         2.10893         22.7046 
        2.81031         13.7037         2.08614         22.5637 
        2.82259          13.567         2.06369         22.4445 
        2.83483         13.5632         2.04166           22.31 
         2.8471         13.4859         2.01991          22.163 
         2.8594         13.3737          1.9984          22.025 
         2.8717         13.3181         1.97722         21.9044 
        2.88396         13.2346         1.95642         21.7721 
        2.89619         13.2048         1.93596         21.6409 
        2.90847          13.107         1.91572         21.5288 
        2.92072         13.0654          1.8958         21.3776 
        2.93299         12.9599         1.87615         21.2691 
        2.94526         12.9155         1.85676         21.1533 
        2.95753         12.8872         1.83766         21.0185 
        2.96982         12.8164         1.81879         20.8971 
        2.98209          12.782         1.80022         20.7788 
        2.99436         12.7312         1.78189         20.6498 
        3.00666         12.7125         1.76379         20.5279 
        3.01894         12.6577         1.74598         20.4243 
        3.03119         12.6409         1.72844         20.3037 
        3.04345         12.5636         1.71114         20.1748 
        3.05573         12.5622         1.69404         20.0617 
          3.068         12.5154         1.67719         19.9534 
        3.08026         12.5122         1.66059         19.8253 
        3.09254         12.4587         1.64418         19.7189 
        3.10483         12.4758         1.62799         19.6165 
         3.1171          12.506         1.61204          19.501 
        3.12933         12.4648         1.59635         19.3882 
        3.14159          12.419         1.58084         19.2711 
