# k  (h/Mpc)    P(k)  (Mpc/h)^3    P_linear(k)  (Mpc/h)^3     P_NL(k)  ShotnoiseSubtracted = false
      0.0156606          2815.8         2775.23         2761.53 
      0.0273761         2442.83         2398.17         2391.44 
      0.0384619         1855.13         1806.32         1804.01 
      0.0498308         1453.45         1420.61          1419.4 
      0.0625568         1226.05         1207.24         1205.08 
      0.0751274         1061.27         1025.63         1021.63 
      0.0867833         841.556         825.724         825.205 
      0.0984825         682.302         653.442         656.032 
       0.111151         571.593         545.604          548.12 
       0.123864          513.44         491.694         493.595 
       0.135742         461.368         442.152         444.034 
        0.14762         392.072         378.059         382.537 
       0.160083         325.555         315.132         320.241 
       0.172465         286.953         275.049         281.181 
       0.184281          266.02         253.562         260.073 
       0.196406         242.624         234.163          239.17 
       0.209011          218.73         208.345          214.03 
       0.221538          194.33         182.073         190.031 
       0.233611         175.214         162.908         171.748 
       0.245665         164.556         150.358         158.218 
       0.258103          148.36          139.97         147.797 
       0.270422         139.259         128.616         136.216 
       0.282519         126.363         116.726         124.843 
       0.294636          120.53          106.35          114.91 
       0.306978         106.628          98.392         107.237 
       0.319417         101.748         91.9907         100.545 
        0.33169         94.5888         85.8634         94.1297 
       0.343948         89.8001         79.5574         87.9632 
       0.356249         82.4266         73.6435         82.8478 
       0.368458         78.6618           68.69         77.1779 
        0.38068         73.7634         64.5481         72.9652 
       0.392856           68.94         60.7665         69.2564 
       0.405069         65.2356         57.0688         65.3126 
       0.417459         61.0962         53.4889         61.7924 
       0.429752         58.5132         50.2752         58.5841 
       0.441978         55.7194         47.4543         56.0739 
       0.454294         51.8439         44.8929         53.0678 
        0.46658         51.4016         42.4895          50.626 
       0.478753         47.7998         40.2222         48.3802 
       0.490964         46.1762         38.0924          46.382 
       0.503334         44.2419         36.1268         44.1851 
       0.515665         42.0378         34.3343         42.6866 
       0.527909         40.2271         32.6795         40.4444 
       0.540159          38.561         31.1139          38.887 
        0.55248         36.0617         29.6284         37.2435 
       0.564743         35.5659          28.253         36.0055 
        0.57686         34.3727         26.9888          34.625 
       0.589077         32.3753         25.7955         33.4956 
       0.601441         31.2438         24.6607         32.2699 
        0.61382         30.1585         23.5909         30.9887 
       0.626067         28.9413         22.5925          30.023 
       0.638306         27.9855         21.6524         28.9181 
       0.650632         27.2052         20.7616         27.9909 
       0.662899         26.0575         19.9269         27.0141 
       0.675076         24.8699         19.1446         26.1462 
       0.687267         24.5066         18.4034         25.2884 
       0.699615         23.6621         17.6921         24.5768 
       0.711937         22.4726         17.0197         23.7712 
       0.724148         22.3513          16.388         23.1586 
       0.736433         21.0537         15.7852         22.4152 
       0.748747         20.6765         15.2118         21.7958 
       0.761037         20.1555         14.6683         21.2195 
       0.773197         19.4578         14.1569         20.6654 
       0.785376         18.7183         13.6694          20.103 
       0.797761         18.3112         13.1973         19.5599 
       0.810096         17.8862         12.7493         19.0854 
       0.822371         17.3911         12.3244         18.5239 
       0.834626          16.842         11.9196         18.1211 
       0.846916         16.3282          11.532         17.6476 
       0.859215         15.7373         11.1615         17.2304 
       0.871383         15.4501          10.811         16.8589 
        0.88363         15.0445         10.4736         16.4505 
       0.895928         14.7494         10.1494         16.0282 
       0.908253         14.3689         9.83837          15.699 
       0.920535         13.9406         9.54148         15.3242 
       0.932774         13.7202         9.25794         14.9351 
        0.94508         13.2699         8.98455         14.6527 
       0.957324         13.0241         8.72358         14.3641 
        0.96953         12.5709         8.47383         14.0377 
       0.981769         12.4652         8.23328         13.7471 
       0.994071         12.1203         8.00096         13.4552 
         1.0064         11.7447         7.77725         13.1955 
        1.01868         11.5202         7.56279         12.9381 
        1.03092         11.3395         7.35741         12.6646 
         1.0432         10.9281         7.15895         12.4101 
        1.05553         10.7561         6.96707         12.2162 
        1.06777         10.4418         6.78364         11.9517 
           1.08         10.2558         6.60704         11.7391 
        1.09227         10.0499         6.43617         11.5253 
         1.1046         9.86645         6.27074         11.2918 
         1.1169         9.56325         6.11144         11.0891 
        1.12915         9.53817         5.95848         10.9367 
        1.14142         9.16945         5.81046         10.7146 
        1.15365         9.07093         5.66792         10.5266 
        1.16585         8.95418         5.53056         10.3743 
        1.17807         8.68791         5.39761         10.1657 
        1.19037         8.54254         5.26817         10.0099 
        1.20276         8.33886         5.14211          9.8335 
        1.21504         8.22227         5.02118         9.69119 
        1.22728         8.00993         4.90466         9.51713 
        1.23954         7.89008         4.79157         9.38815 
        1.25184         7.72566         4.68185         9.23322 
        1.26414         7.62717         4.57552         9.07215 
        1.27632           7.416         4.47346         8.94325 
         1.2886         7.33158          4.3738         8.81039 
        1.30093         7.18369         4.27684         8.70604 
        1.31316         7.02855         4.18352         8.55493 
        1.32541         6.92468         4.09299         8.45222 
        1.33772         6.79082         4.00464         8.30734 
        1.35005         6.70517         3.91884         8.20047 
        1.36225         6.57018         3.83644         8.06802 
        1.37447         6.45668         3.75626         7.97153 
        1.38676         6.33775           3.678         7.86435 
        1.39907          6.2219         3.60186         7.75554 
        1.41133         6.13307          3.5282         7.64873 
        1.42358         6.00946         3.45667         7.54068 
        1.43591         5.94584         3.38665         7.45707 
        1.44818         5.80219         3.31895         7.35462 
        1.46037         5.70926         3.25351         7.25461 
        1.47263         5.62712         3.18947         7.17075 
        1.48494           5.567         3.12692         7.06992 
        1.49724         5.45874          3.0661         6.98592 
        1.50952          5.4289         3.00702         6.90274 
        1.52178         5.30305         2.94958         6.81615 
        1.53409          5.2021         2.89343         6.72353 
        1.54637         5.14373         2.83885         6.64299 
        1.55858         5.07857         2.78599          6.5589 
        1.57081         4.96786          2.7344         6.49939 
        1.58313         4.91463         2.68381         6.41536 
        1.59544         4.82138         2.63452         6.34872 
        1.60767         4.77084         2.58679         6.26692 
        1.61994         4.69395         2.54007         6.20639 
        1.63225         4.61425         2.49442         6.13243 
        1.64452         4.53725         2.45001         6.06091 
        1.65676          4.4748         2.40683         5.99668 
          1.669         4.43707         2.36466         5.93136 
        1.68133         4.32578         2.32323         5.86604 
        1.69363          4.3031         2.28292         5.81043 
        1.70585         4.23788         2.24382         5.74001 
        1.71809         4.19127         2.20556         5.68601 
        1.73038         4.13323         2.16807         5.62323 
        1.74268         4.06701         2.13143         5.56705 
        1.75493         4.01349         2.09581         5.50479 
        1.76714         3.98304         2.06109         5.44973 
        1.77942         3.91675         2.02699         5.39394 
        1.79173         3.86341         1.99357         5.33545 
        1.80402         3.81698         1.96097         5.28556 
         1.8163         3.78416         1.92912          5.2398 
         1.8286         3.72065         1.89793         5.19083 
         1.8409         3.66134         1.86745         5.14213 
        1.85315         3.62389         1.83774         5.08046 
        1.86537         3.59364         1.80874         5.04091 
        1.87765         3.53029         1.78026         4.98829 
        1.88995         3.48268         1.75232         4.94664 
        1.90221         3.44318         1.72508         4.89696 
        1.91445         3.40609         1.69846         4.86321 
        1.92674         3.38041         1.67232         4.80663 
        1.93902         3.32207         1.64672         4.76045 
        1.95124          3.2818          1.6218         4.72038 
         1.9635         3.26146         1.59733          4.6813 
        1.97583         3.20636         1.57321         4.64085 
        1.98812         3.16476         1.54968         4.59637 
        2.00039         3.13307         1.52668         4.55708 
        2.01264         3.09452         1.50416         4.52452 
        2.02492         3.06373         1.48207         4.48338 
        2.03717          3.0246         1.46046         4.44209 
        2.04942         2.98569         1.43931         4.40645 
        2.06171         2.95212         1.41851          4.3666 
        2.07397         2.92605         1.39816         4.33039 
        2.08629         2.89846         1.37813         4.29959 
        2.09857         2.86304         1.35853         4.26111 
        2.11081         2.82558          1.3394         4.22694 
        2.12309         2.80357          1.3206          4.1922 
        2.13538          2.7684         1.30212         4.16201 
        2.14763         2.75029         1.28406         4.12586 
        2.15986           2.723         1.26639         4.09649 
        2.17214         2.67898         1.24898         4.05685 
        2.18443         2.66612         1.23188         4.02688 
        2.19671         2.62792         1.21512         3.99647 
        2.20898         2.60501         1.19869         3.96862 
        2.22126         2.58447         1.18254         3.93779 
        2.23354         2.55133         1.16671         3.90647 
         2.2458         2.53847         1.15118          3.8727 
        2.25807         2.50438         1.13593         3.84792 
        2.27035         2.47792         1.12094         3.82153 
        2.28263         2.45271         1.10623         3.79199 
         2.2949         2.43632         1.09179         3.76594 
        2.30718         2.41136          1.0776         3.74115 
        2.31946         2.38585         1.06366         3.71331 
        2.33169         2.36546         1.05003         3.68483 
        2.34393         2.35367         1.03661         3.65856 
        2.35622         2.32803         1.02338         3.63194 
        2.36847         2.30133         1.01043          3.6051 
        2.38076         2.28486        0.997655         3.57903 
        2.39305         2.26026        0.985108         3.55197 
        2.40534         2.24137        0.972776         3.53057 
        2.41762         2.21506        0.960656         3.50907 
        2.42989         2.20302        0.948762         3.48223 
        2.44216         2.18922         0.93707         3.46045 
         2.4544         2.16632        0.925602         3.43811 
        2.46667         2.14939          0.9143         3.41468 
        2.47897         2.13253        0.903159         3.39072 
        2.49124         2.11106        0.892235         3.36891 
        2.50349         2.09907        0.881508         3.34613 
        2.51578         2.07692        0.870924         3.32128 
        2.52805         2.05909        0.860534         3.30121 
        2.54029         2.04899        0.850338         3.28001 
        2.55257         2.03029        0.840277           3.259 
        2.56487         2.01605         0.83036          3.2372 
        2.57716         2.00868        0.820617         3.21665 
        2.58942          1.9867        0.811052         3.19669 
        2.60167         1.97425        0.801649         3.17501 
        2.61395         1.95078        0.792381          3.1579 
        2.62624         1.94713        0.783246         3.13778 
        2.63849         1.93212        0.774285         3.11628 
        2.65073         1.91602        0.765473         3.09721 
        2.66302         1.90222        0.756767         3.07945 
         2.6753         1.90133        0.748201         3.06054 
        2.68756         1.87712        0.739786         3.04227 
        2.69983          1.8659        0.731495         3.02239 
        2.71213         1.86029        0.723313          3.0045 
        2.72441          1.8473        0.715271         2.98673 
        2.73665         1.83222         0.70737         2.97053 
         2.7489         1.82106        0.699594         2.95484 
        2.76118         1.81181         0.69191         2.93709 
        2.77349         1.80862        0.684324         2.91938 
        2.78576         1.79798        0.676881         2.90178 
        2.79802         1.78956        0.669553          2.8849 
        2.81031         1.77365        0.662316         2.86739 
        2.82259         1.76667        0.655189         2.85057 
        2.83483         1.76219        0.648194         2.83561 
         2.8471         1.75258        0.641287         2.81937 
         2.8594         1.74351        0.634461         2.80411 
         2.8717         1.73601        0.627735         2.78843 
        2.88396         1.73284        0.621133         2.77191 
        2.89619         1.71828        0.614637         2.75614 
        2.90847         1.71529         0.60821         2.73982 
        2.92072         1.70993        0.601885         2.72601 
        2.93299         1.70859        0.595647         2.71117 
        2.94526         1.70146        0.589492         2.69686 
        2.95753         1.69204        0.583426         2.68202 
        2.96982          1.6904        0.577435         2.66702 
        2.98209         1.69015         0.57154         2.65374 
        2.99436         1.68249        0.565723         2.63953 
        3.00666         1.68598        0.559977         2.62571 
        3.01894         1.67844        0.554321         2.61017 
        3.03119         1.67906        0.548752          2.5966 
        3.04345         1.67583        0.543259         2.58434 
        3.05573         1.67406         0.53783         2.57123 
          3.068         1.67477        0.532481          2.5577 
        3.08026         1.67132         0.52721         2.54316 
        3.09254         1.67549        0.522001          2.5296 
        3.10483         1.67561        0.516862         2.51755 
         3.1171          1.6755        0.511798         2.50516 
        3.12933         1.67672        0.506817         2.49156 
        3.14159         1.67685         0.50189         2.47813 
