# k  (h/Mpc)    Pcb(k)  (Mpc/h)^3    Pcb_linear(k) (Mpc/h)^3    Pcb_NL(k) (Mpc/h)^3   ShotnoiseSubtracted = false
      0.0156606         20691.8         20800.9         20640.3 
      0.0273761         17743.7           17984         17796.2 
      0.0384619         13421.5         13548.6         13383.3 
      0.0498308         10369.6         10656.7         10490.9 
      0.0625568         8759.83         9056.72         8908.68 
      0.0751274         7796.03         7694.58         7486.19 
      0.0867833         6042.15         6194.95         6130.92 
      0.0984825          5098.7         4902.48         4961.07 
       0.111151         4357.79         4093.46         4165.45 
       0.123864         3904.44         3689.03          3747.4 
       0.135742         3557.51         3317.34         3376.01 
        0.14762          3094.5         2836.49         2992.27 
       0.160083         2624.32         2364.37         2555.83 
       0.172465         2340.68         2063.64         2307.23 
       0.184281         2123.92         1902.43         2147.26 
       0.196406         1999.15         1756.89         1976.82 
       0.209011         1868.03         1563.18         1791.27 
       0.221538         1682.65         1366.07         1670.81 
       0.233611         1609.94         1222.28          1564.5 
       0.245665         1460.49         1128.11         1444.29 
       0.258103         1442.02         1050.18         1363.37 
       0.270422         1286.76         964.991         1280.21 
       0.282519         1213.36         875.783         1210.67 
       0.294636          1193.3         797.935         1146.23 
       0.306978         1087.92         738.224         1097.91 
       0.319417         1064.69         690.196            1035 
        0.33169          1001.3         644.224          979.69 
       0.343948         960.023         596.911         949.211 
       0.356249         908.905          552.54         913.678 
       0.368458         874.566         515.375         872.254 
        0.38068         858.571         484.295         838.654 
       0.392856         814.467         455.923         808.979 
       0.405069         773.683         428.182         783.286 
       0.417459         744.021          401.32         754.512 
       0.429752         738.108         377.207         728.126 
       0.441978         712.285         356.044         709.446 
       0.454294         680.115         336.826         680.356 
        0.46658         661.208         318.794         666.198 
       0.478753         647.797         301.783         645.765 
       0.490964          622.58         285.804         625.937 
       0.503334         595.023         271.055         611.712 
       0.515665         593.235         257.606         598.149 
       0.527909         569.008         245.191          585.02 
       0.540159         554.705         233.445         569.918 
        0.55248         543.726           222.3          555.07 
       0.564743         539.309          211.98         545.629 
        0.57686          520.37         202.495         531.073 
       0.589077          509.28         193.541         519.291 
       0.601441         499.158         185.027         508.974 
        0.61382         485.854             177         500.128 
       0.626067         480.203         169.509         490.535 
       0.638306         462.296         162.456         480.753 
       0.650632         457.729         155.772         468.876 
       0.662899         453.747          149.51         463.342 
       0.675076         438.053          143.64         456.608 
       0.687267         426.016         138.079         445.739 
       0.699615         423.295         132.742         438.711 
       0.711937         415.605         127.697         430.599 
       0.724148         401.744         122.957         424.645 
       0.736433         392.303         118.435         416.949 
       0.748747         387.293         114.133         409.509 
       0.761037         380.127         110.055         404.357 
       0.773197         374.957         106.218          397.97 
       0.785376         369.549          102.56         392.092 
       0.797761         358.844         99.0182         386.017 
       0.810096         355.721         95.6573         381.195 
       0.822371         345.005         92.4687         374.957 
       0.834626         342.298         89.4314         370.375 
       0.846916         335.978         86.5233         364.631 
       0.859215         333.621         83.7435          359.38 
       0.871383         325.518         81.1141         354.547 
        0.88363         322.771         78.5826         350.934 
       0.895928         317.164         76.1501         345.412 
       0.908253         309.203         73.8164         339.836 
       0.920535         304.658         71.5889         335.877 
       0.932774         298.841         69.4615         330.946 
        0.94508         294.556         67.4103         327.547 
       0.957324         292.497         65.4523         323.122 
        0.96953          288.42         63.5785         319.148 
       0.981769         280.916         61.7736         315.699 
       0.994071         279.864         60.0306         311.799 
         1.0064         274.126         58.3521         307.253 
        1.01868         271.068          56.743         303.332 
        1.03092         263.038          55.202         300.622 
         1.0432         260.107          53.713         296.982 
        1.05553         257.044         52.2733         292.953 
        1.06777         254.683         50.8971         289.766 
           1.08         248.643          49.572         286.492 
        1.09227          247.12         48.2901         283.058 
         1.1046         242.737         47.0488         280.315 
         1.1169         237.156         45.8536         276.543 
        1.12915         234.098         44.7059         273.913 
        1.14142         229.706         43.5953         270.558 
        1.15365         226.906         42.5259         267.705 
        1.16585         222.883         41.4953         264.583 
        1.17807         220.571         40.4978         262.004 
        1.19037         217.467         39.5266         259.708 
        1.20276         214.421         38.5807         256.321 
        1.21504         209.807         37.6735         253.489 
        1.22728         206.562         36.7992         250.449 
        1.23954         205.512         35.9507         248.313 
        1.25184         201.054         35.1275         245.621 
        1.26414         197.084         34.3297         243.237 
        1.27632         195.989         33.5639         241.155 
         1.2886         194.462         32.8162         238.289 
        1.30093         189.307         32.0887         235.405 
        1.31316         185.539         31.3886         232.932 
        1.32541         184.412         30.7093         230.736 
        1.33772         181.829         30.0464         228.492 
        1.35005         179.295         29.4027         225.925 
        1.36225         175.951         28.7845         223.821 
        1.37447         173.403         28.1829         221.074 
        1.38676          171.54         27.5957         219.438 
        1.39907         168.951         27.0244         216.873 
        1.41133         165.889         26.4718         214.713 
        1.42358         163.942         25.9351         212.688 
        1.43591         161.938         25.4097         210.646 
        1.44818         158.961         24.9018         208.551 
        1.46037         157.364         24.4108         206.332 
        1.47263         154.601         23.9303         204.553 
        1.48494         152.771          23.461         202.043 
        1.49724         150.487         23.0046         200.652 
        1.50952         147.688         22.5614         198.513 
        1.52178         146.698         22.1305         196.368 
        1.53409         143.662         21.7091         194.698 
        1.54637         141.783         21.2996          193.09 
        1.55858         139.845          20.903         190.986 
        1.57081          137.54          20.516         189.274 
        1.58313         135.693         20.1364         187.344 
        1.59544         133.241         19.7666         185.674 
        1.60767         132.176         19.4084             184 
        1.61994         129.763         19.0579         182.314 
        1.63225         127.971         18.7154         180.383 
        1.64452         125.761         18.3822         178.771 
        1.65676         124.027         18.0582         177.233 
          1.669         122.866         17.7418         175.613 
        1.68133         120.362          17.431         174.011 
        1.69363           118.4         17.1285         172.481 
        1.70585         116.457         16.8352         170.945 
        1.71809         114.997         16.5481         169.099 
        1.73038         113.958         16.2668         167.742 
        1.74268         112.798          15.992         166.116 
        1.75493         109.833         15.7247          164.73 
        1.76714         109.347         15.4642         163.346 
        1.77942         107.231         15.2083         161.725 
        1.79173          105.53         14.9576         160.338 
        1.80402         104.521          14.713         158.914 
         1.8163          102.34          14.474         157.568 
         1.8286         101.068           14.24         156.083 
         1.8409         100.265         14.0113          154.63 
        1.85315         98.0988         13.7884         153.377 
        1.86537         97.3188         13.5708         152.106 
        1.87765          96.101         13.3571         150.807 
        1.88995         94.3724         13.1475         149.407 
        1.90221          93.156         12.9431         148.205 
        1.91445         91.9514         12.7434         146.782 
        1.92674         90.4663         12.5473          145.53 
        1.93902         89.2425         12.3552         144.223 
        1.95124         88.1394         12.1682         143.009 
         1.9635         86.6812         11.9846         141.747 
        1.97583         85.3508         11.8036         140.568 
        1.98812          84.246         11.6271         139.493 
        2.00039         83.2477         11.4545         138.192 
        2.01264         82.1783         11.2856         137.057 
        2.02492         81.2876         11.1198         135.824 
        2.03717         79.8714         10.9577         134.732 
        2.04942           79.17          10.799          133.64 
        2.06171         77.4625         10.6429         132.478 
        2.07397         76.6689         10.4903         131.431 
        2.08629         75.6792         10.3399         130.289 
        2.09857         74.6215          10.193         129.238 
        2.11081         73.3335         10.0494         128.046 
        2.12309         72.3215          9.9083         127.118 
        2.13538         71.3557          9.7697         125.997 
        2.14763         70.4584         9.63421         124.991 
        2.15986         69.4513         9.50161         123.888 
        2.17214         68.6551         9.37096         122.898 
        2.18443         67.7274         9.24265          122.06 
        2.19671         66.6945          9.1169         121.009 
        2.20898         66.0228         8.99363         119.937 
        2.22126          65.024         8.87252         119.024 
        2.23354         64.2869         8.75368         118.078 
         2.2458         63.0718         8.63722         117.128 
        2.25807         62.3757         8.52278         116.166 
        2.27035         61.5014         8.41031         115.217 
        2.28263         60.6838         8.29993         114.327 
         2.2949         59.7386         8.19158         113.429 
        2.30718         58.8622         8.08514         112.536 
        2.31946         58.4407         7.98054         111.572 
        2.33169         57.3889         7.87824         110.727 
        2.34393          56.945         7.77757         109.927 
        2.35622         55.8517         7.67835         109.029 
        2.36847         55.4438         7.58113         108.286 
        2.38076         54.4983         7.48531           107.3 
        2.39305         53.8957         7.39117         106.577 
        2.40534         53.1727         7.29864         105.695 
        2.41762         52.5601         7.20771         104.836 
        2.42989         51.7253         7.11846         104.093 
        2.44216         51.2179         7.03074         103.224 
         2.4544          50.401          6.9447         102.466 
        2.46667         49.8248          6.8599         101.676 
        2.47897         49.2733         6.77631          100.86 
        2.49124         48.7615         6.69435         100.132 
        2.50349         48.2309         6.61386         99.3647 
        2.51578         47.5002         6.53446         98.7069 
        2.52805         46.9354          6.4565         97.8745 
        2.54029         46.4639            6.38         97.1076 
        2.55257         45.8543         6.30451         96.4433 
        2.56487         45.5799         6.23011         95.7515 
        2.57716         44.8611           6.157         95.0276 
        2.58942          44.239         6.08524         94.3182 
        2.60167         43.7309         6.01469         93.6302 
        2.61395         43.2827         5.94515         92.9388 
        2.62624         42.6701         5.87661          92.197 
        2.63849         42.2028         5.80938         91.5412 
        2.65073         41.7794         5.74326         90.8753 
        2.66302         41.2947         5.67794          90.185 
         2.6753         40.8743         5.61368         89.5635 
        2.68756         40.4549         5.55054          88.885 
        2.69983         39.9231         5.48833          88.273 
        2.71213           39.54         5.42694         87.6392 
        2.72441         39.1267          5.3666         86.9953 
        2.73665         38.6493         5.30732         86.3933 
         2.7489         38.2485         5.24898         85.7824 
        2.76118         37.9023         5.19133         85.1566 
        2.77349         37.4605         5.13441          84.555 
        2.78576         37.1097         5.07856         83.9225 
        2.79802          36.791         5.02358         83.4067 
        2.81031         36.2825         4.96928         82.7943 
        2.82259         36.0941         4.91581         82.1794 
        2.83483         35.6219         4.86333         81.6527 
         2.8471         35.3266         4.81151         81.0598 
         2.8594         34.9949         4.76029         80.4739 
         2.8717         34.8204         4.70983         79.9508 
        2.88396         34.4239         4.66029         79.3864 
        2.89619         34.2096         4.61155         78.7898 
        2.90847         33.8326         4.56333         78.2245 
        2.92072          33.642         4.51588         77.7376 
        2.93299         33.4851         4.46907         77.2228 
        2.94526         33.0998         4.42289         76.6837 
        2.95753         32.8857         4.37738         76.1427 
        2.96982         32.5797         4.33243         75.6334 
        2.98209         32.3983          4.2882         75.1347 
        2.99436         32.1366         4.24455         74.5889 
        3.00666         32.0857         4.20144         74.0904 
        3.01894          31.746         4.15901         73.5902 
        3.03119         31.7023         4.11722         73.1164 
        3.04345         31.5468         4.07601         72.6427 
        3.05573         31.2353         4.03528         72.1487 
          3.068         31.1675         3.99514         71.6682 
        3.08026         30.9986          3.9556         71.1851 
        3.09254         30.9315         3.91652         70.7225 
        3.10483         30.9032         3.87795         70.2621 
         3.1171         30.7369         3.83996         69.7926 
        3.12933         30.5945         3.80258         69.3259 
        3.14159         30.4819         3.76562         68.8551 
