# k  (h/Mpc)    P(k)  (Mpc/h)^3    P_linear(k)  (Mpc/h)^3     P_NL(k)  ShotnoiseSubtracted = false
      0.0156606         13471.9           13704         13613.4 
      0.0273761         11583.2         11831.1         11742.8 
      0.0384619         8775.93         8906.62         8835.36 
      0.0498308         6807.35         7002.35         6933.16 
      0.0625568         5745.55         5949.18          5885.4 
      0.0751274         5078.05         5053.42          4961.6 
      0.0867833         3957.92         4068.02         4042.31 
      0.0984825         3299.15         3219.01         3250.51 
       0.111151         2799.85         2687.61         2722.79 
       0.123864         2512.59         2421.94         2451.11 
       0.135742         2276.96         2177.83         2207.63 
        0.14762            1965          1862.1         1939.62 
       0.160083         1645.95         1552.12          1644.3 
       0.172465         1467.25         1354.67         1470.67 
       0.184281         1345.38         1248.83         1367.91 
       0.196406         1244.93         1153.27         1254.98 
       0.209011          1150.7          1026.1         1133.59 
       0.221538         1038.03         896.707         1044.64 
       0.233611         973.704         802.313         968.695 
       0.245665         894.871         740.499         891.714 
       0.258103         856.894         689.336         839.388 
       0.270422           774.8         633.416         783.699 
       0.282519         718.358         574.857          733.08 
       0.294636         711.883         523.756         689.477 
       0.306978         637.841          484.56          656.45 
       0.319417         616.473         453.034         617.714 
        0.33169         580.788         422.858         582.034 
       0.343948         553.536         391.801         560.229 
       0.356249         519.736         362.676         536.496 
       0.368458         504.281          338.28         507.658 
        0.38068         485.407         317.882         485.578 
       0.392856         456.639         299.258         466.129 
       0.405069         438.015         281.047         451.133 
       0.417459         419.513         263.417         429.198 
       0.429752         407.253          247.59         413.491 
       0.441978         394.011         233.698         401.268 
       0.454294         371.414         221.083         383.419 
        0.46658         366.517         209.247         373.527 
       0.478753         353.382         198.081         360.703 
       0.490964         341.028         187.593          348.47 
       0.503334         321.934         177.913         338.882 
       0.515665         319.964         169.085         331.356 
       0.527909         309.327         160.936         321.138 
       0.540159          301.25         153.225         311.991 
        0.55248         295.402          145.91         303.105 
       0.564743         289.453         139.136         297.009 
        0.57686         278.594         132.911          288.06 
       0.589077         268.176         127.034         281.795 
       0.601441         265.017         121.446         275.165 
        0.61382         261.449         116.177         269.224 
       0.626067         255.992          111.26         263.095 
       0.638306         244.284          106.63         257.999 
       0.650632         239.064         102.243         250.184 
       0.662899         238.005         98.1328         246.547 
       0.675076         229.074         94.2803         241.387 
       0.687267         223.329         90.6299         235.986 
       0.699615         219.519         87.1271         231.582 
       0.711937         215.212         83.8158         227.268 
       0.724148         210.039         80.7047         223.858 
       0.736433         205.486         77.7361         219.013 
       0.748747         201.446         74.9124         214.704 
       0.761037         198.311         72.2358          210.81 
       0.773197         194.884         69.7177         208.225 
       0.785376         192.646         67.3168         203.967 
       0.797761          188.16         64.9917          201.25 
       0.810096         184.939         62.7857         197.863 
       0.822371         178.242         60.6929         194.567 
       0.834626         177.169         58.6993         191.403 
       0.846916         174.425         56.7905         188.613 
       0.859215         173.317          54.966         185.744 
       0.871383         169.103         53.2401         182.698 
        0.88363         166.931         51.5785         180.723 
       0.895928          163.33         49.9819         178.049 
       0.908253         158.894         48.4502         174.908 
       0.920535          158.36         46.9881         172.615 
       0.932774         153.191         45.5918          170.01 
        0.94508         152.048         44.2454         168.123 
       0.957324         151.301         42.9603         165.585 
        0.96953         149.702         41.7304         163.022 
       0.981769         145.077         40.5457         161.572 
       0.994071         144.402         39.4016          159.37 
         1.0064         140.881         38.2999         156.952 
        1.01868         139.271         37.2438         155.238 
        1.03092         137.076         36.2324         153.451 
         1.0432          134.54          35.255         151.486 
        1.05553         131.997         34.3101         149.823 
        1.06777         131.794         33.4068         148.243 
           1.08         128.887         32.5371         146.255 
        1.09227         127.466         31.6956         144.775 
         1.1046         125.312         30.8809         143.016 
         1.1169         123.804         30.0964         141.088 
        1.12915         121.834         29.3432         139.643 
        1.14142             120         28.6142         137.849 
        1.15365         118.165         27.9123          136.38 
        1.16585           116.6         27.2358         134.662 
        1.17807         114.821         26.5811         133.666 
        1.19037         114.461         25.9436          132.24 
        1.20276          111.99         25.3228         130.635 
        1.21504         110.931         24.7273         129.186 
        1.22728         108.673         24.1535         127.731 
        1.23954         107.947         23.5966         126.513 
        1.25184         105.656         23.0562         125.166 
        1.26414         104.432         22.5326          123.89 
        1.27632         103.645           22.03         123.226 
         1.2886         101.764         21.5392         121.394 
        1.30093         99.7769         21.0617         120.092 
        1.31316         99.2837         20.6022         118.967 
        1.32541         97.9684         20.1563         117.989 
        1.33772         96.7589         19.7212         116.743 
        1.35005         95.6926         19.2987         115.491 
        1.36225         94.4316         18.8929         114.437 
        1.37447          92.491         18.4981         113.201 
        1.38676         92.2728         18.1127         111.972 
        1.39907          90.231         17.7377         111.089 
        1.41133         88.9449          17.375           110.2 
        1.42358         87.9406         17.0227         109.006 
        1.43591         87.3552         16.6779         107.866 
        1.44818          86.276         16.3445         106.944 
        1.46037         84.8687         16.0222         105.952 
        1.47263          83.509         15.7069         105.128 
        1.48494          82.982         15.3988         104.044 
        1.49724         81.5489         15.0993          102.94 
        1.50952          80.526         14.8084         102.034 
        1.52178         79.6461         14.5255         101.173 
        1.53409          78.973          14.249         100.285 
        1.54637         77.0982         13.9802         99.3425 
        1.55858         76.4167         13.7199         98.4112 
        1.57081         75.4882         13.4658         97.5923 
        1.58313         74.4396         13.2167          96.736 
        1.59544         73.6484         12.9739         95.8369 
        1.60767         72.7107         12.7389         94.9808 
        1.61994          71.778         12.5088         94.3609 
        1.63225         70.6967          12.284         93.2393 
        1.64452          69.887         12.0653         92.5474 
        1.65676         68.8442         11.8527         91.7195 
          1.669         68.3848          11.645         90.9797 
        1.68133          67.632          11.441         90.1382 
        1.69363         66.5926         11.2424         89.4699 
        1.70585         65.9959         11.0499         88.6321 
        1.71809         64.6884         10.8615         88.0032 
        1.73038         64.0166         10.6769         87.1345 
        1.74268         63.1347         10.4964         86.4523 
        1.75493         62.5724          10.321         85.6767 
        1.76714         61.6575         10.1501         84.9528 
        1.77942         61.3286         9.98209         84.2451 
        1.79173         60.2519         9.81751         83.4978 
        1.80402         59.6118         9.65698         82.8964 
         1.8163           58.91         9.50014         82.0857 
         1.8286         58.0293         9.34651         81.5544 
         1.8409         57.1661         9.19641            80.8 
        1.85315         56.4638         9.05012         80.2685 
        1.86537         55.9194          8.9073         79.5412 
        1.87765         55.2317         8.76704         78.7786 
        1.88995         54.5636         8.62946         78.2105 
        1.90221         54.0935         8.49532         77.5634 
        1.91445           53.19         8.36424         76.9877 
        1.92674         52.6948         8.23549         76.3513 
        1.93902         52.0486         8.10944         75.6848 
        1.95124         51.6453          7.9867         75.1982 
         1.9635         50.6751         7.86619          74.477 
        1.97583         50.1902         7.74741         73.9896 
        1.98812         49.4989         7.63153         73.3295 
        2.00039         49.0276         7.51826         72.7502 
        2.01264         48.2624         7.40739         72.1901 
        2.02492         47.7639          7.2986         71.6488 
        2.03717         47.1239         7.19217         71.0155 
        2.04942         46.5362         7.08801          70.534 
        2.06171         45.9889         6.98556         69.9061 
        2.07397         45.3609         6.88536         69.4342 
        2.08629         44.8753         6.78671         68.8263 
        2.09857          44.528         6.69022         68.3533 
        2.11081         43.6531         6.59601         67.7584 
        2.12309         43.3055         6.50339         67.2641 
        2.13538         42.7964         6.41242          66.757 
        2.14763         42.3985         6.32349         66.2502 
        2.15986         42.0372         6.23645         65.7231 
        2.17214         41.2794          6.1507         65.2956 
        2.18443         41.0974         6.06648         64.7392 
        2.19671         40.3414         5.98394         64.2162 
        2.20898         39.9405         5.90304         63.7286 
        2.22126         39.5325         5.82355          63.236 
        2.23354         39.0063         5.74554         62.8188 
         2.2458         38.6866          5.6691         62.3383 
        2.25807         38.1564         5.59399         61.8295 
        2.27035           37.71         5.52017         61.3784 
        2.28263          37.236         5.44772         60.9197 
         2.2949         36.7434         5.37661         60.4813 
        2.30718          36.444         5.30674         60.0408 
        2.31946         35.9499         5.23809         59.6123 
        2.33169          35.617         5.17094         59.1446 
        2.34393         35.0704         5.10487         58.6941 
        2.35622          34.756         5.03974         58.2797 
        2.36847         34.3211         4.97593         57.8355 
        2.38076         34.1139         4.91304         57.4402 
        2.39305         33.6887         4.85125         57.0232 
        2.40534         33.3216         4.79052         56.5384 
        2.41762         32.9277         4.73083         56.1347 
        2.42989         32.4795         4.67226         55.7722 
        2.44216         32.2382         4.61468         55.3498 
         2.4544         31.9355         4.55821         54.9663 
        2.46667         31.3756         4.50255         54.5301 
        2.47897         31.1671         4.44768         54.1617 
        2.49124         30.8029         4.39389         53.7634 
        2.50349         30.4469         4.34106         53.4062 
        2.51578          30.088         4.28894         53.0324 
        2.52805          29.882         4.23777         52.6269 
        2.54029         29.6451         4.18756         52.2637 
        2.55257         29.2548         4.13801         51.9028 
        2.56487         28.9801         4.08918         51.5356 
        2.57716         28.7026          4.0412         51.1937 
        2.58942         28.3205         3.99409         50.8241 
        2.60167         28.0006         3.94778         50.4299 
        2.61395         27.7653         3.90214         50.0971 
        2.62624         27.4999         3.85716          49.753 
        2.63849         27.2815         3.81303         49.4032 
        2.65073         26.9678         3.76963         49.0372 
        2.66302         26.6444         3.72676         48.7247 
         2.6753         26.4077         3.68458         48.3839 
        2.68756         26.1237         3.64314         48.0474 
        2.69983         25.9392         3.60231         47.7171 
        2.71213         25.5888         3.56201         47.4021 
        2.72441         25.4813         3.52241         47.0523 
        2.73665         25.2053          3.4835         46.7343 
         2.7489         25.0256         3.44521         46.4226 
        2.76118         24.7897         3.40737         46.0833 
        2.77349         24.5839         3.37001         45.7964 
        2.78576         24.4091         3.33335         45.4763 
        2.79802         24.0807         3.29726         45.1665 
        2.81031           23.93         3.26163         44.8781 
        2.82259         23.7543         3.22653         44.5592 
        2.83483         23.5013         3.19208         44.2542 
         2.8471         23.4174         3.15807         43.9627 
         2.8594          23.152         3.12445         43.6842 
         2.8717         22.9297         3.09133         43.3816 
        2.88396          22.837         3.05882          43.078 
        2.89619         22.7055         3.02683          42.797 
        2.90847         22.5242         2.99518         42.5091 
        2.92072         22.3576         2.96403         42.2446 
        2.93299         22.2802         2.93331         41.9542 
        2.94526         22.1268           2.903          41.684 
        2.95753         21.9379         2.87313         41.4238 
        2.96982         21.9226         2.84362         41.1475 
        2.98209         21.7117          2.8146         40.8797 
        2.99436         21.6284         2.78595         40.6149 
        3.00666         21.4805         2.75765         40.3476 
        3.01894         21.4352          2.7298         40.0712 
        3.03119         21.2565         2.70237         39.8053 
        3.04345          21.168         2.67532         39.5572 
        3.05573         21.0944         2.64859         39.3087 
          3.068         21.0672         2.62224         39.0467 
        3.08026         21.0618         2.59629         38.7928 
        3.09254         20.9252         2.57064         38.5541 
        3.10483         20.9137         2.54533         38.3133 
         3.1171         20.8373         2.52039         38.0662 
        3.12933         20.8145         2.49586         37.8229 
        3.14159         20.8072          2.4716         37.5775 
