# k  (h/Mpc)    P(k)  (Mpc/h)^3    P_linear(k)  (Mpc/h)^3     P_NL(k)  ShotnoiseSubtracted = false
      0.0156606         23184.7         23309.4         23119.6 
      0.0273761         19822.5         20118.3           19886 
      0.0384619         14965.8         15142.6         14934.5 
      0.0498308           11541         11903.5         11693.6 
      0.0625568         9747.72         10112.1         9926.36 
      0.0751274          8688.8         8588.91         8328.84 
      0.0867833         6722.73         6913.76          6832.6 
      0.0984825         5694.69         5470.62         5540.42 
       0.111151         4878.33         4567.38         4656.23 
       0.123864         4368.15         4115.79         4187.43 
       0.135742         3987.61          3700.9          3772.5 
        0.14762         3476.04          3164.3          3353.2 
       0.160083         2962.86         2637.52         2871.84 
       0.172465         2642.25         2301.97         2600.65 
       0.184281         2389.57         2122.09         2420.52 
       0.196406         2263.38          1959.7         2231.94 
       0.209011         2122.26          1743.6         2024.99 
       0.221538         1908.96         1523.71         1894.96 
       0.233611         1836.34         1363.31         1779.24 
       0.245665         1662.46         1258.27         1644.88 
       0.258103         1653.17         1171.33         1554.31 
       0.270422         1474.14          1076.3         1462.18 
       0.282519         1396.58         976.798         1387.87 
       0.294636         1367.43         889.964         1316.44 
       0.306978         1253.94         823.362         1263.25 
       0.319417         1232.76         769.791         1191.64 
        0.33169         1157.58         718.514         1130.16 
       0.343948         1113.67         665.741         1096.36 
       0.356249         1058.11         616.251         1056.95 
       0.368458         1013.34         574.798         1012.34 
        0.38068         1000.59         540.136         975.166 
       0.392856         951.755         508.491         942.551 
       0.405069          901.05         477.548         911.425 
       0.417459          866.68         447.589         881.855 
       0.429752          866.16         420.696         851.422 
       0.441978         835.678         397.091          830.62 
       0.454294         800.136         375.657         797.682 
        0.46658         777.648         355.545         781.927 
       0.478753         764.068         336.572         759.112 
       0.490964         735.117          318.75         736.452 
       0.503334          704.67         302.302         720.972 
       0.515665          701.53         287.302         704.554 
       0.527909         671.902         273.455         690.837 
       0.540159         656.457         260.354         674.214 
        0.55248         642.932         247.924         657.141 
       0.564743          637.14         236.415           646.1 
        0.57686         617.504         225.836         629.546 
       0.589077         608.533          215.85         616.117 
       0.601441         592.455         206.355         604.604 
        0.61382         575.411         197.402          593.96 
       0.626067         569.813         189.048         583.479 
       0.638306         549.307         181.181         571.591 
       0.650632         544.184         173.727         558.836 
       0.662899         539.825         166.742         551.887 
       0.675076         523.592         160.197           544.9 
       0.687267         508.155         153.994          532.29 
       0.699615          507.67         148.042         523.903 
       0.711937         495.816         142.416         513.962 
       0.724148         480.292         137.129          507.48 
       0.736433         469.263         132.085         498.745 
       0.748747         463.322         127.287         490.152 
       0.761037           455.3         122.739         484.476 
       0.773197         447.622         118.461         476.254 
       0.785376          442.66         114.381         469.571 
       0.797761         429.399         110.431         463.046 
       0.810096         423.567         106.682         457.053 
       0.822371         413.406         103.126         449.768 
       0.834626         408.853         99.7388         444.778 
       0.846916         403.446         96.4955         437.835 
       0.859215         397.573         93.3953         431.391 
       0.871383          389.09         90.4629          425.84 
        0.88363         383.768         87.6396         421.577 
       0.895928         378.991         84.9267         415.128 
       0.908253          369.76          82.324         408.256 
       0.920535         361.363         79.8398         404.162 
       0.932774         356.621         77.4672         397.929 
        0.94508         351.155         75.1795         394.081 
       0.957324         346.644         72.9959         388.855 
        0.96953         342.303          70.906         384.169 
       0.981769         334.356         68.8931         379.882 
       0.994071         333.084         66.9492         375.334 
         1.0064         327.002         65.0772         369.901 
        1.01868         323.009         63.2827         365.273 
        1.03092         313.602         61.5641         362.114 
         1.0432         310.611         59.9035         357.745 
        1.05553         307.528         58.2979         352.799 
        1.06777          302.86          56.763         348.745 
           1.08         296.042         55.2852         344.932 
        1.09227         295.647         53.8555          340.82 
         1.1046         289.404         52.4712          337.68 
         1.1169         283.634         51.1382         333.246 
        1.12915         279.369         49.8583          329.75 
        1.14142         273.724         48.6197         325.954 
        1.15365         270.573          47.427         322.552 
        1.16585         266.181         46.2776         318.993 
        1.17807         263.548         45.1651         315.403 
        1.19037         258.374          44.082         312.743 
        1.20276         255.617         43.0271         308.687 
        1.21504         250.419         42.0153         305.212 
        1.22728           246.7         41.0403         302.085 
        1.23954         245.131          40.094         298.848 
        1.25184         239.484         39.1759         295.735 
        1.26414         234.864         38.2861         292.955 
        1.27632          232.44         37.4321         290.219 
         1.2886          230.02         36.5982         286.978 
        1.30093         225.209         35.7869         283.286 
        1.31316         220.493         35.0061         280.715 
        1.32541         219.323         34.2485         277.594 
        1.33772         215.174         33.5092         275.154 
        1.35005         212.646         32.7913         272.038 
        1.36225         208.617         32.1018         269.502 
        1.37447         205.222         31.4309         266.289 
        1.38676         203.263         30.7761         264.409 
        1.39907         200.264         30.1389          261.15 
        1.41133          196.39         29.5226         258.395 
        1.42358         193.918         28.9241         255.977 
        1.43591         191.232         28.3381         253.731 
        1.44818         187.557         27.7716         250.999 
        1.46037         186.035         27.2241         248.313 
        1.47263         182.442         26.6882         245.873 
        1.48494         181.049         26.1648         242.975 
        1.49724         177.573         25.6559         241.493 
        1.50952         174.601         25.1615         238.579 
        1.52178         172.285         24.6809          236.35 
        1.53409         169.424          24.211         234.107 
        1.54637         166.667         23.7543         232.178 
        1.55858         164.873          23.312         229.745 
        1.57081          161.98         22.8804         227.437 
        1.58313         159.968          22.457         225.139 
        1.59544         156.968         22.0446         223.144 
        1.60767         155.532         21.6452         221.171 
        1.61994         152.838         21.2543         218.893 
        1.63225         150.337         20.8723          216.69 
        1.64452         147.939         20.5007         214.776 
        1.65676         146.127         20.1394         212.956 
          1.669         144.363         19.7865         210.768 
        1.68133         141.485         19.4399         208.842 
        1.69363         139.078         19.1025         207.147 
        1.70585         136.938         18.7754          205.17 
        1.71809         135.109         18.4552         202.997 
        1.73038         133.207         18.1415         201.273 
        1.74268         132.037          17.835         199.309 
        1.75493         129.269         17.5369         197.714 
        1.76714         128.436         17.2464         195.962 
        1.77942         125.785          16.961         194.189 
        1.79173          124.07         16.6814         192.298 
        1.80402         122.217         16.4086         190.593 
         1.8163         120.135         16.1421         189.091 
         1.8286         118.411         15.8811         187.231 
         1.8409         116.851          15.626         185.498 
        1.85315         114.707         15.3774         183.969 
        1.86537         113.451         15.1348         182.401 
        1.87765         112.035         14.8964         180.836 
        1.88995         110.084         14.6627         179.107 
        1.90221         108.667         14.4348         177.718 
        1.91445         106.979          14.212         176.032 
        1.92674         105.189         13.9933         174.449 
        1.93902         103.993         13.7791         172.878 
        1.95124           102.5         13.5705         171.434 
         1.9635         100.829         13.3658         169.945 
        1.97583         99.2939          13.164         168.415 
        1.98812          97.849         12.9671         167.256 
        2.00039         96.7497         12.7746         165.627 
        2.01264         95.5538         12.5862         164.261 
        2.02492         94.0136         12.4014         162.751 
        2.03717          92.684         12.2205         161.484 
        2.04942         91.4561         12.0435         160.078 
        2.06171         89.9191         11.8695         158.639 
        2.07397         88.7431         11.6992         157.455 
        2.08629         87.3858         11.5316         156.081 
        2.09857         86.3771         11.3676          154.84 
        2.11081         84.9951         11.2076         153.413 
        2.12309         83.9095         11.0502         152.225 
        2.13538         82.5166         10.8956          150.91 
        2.14763         81.3322         10.7445         149.672 
        2.15986         80.5017         10.5966         148.334 
        2.17214          79.325         10.4509         147.226 
        2.18443         78.4032         10.3078         146.138 
        2.19671         77.3983         10.1676         144.858 
        2.20898         76.2685         10.0301         143.557 
        2.22126         75.2096         9.89503         142.511 
        2.23354         74.2249         9.76249         141.394 
         2.2458         72.7778         9.63261         140.168 
        2.25807         72.1606         9.50498         139.064 
        2.27035         71.1168         9.37955         137.944 
        2.28263          70.228         9.25645         136.895 
         2.2949         68.9083         9.13562         135.813 
        2.30718         67.9225         9.01691         134.688 
        2.31946          67.238         8.90025         133.539 
        2.33169         66.1919         8.78617         132.542 
        2.34393         65.5504          8.6739         131.623 
        2.35622         64.5221         8.56324         130.481 
        2.36847         63.7516         8.45482         129.567 
        2.38076         62.6335         8.34795         128.458 
        2.39305         62.0728         8.24296         127.552 
        2.40534         61.0864         8.13977         126.488 
        2.41762          60.523         8.03836         125.494 
        2.42989         59.5003         7.93883         124.569 
        2.44216         58.9884           7.841         123.536 
         2.4544         58.1215         7.74504         122.656 
        2.46667         57.1999         7.65047          121.72 
        2.47897         56.7455         7.55724         120.701 
        2.49124         55.9918         7.46584         119.797 
        2.50349         54.9942         7.37608         118.919 
        2.51578         54.6397         7.28752         118.096 
        2.52805          53.706         7.20057         117.127 
        2.54029         53.1949         7.11526         116.246 
        2.55257         52.5378         7.03108          115.43 
        2.56487         52.1116         6.94809         114.569 
        2.57716         51.5321         6.86657         113.712 
        2.58942         50.7183         6.78653         112.881 
        2.60167         50.1464         6.70785          112.07 
        2.61395         49.7585         6.63029         111.213 
        2.62624         48.9862         6.55386         110.335 
        2.63849          48.429         6.47887         109.579 
        2.65073         47.7575         6.40514         108.757 
        2.66302         47.3669         6.33229         107.984 
         2.6753           46.68         6.26062         107.215 
        2.68756         46.3822         6.19021         106.407 
        2.69983         45.8204         6.12083         105.641 
        2.71213         45.2984         6.05236         104.889 
        2.72441         44.8664         5.98507         104.118 
        2.73665         44.3567         5.91896         103.404 
         2.7489         43.8992         5.85389          102.68 
        2.76118         43.4898          5.7896         101.914 
        2.77349         43.0355         5.72612         101.213 
        2.78576         42.5983         5.66384          100.48 
        2.79802         42.2348         5.60252         99.8271 
        2.81031         41.7382         5.54197         99.1073 
        2.82259         41.2876         5.48233         98.3677 
        2.83483         40.8727          5.4238         97.7245 
         2.8471         40.4116         5.36601          97.018 
         2.8594         40.0558         5.30888         96.3369 
         2.8717         39.7819         5.25261         95.7132 
        2.88396         39.3767         5.19736         95.0487 
        2.89619          39.084         5.14301         94.3525 
        2.90847         38.7018         5.08923         93.6624 
        2.92072         38.3881         5.03631         93.0899 
        2.93299         38.1815         4.98411         92.4673 
        2.94526         37.8375         4.93261         91.8075 
        2.95753         37.5861         4.88185         91.1787 
        2.96982         37.1813         4.83172           90.58 
        2.98209         36.9923         4.78239         89.9618 
        2.99436         36.7876         4.73371         89.3265 
        3.00666         36.5824         4.68563          88.727 
        3.01894         36.3696         4.63831         88.1411 
        3.03119         36.1005         4.59171         87.5791 
        3.04345         35.8542         4.54575          87.005 
        3.05573           35.84         4.50032         86.4137 
          3.068         35.5497         4.45556         85.8475 
        3.08026         35.3599         4.41146         85.2753 
        3.09254         35.3263         4.36787         84.7207 
        3.10483         35.2355         4.32487         84.1682 
         3.1171         35.0851          4.2825          83.605 
        3.12933         34.8511         4.24081         83.0498 
        3.14159         34.8356         4.19959         82.5014 
