# k  (h/Mpc)    Pcb(k)  (Mpc/h)^3    Pcb_linear(k) (Mpc/h)^3    Pcb_NL(k) (Mpc/h)^3   ShotnoiseSubtracted = false
      0.0156606         4231.85         4236.47         4214.64 
      0.0273761         3670.56         3665.29          3652.9 
      0.0384619         2789.16          2762.2         2756.32 
      0.0498308         2182.06         2173.01         2168.75 
      0.0625568         1841.07         1846.98         1841.71 
      0.0751274          1600.9         1569.31         1560.48 
      0.0867833            1265         1263.52         1262.06 
      0.0984825         1030.91         999.937         1005.06 
       0.111151          865.29         834.946         840.029 
       0.123864          777.38         752.466         756.575 
       0.135742         699.434         676.662         680.836 
        0.14762         595.272         578.584         588.394 
       0.160083         494.175         482.286         493.414 
       0.172465          436.95         420.946         434.443 
       0.184281         404.965         388.064         402.403 
       0.196406         369.344         358.377         369.589 
       0.209011         334.409         318.865         331.424 
       0.221538         298.348         278.659         296.213 
       0.233611         270.382         249.327         268.888 
       0.245665         253.998          230.12         247.556 
       0.258103          229.96         214.222         231.594 
       0.270422         215.371         196.846         213.839 
       0.282519         195.663         178.649         196.653 
       0.294636         188.827         162.769         181.766 
       0.306978         166.649         150.589         170.276 
       0.319417         159.341         140.792         159.779 
        0.33169         148.356         131.414         149.763 
       0.343948         141.351         121.763         140.648 
       0.356249         130.324         112.712         133.007 
       0.368458         124.908         105.131         124.169 
        0.38068         117.669         98.7908         117.632 
       0.392856         109.765         93.0034          111.97 
       0.405069         104.161         87.3445         106.035 
       0.417459         98.3432         81.8651         100.368 
       0.429752         94.3798         76.9464         95.5568 
       0.441978         90.1519         72.6293         91.7921 
       0.454294           83.85          68.709         86.9352 
        0.46658         83.6749         65.0307         83.2976 
       0.478753         77.8959         61.5607         79.8692 
       0.490964         75.4425         58.3012         76.6627 
       0.503334         72.2809         55.2926         73.3895 
       0.515665         69.2266         52.5491         71.1522 
       0.527909         66.4406         50.0165         67.4892 
       0.540159         63.9833         47.6205         65.1825 
        0.55248         60.2871         45.3469         62.6142 
       0.564743         59.2451         43.2417         60.6385 
        0.57686         57.3885         41.3069         58.4888 
       0.589077          54.313         39.4805         56.7335 
       0.601441         52.7169         37.7438         54.8484 
        0.61382         51.0907         36.1063         52.8253 
       0.626067         48.9867         34.5783         51.3508 
       0.638306         47.5108         33.1394         49.6233 
       0.650632         46.0223         31.7761          47.975 
       0.662899         44.7092         30.4985         46.4937 
       0.675076         42.7988         29.3013         45.1507 
       0.687267         42.2554         28.1668         43.8223 
       0.699615         40.7374         27.0781         42.7794 
       0.711937         38.9574          26.049         41.3285 
       0.724148         38.7766         25.0821         40.5024 
       0.736433         36.6024         24.1595         39.2843 
       0.748747         36.1204          23.282         38.2476 
       0.761037         35.1229         22.4501         37.3395 
       0.773197         34.2175         21.6675         36.5105 
       0.785376         32.9384         20.9214         35.5671 
       0.797761         32.4539         20.1988          34.776 
       0.810096         31.6954         19.5132         33.9166 
       0.822371         30.8966         18.8627         33.0341 
       0.834626          29.994         18.2432          32.438 
       0.846916         29.2146         17.6499         31.6489 
       0.859215         28.2507         17.0829         30.9449 
       0.871383         27.8406         16.5465         30.3576 
        0.88363         27.1362         16.0301         29.7524 
       0.895928         26.5433         15.5339         29.0236 
       0.908253         25.9844         15.0579         28.5373 
       0.920535         25.4035         14.6035          27.917 
       0.932774         24.9859         14.1695         27.3329 
        0.94508          24.364         13.7511         26.7859 
       0.957324         23.8868         13.3517         26.3076 
        0.96953         23.2495         12.9694         25.7707 
       0.981769         22.9362         12.6012         25.3583 
       0.994071         22.3437         12.2457         24.8552 
         1.0064         21.8159         11.9033         24.4287 
        1.01868         21.3737          11.575         24.0213 
        1.03092         21.1942         11.2607         23.5666 
         1.0432         20.5374         10.9569         23.1116 
        1.05553         20.1868         10.6633         22.8555 
        1.06777         19.6262         10.3825         22.3546 
           1.08         19.2513         10.1122         22.0089 
        1.09227         18.9471         9.85073         21.7044 
         1.1046         18.6696         9.59752         21.2947 
         1.1169         18.2761         9.35371         20.9582 
        1.12915         18.1296          9.1196         20.6677 
        1.14142           17.51         8.89305         20.3197 
        1.15365         17.3829         8.67489         20.0167 
        1.16585         17.1672         8.46466         19.7529 
        1.17807         16.6972         8.26117         19.3809 
        1.19037         16.5243         8.06306         19.1825 
        1.20276         16.2396         7.87012         18.8679 
        1.21504         15.9617         7.68504         18.6361 
        1.22728         15.6005          7.5067         18.3455 
        1.23954         15.3955         7.33362          18.088 
        1.25184         15.1137         7.16568         17.8535 
        1.26414         14.9113         7.00294         17.5804 
        1.27632         14.6409         6.84673          17.344 
         1.2886         14.4844          6.6942          17.134 
        1.30093         14.1496          6.5458         16.9602 
        1.31316         13.9755         6.40299         16.6901 
        1.32541         13.7814         6.26442          16.527 
        1.33772         13.5252          6.1292         16.2921 
        1.35005         13.3639         5.99788         16.1085 
        1.36225          13.154         5.87177         15.8873 
        1.37447         12.9111         5.74904         15.6953 
        1.38676         12.7349         5.62928         15.5233 
        1.39907          12.526         5.51273         15.3298 
        1.41133          12.352             5.4         15.1529 
        1.42358         12.1631         5.29053         14.9584 
        1.43591         12.0052         5.18335         14.8246 
        1.44818          11.797         5.07973         14.6554 
        1.46037         11.7144         4.97958         14.4592 
        1.47263          11.495         4.88157         14.3356 
        1.48494         11.4057         4.78583         14.1338 
        1.49724         11.1936         4.69274         14.0152 
        1.50952         11.0996         4.60232         13.8683 
        1.52178         10.9141         4.51441         13.6997 
        1.53409         10.7105         4.42846         13.5559 
        1.54637         10.6681         4.34493         13.3858 
        1.55858         10.5272         4.26403         13.2685 
        1.57081         10.2997         4.18507         13.1473 
        1.58313         10.2368         4.10763         13.0109 
        1.59544          10.046          4.0322         12.8891 
        1.60767         9.94562         3.95914         12.7448 
        1.61994         9.78219         3.88765         12.6341 
        1.63225         9.70211         3.81777         12.5169 
        1.64452         9.57136         3.74981         12.4003 
        1.65676         9.43866         3.68372         12.2701 
          1.669         9.36751         3.61917         12.1457 
        1.68133         9.17606         3.55576         12.0288 
        1.69363         9.07391         3.49406         11.9147 
        1.70585         8.96478         3.43422         11.8211 
        1.71809         8.86663         3.37567         11.7098 
        1.73038         8.78525         3.31829         11.6133 
        1.74268         8.67453         3.26221         11.5023 
        1.75493         8.53237         3.20769         11.3815 
        1.76714         8.52696         3.15456         11.2995 
        1.77942         8.40335         3.10236         11.1813 
        1.79173         8.25645         3.05121         11.0941 
        1.80402         8.21135         3.00131         11.0006 
         1.8163         8.10497         2.95257         10.9127 
         1.8286         7.97757         2.90482         10.8201 
         1.8409         7.90375         2.85817         10.7341 
        1.85315         7.81133         2.81271         10.6318 
        1.86537         7.75065         2.76832         10.5494 
        1.87765         7.66945         2.72473         10.4619 
        1.88995         7.52707         2.68197         10.3822 
        1.90221         7.49931         2.64028         10.2806 
        1.91445         7.39678         2.59954          10.221 
        1.92674         7.31864         2.55953         10.1232 
        1.93902          7.2648         2.52035         10.0564 
        1.95124         7.16665         2.48221         9.96203 
         1.9635         7.10079         2.44475         9.89521 
        1.97583         7.04299         2.40784         9.80672 
        1.98812         6.96976         2.37182          9.7194 
        2.00039         6.88916         2.33662         9.66816 
        2.01264         6.82798         2.30216         9.59435 
        2.02492         6.76674         2.26835         9.51241 
        2.03717         6.67756         2.23527         9.44333 
        2.04942         6.59091          2.2029         9.37926 
        2.06171         6.56844         2.17106         9.31027 
        2.07397         6.48736         2.13992         9.24229 
        2.08629         6.42154         2.10926         9.17859 
        2.09857         6.35692         2.07927         9.10707 
        2.11081         6.31248         2.04999         9.05418 
        2.12309         6.23233          2.0212         8.96938 
        2.13538         6.18065         1.99293         8.91806 
        2.14763         6.10995         1.96529         8.85471 
        2.15986         6.07488         1.93824          8.7935 
        2.17214         6.01784         1.91159         8.72104 
        2.18443         5.95302         1.88542         8.66897 
        2.19671         5.90664         1.85976         8.61131 
        2.20898         5.83236         1.83462          8.5531 
        2.22126         5.78754         1.80991         8.49021 
        2.23354         5.74581         1.78567         8.42691 
         2.2458         5.68171         1.76191         8.37369 
        2.25807         5.64257         1.73857         8.31842 
        2.27035         5.59146         1.71563          8.2666 
        2.28263         5.54972         1.69311         8.20895 
         2.2949         5.49409         1.67101         8.16073 
        2.30718         5.44742          1.6493         8.11803 
        2.31946         5.41374         1.62796          8.0622 
        2.33169         5.35626         1.60709         8.00611 
        2.34393         5.32964         1.58655         7.95352 
        2.35622          5.2883         1.56631         7.90263 
        2.36847         5.24142         1.54648         7.85244 
        2.38076         5.20041         1.52693         7.80318 
        2.39305         5.13989         1.50773         7.74671 
        2.40534         5.11266         1.48886          7.6982 
        2.41762         5.06037         1.47031         7.66076 
        2.42989         5.04121          1.4521         7.61608 
        2.44216         5.00821         1.43421         7.56582 
         2.4544         4.95099         1.41666         7.51672 
        2.46667         4.93974         1.39936         7.47222 
        2.47897         4.89224         1.38231         7.42252 
        2.49124         4.84364         1.36559         7.37816 
        2.50349         4.82458         1.34917         7.34331 
        2.51578           4.768         1.33297         7.29878 
        2.52805         4.74804         1.31707         7.25445 
        2.54029         4.71143         1.30146          7.2122 
        2.55257         4.70141         1.28606         7.17272 
        2.56487         4.65233         1.27089         7.12252 
        2.57716         4.62613         1.25597         7.08432 
        2.58942         4.59245         1.24133         7.04416 
        2.60167         4.56521         1.22694         7.00135 
        2.61395         4.51581         1.21276         6.96425 
        2.62624         4.52078         1.19878         6.92617 
        2.63849         4.49012         1.18506         6.88392 
        2.65073         4.45249         1.17157         6.84183 
        2.66302         4.43599         1.15825         6.80305 
         2.6753         4.40078         1.14514         6.76616 
        2.68756         4.37524         1.13226         6.73301 
        2.69983         4.35552         1.11957         6.68971 
        2.71213         4.32857         1.10705         6.65268 
        2.72441         4.30422         1.09474         6.61793 
        2.73665         4.28847         1.08265         6.57863 
         2.7489         4.26033         1.07074         6.54616 
        2.76118          4.2324         1.05898         6.51792 
        2.77349         4.22463         1.04737         6.47497 
        2.78576         4.20452         1.03598         6.44035 
        2.79802         4.18824         1.02476         6.40804 
        2.81031         4.16112         1.01369         6.37506 
        2.82259         4.14629         1.00278         6.34095 
        2.83483         4.14033        0.992075         6.30653 
         2.8471         4.12009        0.981504         6.27439 
         2.8594          4.1083        0.971056         6.24296 
         2.8717         4.08045        0.960762         6.20584 
        2.88396           4.077        0.950657         6.17387 
        2.89619         4.04412        0.940715         6.14583 
        2.90847         4.04234        0.930878         6.10892 
        2.92072         4.04366        0.921198         6.07818 
        2.93299         4.03773        0.911651         6.04911 
        2.94526         4.02794         0.90223         6.01638 
        2.95753         4.01084        0.892946          5.9851 
        2.96982         3.98793        0.883777         5.95611 
        2.98209         3.99035        0.874755          5.9242 
        2.99436         3.98341        0.865851         5.89432 
        3.00666         3.99239        0.857056         5.86675 
        3.01894         3.98039          0.8484         5.83197 
        3.03119          3.9817        0.839876         5.80471 
        3.04345         3.97051        0.831469         5.77787 
        3.05573         3.97291         0.82316         5.74648 
          3.068         3.95998        0.814973         5.72118 
        3.08026         3.97738        0.806906         5.69396 
        3.09254          3.9781        0.798934         5.66432 
        3.10483         3.98094        0.791067         5.63828 
         3.1171         3.98688        0.783318         5.61234 
        3.12933         3.99732        0.775693         5.58184 
        3.14159         3.98946        0.768153         5.55308 
