# k  (h/Mpc)    Pcb(k)  (Mpc/h)^3    Pcb_linear(k) (Mpc/h)^3    Pcb_NL(k) (Mpc/h)^3   ShotnoiseSubtracted = false
      0.0156606          6835.4         6847.59         6809.73 
      0.0273761         5914.63         5923.21         5896.94 
      0.0384619         4492.72         4463.41         4447.03 
      0.0498308         3505.25         3511.18         3497.05 
      0.0625568         2957.86         2984.29         2969.74 
      0.0751274         2587.96         2535.59          2513.1 
      0.0867833         2034.62         2041.49         2036.72 
      0.0984825         1670.92          1615.6         1626.54 
       0.111151         1407.16         1349.02         1360.21 
       0.123864         1264.09         1215.75         1225.13 
       0.135742         1139.81         1093.27         1102.91 
        0.14762         973.776         934.807         958.031 
       0.160083         809.232         779.219         805.763 
       0.172465         718.353         680.112         712.752 
       0.184281         664.458         626.984         661.422 
       0.196406         607.299         579.019         606.616 
       0.209011         553.637         515.181         545.486 
       0.221538         496.649          450.22         492.582 
       0.233611           454.6         402.831         450.232 
       0.245665         425.308         371.798         414.214 
       0.258103          390.59         346.112         388.338 
       0.270422         362.458         318.037         359.762 
       0.282519         330.568         288.637         332.523 
       0.294636          323.76          262.98         309.247 
       0.306978         286.141         243.301         291.383 
       0.319417         274.205         227.473         273.683 
        0.33169         256.347         212.321         256.935 
       0.343948         244.666         196.728         243.357 
       0.356249         227.246         182.105         231.205 
       0.368458         219.037         169.856         216.767 
        0.38068         207.709         159.613          205.96 
       0.392856         193.793         150.262         196.721 
       0.405069         185.049         141.119         187.781 
       0.417459         176.035         132.266         177.681 
       0.429752          169.32         124.319         170.137 
       0.441978         162.752         117.344         164.102 
       0.454294          151.51         111.011         155.771 
        0.46658         151.728         105.068         150.207 
       0.478753         142.351         99.4612         144.498 
       0.490964          138.01          94.195         138.898 
       0.503334         131.448         89.3341         133.943 
       0.515665         127.621         84.9016         130.309 
       0.527909         123.429         80.8098         124.305 
       0.540159         119.209         76.9386         120.557 
        0.55248         114.691         73.2653         116.255 
       0.564743         111.612          69.864         113.004 
        0.57686         108.122          66.738         109.233 
       0.589077         103.124         63.7871          106.41 
       0.601441         100.736         60.9811         103.385 
        0.61382         98.6675         58.3355         100.035 
       0.626067         94.6672         55.8668         97.4267 
       0.638306         91.6009          53.542         94.7912 
       0.650632         88.3275         51.3393         91.4439 
       0.662899         87.7004         49.2753          89.194 
       0.675076         84.4547         47.3409         86.9488 
       0.687267         82.7625         45.5079         84.7338 
       0.699615           80.05         43.7491         82.9888 
       0.711937         77.4532         42.0864         80.4298 
       0.724148         76.8651         40.5242         79.2538 
       0.736433         73.3931         39.0336         77.0255 
       0.748747         72.1957         37.6158         75.2487 
       0.761037         70.4213         36.2718         73.4585 
       0.773197         68.8869         35.0074         72.4194 
       0.785376         67.0022         33.8018          70.538 
       0.797761         66.3952         32.6344         69.3339 
       0.810096         64.1898         31.5267           67.71 
       0.822371         62.9734         30.4758         66.2791 
       0.834626         61.4378         29.4748         65.1794 
       0.846916         60.3371         28.5163            63.9 
       0.859215          58.873         27.6001         62.5442 
       0.871383         58.0981         26.7336          61.476 
        0.88363         56.5205         25.8992         60.5495 
       0.895928         55.2782         25.0975         59.3499 
       0.908253         54.0211         24.3284         58.3747 
       0.920535         53.6162         23.5943         57.3392 
       0.932774         52.5767         22.8931         56.3594 
        0.94508         51.7642         22.2171         55.2652 
       0.957324         50.4471         21.5718          54.496 
        0.96953          50.197         20.9542         53.4827 
       0.981769         48.6266         20.3593         52.7984 
       0.994071          47.986         19.7849         51.9793 
         1.0064         46.9476         19.2317         51.1394 
        1.01868         46.1212         18.7013         50.4204 
        1.03092          45.523         18.1935         49.6221 
         1.0432          44.703         17.7027         48.7587 
        1.05553         43.6578         17.2282          48.378 
        1.06777         43.0426         16.7747         47.5342 
           1.08         42.0209         16.3379         46.8181 
        1.09227         41.5791         15.9154         46.2196 
         1.1046         40.9669         15.5063         45.5173 
         1.1169         40.4622         15.1124         44.8788 
        1.12915         39.7572         14.7342         44.3389 
        1.14142         38.9463         14.3681         43.7506 
        1.15365         38.4309         14.0157         43.2243 
        1.16585          37.848          13.676         42.6063 
        1.17807          37.211         13.3472         41.9881 
        1.19037         37.0533         13.0272         41.6393 
        1.20276         36.4504         12.7154         41.0775 
        1.21504         35.8175         12.4164           40.64 
        1.22728         35.1886         12.1283         40.1088 
        1.23954         34.7954         11.8486         39.5309 
        1.25184         34.1682         11.5773         39.1464 
        1.26414         33.7315         11.3144         38.6285 
        1.27632         33.4341          11.062         38.2032 
         1.2886         33.0699         10.8156         37.7961 
        1.30093         32.4151         10.5758         37.3314 
        1.31316         31.9648          10.345         36.9608 
        1.32541         31.7073         10.1212         36.5573 
        1.33772         31.1096          9.9027         36.1639 
        1.35005         30.7258         9.69054         35.7994 
        1.36225         30.2705         9.48678         35.4438 
        1.37447         29.5853          9.2885         35.0153 
        1.38676         29.6059           9.095         34.7157 
        1.39907         29.1186          8.9067         34.3721 
        1.41133         28.5627         8.72456         33.9741 
        1.42358         28.2852         8.54769         33.6305 
        1.43591         27.8858         8.37453         33.3327 
        1.44818         27.6262         8.20712          32.969 
        1.46037         27.3114          8.0453         32.6222 
        1.47263         27.0497         7.88695         32.3675 
        1.48494         26.6092         7.73227         32.0179 
        1.49724         26.5326         7.58187         31.7219 
        1.50952         26.0284         7.43578         31.4719 
        1.52178         25.6919         7.29376          31.133 
        1.53409         25.4303         7.15489           30.86 
        1.54637         25.1591         7.01993         30.5349 
        1.55858         24.5928         6.88922         30.2845 
        1.57081         24.6227         6.76166         30.0304 
        1.58313         24.3232         6.63654         29.7314 
        1.59544         23.8665         6.51466         29.4983 
        1.60767         23.6223         6.39663         29.1914 
        1.61994          23.307         6.28112         28.9709 
        1.63225         23.2213         6.16822          28.767 
        1.64452         22.8266         6.05842         28.5156 
        1.65676         22.6147         5.95164         28.2435 
          1.669         22.4061         5.84735         28.0292 
        1.68133         22.0536         5.74491         27.7808 
        1.69363         21.8004         5.64522         27.4778 
        1.70585         21.5951         5.54854         27.3463 
        1.71809         21.2779         5.45393         27.0784 
        1.73038         21.1339         5.36123         26.8928 
        1.74268         20.9217         5.27063         26.6225 
        1.75493         20.6035         5.18254         26.4361 
        1.76714         20.5378         5.09669         26.2294 
        1.77942           20.31         5.01235         26.0017 
        1.79173         19.8867         4.92971         25.8098 
        1.80402          19.699          4.8491         25.6622 
         1.8163         19.6245         4.77035         25.3812 
         1.8286         19.3087         4.69321         25.2263 
         1.8409         19.1146         4.61784         25.0382 
        1.85315         18.9543         4.54438         24.8474 
        1.86537         18.6927         4.47266         24.6603 
        1.87765         18.5723         4.40223         24.4675 
        1.88995          18.317         4.33315         24.2677 
        1.90221         18.1617         4.26579         24.0872 
        1.91445         17.9572         4.19998         23.9042 
        1.92674         17.7807         4.13532         23.7317 
        1.93902          17.568         4.07203          23.588 
        1.95124         17.3259          4.0104         23.4587 
         1.9635         17.2004         3.94989         23.2355 
        1.97583         17.0307         3.89024         23.0531 
        1.98812         16.8717         3.83206          22.921 
        2.00039         16.7238         3.77518         22.7484 
        2.01264         16.5418         3.71951         22.6045 
        2.02492         16.3816         3.66488         22.4096 
        2.03717         16.1716         3.61144         22.2648 
        2.04942         16.0265         3.55914         22.0993 
        2.06171          15.904         3.50769         21.9476 
        2.07397         15.7573         3.45738         21.7941 
        2.08629         15.6128         3.40784         21.6468 
        2.09857         15.4693         3.35939         21.5031 
        2.11081         15.2713         3.31209         21.3632 
        2.12309         15.1277         3.26558         21.2072 
        2.13538         14.9572          3.2199          21.057 
        2.14763         14.8142         3.17524         20.9272 
        2.15986         14.7743         3.13154          20.805 
        2.17214         14.5826         3.08848         20.6535 
        2.18443         14.4094         3.04619         20.5137 
        2.19671         14.3028         3.00475         20.3651 
        2.20898         14.1577         2.96412         20.2435 
        2.22126         14.0268          2.9242         20.1142 
        2.23354         13.9705         2.88504          19.969 
         2.2458         13.7851         2.84665         19.8736 
        2.25807         13.6346         2.80894         19.7018 
        2.27035         13.5424         2.77187         19.5873 
        2.28263         13.3999         2.73549         19.4581 
         2.2949         13.3221         2.69978          19.349 
        2.30718         13.2149          2.6647         19.2382 
        2.31946         13.0774         2.63022          19.101 
        2.33169         12.9525         2.59651         18.9807 
        2.34393         12.8433         2.56333         18.8712 
        2.35622         12.6763         2.53063         18.7501 
        2.36847         12.6068         2.49859          18.628 
        2.38076         12.4666         2.46701         18.5158 
        2.39305         12.3524         2.43598         18.3938 
        2.40534         12.2662         2.40548         18.2635 
        2.41762         12.1611         2.37552         18.1789 
        2.42989         12.0717          2.3461         18.0574 
        2.44216         11.9574         2.31719         17.9369 
         2.4544         11.9019         2.28883         17.8247 
        2.46667         11.7817         2.26089         17.7291 
        2.47897         11.6521         2.23334          17.608 
        2.49124         11.5793         2.20632          17.505 
        2.50349          11.471          2.1798         17.3947 
        2.51578         11.3832         2.15363         17.3096 
        2.52805          11.299         2.12793         17.2018 
        2.54029         11.2315         2.10272         17.1002 
        2.55257         11.1658         2.07784         16.9934 
        2.56487         10.9913         2.05332         16.8889 
        2.57716         10.9442         2.02923         16.7802 
        2.58942         10.8795         2.00557         16.7008 
        2.60167         10.7863         1.98232         16.6041 
        2.61395         10.7519          1.9594         16.5006 
        2.62624         10.6424         1.93681         16.4076 
        2.63849         10.5538         1.91465         16.3222 
        2.65073         10.4861         1.89286         16.2154 
        2.66302         10.4149         1.87134         16.1252 
         2.6753         10.3629         1.85016         16.0271 
        2.68756         10.2989         1.82935         15.9479 
        2.69983         10.2096         1.80884         15.8448 
        2.71213         10.1468         1.78861         15.7456 
        2.72441         10.0866         1.76872         15.6644 
        2.73665         10.0599         1.74919         15.5697 
         2.7489         9.98305         1.72996         15.4751 
        2.76118         9.88264         1.71096          15.398 
        2.77349           9.842          1.6922         15.3102 
        2.78576         9.78289         1.67379         15.2275 
        2.79802         9.73436         1.65567          15.137 
        2.81031         9.68541         1.63778         15.0529 
        2.82259         9.65472         1.62015         14.9687 
        2.83483         9.57811         1.60286         14.8859 
         2.8471          9.5285         1.58578         14.8049 
         2.8594         9.50916          1.5689         14.7207 
         2.8717         9.46082         1.55227         14.6369 
        2.88396         9.40767         1.53594         14.5574 
        2.89619         9.35865         1.51988         14.4794 
        2.90847         9.31604         1.50398         14.3986 
        2.92072         9.31367         1.48834         14.3121 
        2.93299         9.24392         1.47292         14.2409 
        2.94526         9.23651          1.4577         14.1663 
        2.95753         9.19956          1.4427         14.0853 
        2.96982         9.15567         1.42788         14.0069 
        2.98209         9.14667         1.41331         13.9286 
        2.99436         9.12959         1.39892         13.8513 
        3.00666         9.09837         1.38471         13.7794 
        3.01894         9.07838         1.37073          13.714 
        3.03119         9.06153         1.35695         13.6348 
        3.04345         9.00812         1.34337          13.553 
        3.05573         9.03998         1.32995          13.484 
          3.068          9.0139         1.31672         13.4169 
        3.08026         9.01645         1.30369         13.3359 
        3.09254         9.01191         1.29081         13.2699 
        3.10483         9.00831          1.2781          13.208 
         3.1171         9.01625         1.26557         13.1348 
        3.12933         9.02188         1.25326         13.0624 
        3.14159         8.98445         1.24107          12.994 
