# k  (h/Mpc)    Pcb(k)  (Mpc/h)^3    Pcb_linear(k) (Mpc/h)^3    Pcb_NL(k) (Mpc/h)^3   ShotnoiseSubtracted = false
      0.0156606         7723.22         7738.81         7694.94 
      0.0273761         6678.05         6693.79         6661.41 
      0.0384619         5071.69         5043.96         5022.54 
      0.0498308         3953.74         3967.83         3948.79 
      0.0625568         3336.54         3372.39         3353.35 
      0.0751274         2924.32         2865.32          2836.4 
      0.0867833          2295.8         2306.96         2300.44 
      0.0984825         1889.74         1825.69         1838.97 
       0.111151         1593.17         1524.44         1538.18 
       0.123864         1431.08         1373.84         1385.39 
       0.135742         1291.27         1235.43         1247.32 
        0.14762         1104.72         1056.36         1085.33 
       0.160083         918.679         880.542         913.817 
       0.172465         816.279         768.547         809.633 
       0.184281          754.33         708.511         751.712 
       0.196406         690.248         654.309         689.234 
       0.209011         630.575         582.169         620.276 
       0.221538         566.432         508.762         561.997 
       0.233611         520.259          455.21         514.846 
       0.245665         485.703         420.142         473.599 
       0.258103         448.568         391.117          444.31 
       0.270422         414.724         359.391         412.097 
       0.282519         378.896         326.168          381.54 
       0.294636         372.365         297.175         355.511 
       0.306978          329.53         274.937          335.58 
       0.319417         316.038         257.051         315.284 
        0.33169          295.88         239.929         296.139 
       0.343948         282.359         222.308         281.283 
       0.356249         262.781         205.783         267.583 
       0.368458         253.687         191.942         251.239 
        0.38068         241.014         180.367         238.947 
       0.392856         225.026         169.801         228.435 
       0.405069         215.277         159.469         218.643 
       0.417459          205.05         149.465         206.888 
       0.429752         197.361         140.484         198.403 
       0.441978         190.058         132.603         191.577 
       0.454294         177.069         125.445          182.03 
        0.46658         177.262         118.729         175.861 
       0.478753         166.902         112.394         169.292 
       0.490964         161.761         106.443         162.834 
       0.503334         153.682          100.95         157.329 
       0.515665         149.836         95.9412         153.201 
       0.527909          145.16         91.3173         146.518 
       0.540159         140.302         86.9428         142.186 
        0.55248         135.789         82.7918         137.278 
       0.564743           131.9         78.9483          133.63 
        0.57686         127.716         75.4158         129.213 
       0.589077          122.02         72.0812         126.042 
       0.601441         119.355         68.9104         122.614 
        0.61382         117.329         65.9208         118.826 
       0.626067         112.769          63.131         115.767 
       0.638306         108.819         60.5039         112.867 
       0.650632         104.966         58.0149         108.896 
       0.662899          104.66         55.6824         106.399 
       0.675076         100.889         53.4965         103.795 
       0.687267         98.6445         51.4252         101.275 
       0.699615         95.6358         49.4377         99.2021 
       0.711937         92.7498         47.5588         96.3656 
       0.724148         91.8969         45.7935         95.0063 
       0.736433         88.1964         44.1091         92.4254 
       0.748747         86.5554         42.5069         90.3731 
       0.761037         84.6356         40.9882         88.2259 
       0.773197         82.7898         39.5593         87.1262 
       0.785376         80.8222          38.197           84.89 
       0.797761         80.0206         36.8777           83.55 
       0.810096         77.2332          35.626         81.6419 
       0.822371         75.7698         34.4385         80.0352 
       0.834626         74.0296         33.3073         78.6897 
       0.846916         72.9313         32.2242         77.2552 
       0.859215         71.3284         31.1889          75.667 
       0.871383         70.3717         30.2097         74.3924 
        0.88363          68.433         29.2669         73.3375 
       0.895928         67.0278         28.3609         72.0214 
       0.908253         65.4001         27.4918         70.7906 
       0.920535         65.0503         26.6622         69.6474 
       0.932774         63.7154         25.8698         68.4479 
        0.94508         62.8307         25.1059         67.2074 
       0.957324         61.2447         24.3767         66.3221 
        0.96953         61.2006         23.6788         65.1195 
       0.981769         59.1645         23.0066         64.3429 
       0.994071         58.4835         22.3574          63.382 
         1.0064         57.2071         21.7323         62.3972 
        1.01868         56.3543          21.133           61.55 
        1.03092         55.4609         20.5591         60.6285 
         1.0432          54.515         20.0046         59.6452 
        1.05553         53.1612         19.4684         59.1716 
        1.06777         52.6983         18.9558         58.2397 
           1.08         51.4691         18.4623         57.3965 
        1.09227         50.8472         17.9849         56.5997 
         1.1046           50.09         17.5226         55.8305 
         1.1169         49.5116         17.0774         55.0305 
        1.12915         48.6746           16.65         54.4328 
        1.14142          47.744         16.2364         53.7453 
        1.15365         47.0297         15.8381         53.1228 
        1.16585         46.3193         15.4543         52.3615 
        1.17807         45.5755         15.0828          51.685 
        1.19037         45.4448         14.7211         51.2227 
        1.20276         44.6332         14.3688         50.5847 
        1.21504         44.0523         14.0309         50.0204 
        1.22728         43.1945         13.7053         49.4254 
        1.23954         42.7116         13.3893         48.7376 
        1.25184         41.9921         13.0827         48.2942 
        1.26414         41.3907         12.7856         47.6689 
        1.27632         41.0566         12.5004         47.1813 
         1.2886         40.6238         12.2219         46.6707 
        1.30093         39.9335         11.9509         46.0696 
        1.31316         39.3208         11.6902         45.6919 
        1.32541         39.0598         11.4372         45.1732 
        1.33772         38.3072         11.1903         44.6988 
        1.35005         37.8778         10.9506         44.2599 
        1.36225         37.2598         10.7203         43.8306 
        1.37447         36.3846         10.4963         43.3367 
        1.38676         36.5166         10.2776          42.956 
        1.39907         35.9293         10.0648         42.5613 
        1.41133         35.1871         9.85899         42.1129 
        1.42358         34.8279         9.65913         41.6733 
        1.43591         34.4273         9.46345         41.3163 
        1.44818          34.072         9.27428         40.8399 
        1.46037          33.626         9.09141         40.4688 
        1.47263         33.3873         8.91248         40.1469 
        1.48494           32.73         8.73768         39.7224 
        1.49724         32.6326         8.56772          39.354 
        1.50952         32.1444         8.40264          39.037 
        1.52178         31.6614         8.24215         38.6602 
        1.53409         31.4091         8.08522         38.3201 
        1.54637         30.9842         7.93271         37.9327 
        1.55858         30.2779         7.78501         37.6089 
        1.57081         30.3676         7.64086         37.3172 
        1.58313         29.9908         7.49947         36.9613 
        1.59544         29.4316         7.36175         36.6543 
        1.60767          29.095         7.22837         36.2912 
        1.61994         28.7472         7.09784         36.0095 
        1.63225         28.5999         6.97026          35.741 
        1.64452          28.177         6.84618         35.4405 
        1.65676         27.8756         6.72551         35.1189 
          1.669         27.6027         6.60767         34.8666 
        1.68133          27.262          6.4919         34.5486 
        1.69363         26.8669         6.37925          34.212 
        1.70585          26.659            6.27         34.0321 
        1.71809         26.2215         6.16309         33.6768 
        1.73038          26.088         6.05833         33.4663 
        1.74268          25.751         5.95595         33.1298 
        1.75493         25.4335         5.85641         32.8993 
        1.76714         25.2863          5.7594         32.6589 
        1.77942         25.0012          5.6641         32.3846 
        1.79173         24.5624         5.57071         32.1306 
        1.80402         24.3149         5.47962         31.9619 
         1.8163         24.2072         5.39062         31.5837 
         1.8286         23.7753         5.30345          31.402 
         1.8409         23.5739         5.21828         31.1666 
        1.85315         23.3351         5.13527         30.9475 
        1.86537         23.0221         5.05423         30.7126 
        1.87765         22.8938         4.97464         30.4731 
        1.88995         22.5755         4.89658          30.205 
        1.90221         22.3491         4.82046           29.99 
        1.91445         22.0663         4.74609         29.7721 
        1.92674         21.8721         4.67303         29.5508 
        1.93902          21.615         4.60151         29.3627 
        1.95124         21.2874         4.53186         29.1975 
         1.9635         21.1686         4.46348         28.9345 
        1.97583         20.9462         4.39608         28.7309 
        1.98812         20.7729         4.33033         28.5437 
        2.00039         20.5435         4.26605         28.3304 
        2.01264         20.3022         4.20315         28.1469 
        2.02492         20.1453         4.14141         27.9106 
        2.03717         19.8325         4.08103         27.7301 
        2.04942          19.677         4.02192          27.521 
        2.06171         19.5371         3.96379         27.3409 
        2.07397         19.3359         3.90693         27.1274 
        2.08629         19.1478         3.85095         26.9345 
        2.09857         18.9564         3.79621          26.767 
        2.11081         18.7173         3.74275         26.5802 
        2.12309         18.5902         3.69019         26.3946 
        2.13538         18.3506         3.63857         26.2188 
        2.14763           18.18         3.58811         26.0438 
        2.15986          18.045         3.53873         25.8757 
        2.17214         17.8404         3.49007         25.7053 
        2.18443         17.6705         3.44228         25.5138 
        2.19671         17.4799         3.39545         25.3334 
        2.20898         17.3148         3.34954         25.1669 
        2.22126         17.1874         3.30443         25.0129 
        2.23354         17.0897         3.26017         24.8439 
         2.2458         16.8782          3.2168         24.7061 
        2.25807         16.6603         3.17418         24.4965 
        2.27035         16.5262         3.13229         24.3542 
        2.28263         16.3629         3.09118         24.1959 
         2.2949         16.2685         3.05083         24.0507 
        2.30718         16.1162         3.01119         23.8989 
        2.31946         15.9938         2.97223         23.7304 
        2.33169         15.8187         2.93413         23.5774 
        2.34393         15.6725         2.89664         23.4462 
        2.35622         15.4721         2.85968         23.2887 
        2.36847         15.3555         2.82347         23.1289 
        2.38076         15.1937         2.78779         22.9988 
        2.39305         15.0961         2.75273         22.8488 
        2.40534          14.933         2.71826         22.6766 
        2.41762         14.7884          2.6844         22.5711 
        2.42989         14.6711         2.65116         22.4055 
        2.44216         14.5293         2.61849         22.2698 
         2.4544         14.5136         2.58645         22.1172 
        2.46667         14.3171         2.55486         21.9937 
        2.47897           14.14         2.52373         21.8459 
        2.49124         14.0859         2.49321         21.7122 
        2.50349         13.9158         2.46323         21.5671 
        2.51578         13.8193         2.43366         21.4633 
        2.52805           13.71         2.40462         21.3221 
        2.54029         13.6173         2.37613         21.1905 
        2.55257         13.5182         2.34802         21.0574 
        2.56487         13.3384         2.32031         20.9323 
        2.57716         13.2585         2.29308         20.7866 
        2.58942         13.1854         2.26635         20.6848 
        2.60167         13.0132         2.24008         20.5581 
        2.61395         13.0042         2.21418         20.4311 
        2.62624         12.8983         2.18865         20.3053 
        2.63849         12.7597         2.16361         20.2018 
        2.65073         12.6611         2.13899         20.0669 
        2.66302          12.588         2.11466         19.9577 
         2.6753         12.5298         2.09073         19.8295 
        2.68756         12.4197         2.06721         19.7212 
        2.69983         12.3191         2.04404         19.5974 
        2.71213         12.2144         2.02118         19.4681 
        2.72441         12.1749         1.99871          19.365 
        2.73665         12.0881         1.97663         19.2512 
         2.7489         12.0362          1.9549         19.1312 
        2.76118         11.9037         1.93343         19.0261 
        2.77349          11.841         1.91223         18.9144 
        2.78576         11.7415         1.89143          18.812 
        2.79802         11.7091         1.87095         18.6949 
        2.81031         11.6305         1.85073          18.583 
        2.82259         11.5695         1.83082         18.4829 
        2.83483         11.5151         1.81127         18.3791 
         2.8471         11.4512         1.79197         18.2668 
         2.8594         11.4047          1.7729         18.1559 
         2.8717         11.3423          1.7541         18.0581 
        2.88396         11.2666         1.73565         17.9544 
        2.89619          11.235          1.7175         17.8494 
        2.90847         11.1876         1.69954         17.7566 
        2.92072         11.1449         1.68187         17.6393 
        2.93299         11.0545         1.66444         17.5493 
        2.94526         11.0393         1.64724         17.4569 
        2.95753         10.9904         1.63029         17.3516 
        2.96982         10.9447         1.61355         17.2527 
        2.98209         10.9395         1.59707         17.1564 
        2.99436         10.9089         1.58082         17.0543 
        3.00666          10.881         1.56476         16.9602 
        3.01894         10.8531         1.54896         16.8795 
        3.03119         10.8154          1.5334         16.7796 
        3.04345         10.7508         1.51805         16.6733 
        3.05573         10.7701         1.50288          16.585 
          3.068         10.7472         1.48793         16.5016 
        3.08026         10.7249          1.4732         16.3966 
        3.09254         10.7268         1.45865         16.3139 
        3.10483         10.7174         1.44428         16.2341 
         3.1171         10.7412         1.43013          16.139 
        3.12933         10.7085         1.41621         16.0484 
        3.14159         10.6741         1.40245         15.9569 
