# k  (h/Mpc)    Pcb(k)  (Mpc/h)^3    Pcb_linear(k) (Mpc/h)^3    Pcb_NL(k) (Mpc/h)^3   ShotnoiseSubtracted = false
      0.0156606         244.983         245.797         244.669 
      0.0273761         213.862         212.847         212.426 
      0.0384619         162.373         160.457         160.462 
      0.0498308         127.971         126.252         126.347 
      0.0625568         108.054          107.32          107.28 
      0.0751274         92.1844         91.1905         91.0554 
      0.0867833         74.0284         73.4238         73.4124 
      0.0984825         59.1162         58.1084         58.2048 
       0.111151         49.3723         48.5213         48.6058 
       0.123864         44.3167         43.7286         43.7573 
       0.135742         39.7564         39.3236          39.337 
        0.14762         33.8966         33.6242         33.7075 
       0.160083         28.2629         28.0281         28.1417 
       0.172465         24.7025         24.4634         24.5945 
       0.184281         22.8075         22.5525         22.6817 
       0.196406         20.9278         20.8273         20.9161 
       0.209011         18.6846         18.5311         18.6394 
       0.221538          16.415         16.1945         16.3566 
       0.233611         14.6836         14.4899         14.6702 
       0.245665         13.6372         13.3737         13.5303 
       0.258103         12.4921         12.4498         12.6028 
       0.270422         11.5825         11.4399          11.586 
       0.282519         10.5167         10.3824         10.5441 
       0.294636         9.68647         9.45954          9.6309 
       0.306978         8.80363         8.75167         8.92753 
       0.319417             8.3         8.18232         8.35236 
        0.33169         7.73122         7.63732         7.80053 
       0.343948         7.21076         7.07643         7.23858 
       0.356249         6.62497         6.55042         6.73789 
       0.368458         6.21756         6.10983         6.27479 
        0.38068         5.81065         5.74138         5.90551 
       0.392856         5.47662         5.40504         5.57069 
       0.405069         5.16818         5.07616         5.23218 
       0.417459         4.77661         4.75772         4.92269 
       0.429752         4.52276         4.47186         4.63389 
       0.441978         4.28809         4.22097         4.39299 
       0.454294         4.03297         3.99314         4.15538 
        0.46658         3.85471         3.77937          3.9376 
       0.478753         3.63542          3.5777         3.73472 
       0.490964         3.46707         3.38827          3.5553 
       0.503334         3.29953         3.21342         3.36918 
       0.515665         3.10891         3.05398         3.21826 
       0.527909         2.98136          2.9068         3.05807 
       0.540159         2.82172         2.76754         2.91613 
        0.55248         2.67488         2.63541         2.77727 
       0.564743         2.58624         2.51307         2.66593 
        0.57686         2.46678         2.40062         2.54714 
       0.589077         2.33281         2.29447         2.44633 
       0.601441          2.2444         2.19354         2.34174 
        0.61382         2.14818         2.09838         2.24095 
       0.626067         2.04943         2.00958         2.15063 
       0.638306         1.97314         1.92595         2.06404 
       0.650632         1.90549         1.84672         1.98696 
       0.662899         1.82952         1.77247         1.90763 
       0.675076         1.73907         1.70289         1.83773 
       0.687267         1.66945         1.63696         1.76491 
       0.699615         1.62539         1.57369          1.7003 
       0.711937         1.55684         1.51389         1.64367 
       0.724148         1.50947         1.45769         1.58443 
       0.736433         1.44414         1.40407         1.52555 
       0.748747         1.39383         1.35307         1.47911 
       0.761037         1.34024         1.30473         1.42656 
       0.773197         1.29238         1.25925          1.3827 
       0.785376         1.24709         1.21588         1.33583 
       0.797761         1.20552         1.17389         1.28948 
       0.810096         1.17701         1.13404         1.25356 
       0.822371         1.13877         1.09624         1.21028 
       0.834626         1.10314         1.06023         1.17193 
       0.846916         1.06682         1.02576         1.14057 
       0.859215         1.02415        0.992803         1.10729 
       0.871383        0.993789        0.961631         1.07288 
        0.88363        0.964234        0.931619         1.04197 
       0.895928        0.938663        0.902781         1.01065 
       0.908253        0.911551        0.875115        0.982351 
       0.920535        0.884504        0.848707        0.953046 
       0.932774         0.85627        0.823486        0.924721 
        0.94508        0.833737        0.799169         0.90029 
       0.957324        0.811892        0.775956        0.878365 
        0.96953        0.784184        0.753741        0.854143 
       0.981769         0.76181        0.732344        0.829026 
       0.994071        0.742208         0.71168        0.810758 
         1.0064        0.720933        0.691781        0.788264 
        1.01868        0.702529        0.672704        0.768304 
        1.03092        0.687177        0.654436        0.747159 
         1.0432        0.669559        0.636783        0.729127 
        1.05553        0.648619        0.619716         0.71233 
        1.06777        0.631218          0.6034        0.695085 
           1.08        0.619339        0.587691         0.67745 
        1.09227        0.599563        0.572493        0.660683 
         1.1046        0.585271        0.557777        0.646119 
         1.1169        0.570873        0.543608        0.630705 
        1.12915        0.555714        0.530002        0.616046 
        1.14142        0.545732        0.516835        0.601786 
        1.15365        0.532422        0.504157        0.588602 
        1.16585        0.518665        0.491939        0.574773 
        1.17807        0.509525        0.480113        0.562863 
        1.19037        0.492277        0.468599        0.549518 
        1.20276        0.483691        0.457386        0.536486 
        1.21504        0.474049         0.44663        0.527372 
        1.22728        0.464902        0.436266        0.513982 
        1.23954        0.453037        0.426206         0.50504 
        1.25184        0.445211        0.416446        0.492989 
        1.26414         0.43486        0.406989        0.482558 
        1.27632        0.422132         0.39791        0.472987 
         1.2886         0.41189        0.389046        0.462426 
        1.30093        0.403377        0.380421        0.454759 
        1.31316        0.393243        0.372121         0.44496 
        1.32541        0.386032        0.364068        0.436719 
        1.33772        0.378726        0.356209        0.428065 
        1.35005         0.37309        0.348578         0.41994 
        1.36225         0.36484        0.341248        0.411201 
        1.37447        0.357937        0.334116        0.404184 
        1.38676        0.351348        0.327156        0.395669 
        1.39907        0.343918        0.320382        0.388791 
        1.41133        0.335714        0.313831        0.381475 
        1.42358        0.331089        0.307469        0.373522 
        1.43591        0.324585         0.30124        0.368199 
        1.44818         0.31798        0.295218        0.361532 
        1.46037        0.311848        0.289397        0.354082 
        1.47263        0.305727        0.283701        0.348332 
        1.48494        0.300031        0.278137        0.342436 
        1.49724        0.294457        0.272727        0.336477 
        1.50952         0.28849        0.267472        0.329421 
        1.52178         0.28391        0.262364        0.324192 
        1.53409        0.279333        0.257368        0.318749 
        1.54637        0.273106        0.252513        0.312976 
        1.55858        0.269077        0.247812        0.307824 
        1.57081        0.264337        0.243223        0.302383 
        1.58313          0.2604        0.238723           0.298 
        1.59544        0.256084        0.234339        0.292654 
        1.60767        0.251608        0.230093        0.287945 
        1.61994        0.245937        0.225938        0.283674 
        1.63225        0.241438        0.221877        0.279176 
        1.64452        0.238891        0.217927        0.274294 
        1.65676        0.235483        0.214086        0.270126 
          1.669        0.231585        0.210335        0.265584 
        1.68133        0.226932         0.20665        0.261761 
        1.69363        0.222984        0.203064        0.257658 
        1.70585        0.219352        0.199586        0.253687 
        1.71809         0.21586        0.196183        0.249689 
        1.73038        0.213004        0.192848        0.246013 
        1.74268        0.208584        0.189589        0.241978 
        1.75493        0.207367        0.186421        0.238898 
        1.76714        0.203026        0.183333        0.235152 
        1.77942        0.200593        0.180299        0.231728 
        1.79173        0.197549        0.177326        0.227926 
        1.80402        0.193946        0.174427        0.224839 
         1.8163        0.191427        0.171594        0.221075 
         1.8286        0.188404        0.168819        0.218832 
         1.8409        0.185438        0.166108        0.215206 
        1.85315        0.183404        0.163466        0.212108 
        1.86537        0.179437        0.160886        0.209204 
        1.87765         0.17702        0.158353        0.206222 
        1.88995         0.17561        0.155868        0.203576 
        1.90221        0.173319        0.153445        0.200571 
        1.91445         0.16982        0.151077        0.197937 
        1.92674        0.167442        0.148752        0.195242 
        1.93902        0.164947        0.146475        0.192365 
        1.95124        0.162568        0.144258        0.189799 
         1.9635        0.160545        0.142081        0.187184 
        1.97583        0.158797        0.139936        0.184592 
        1.98812        0.156351        0.137843        0.182581 
        2.00039        0.155004        0.135797        0.179855 
        2.01264         0.15255        0.133794        0.177643 
        2.02492        0.151114        0.131829        0.175321 
        2.03717        0.148233        0.129907        0.173067 
        2.04942        0.146739        0.128026         0.17073 
        2.06171        0.144629        0.126175        0.168543 
        2.07397        0.142386        0.124365        0.166508 
        2.08629        0.140928        0.122583        0.164305 
        2.09857        0.139311        0.120841        0.162306 
        2.11081        0.137734        0.119139        0.160031 
        2.12309        0.135465        0.117466        0.158406 
        2.13538        0.134077        0.115823        0.156292 
        2.14763        0.132576        0.114217        0.154471 
        2.15986        0.130729        0.112645        0.152657 
        2.17214        0.129154        0.111096        0.150712 
        2.18443        0.128123        0.109574        0.148823 
        2.19671        0.126198        0.108084        0.147209 
        2.20898        0.124972        0.106622        0.145294 
        2.22126        0.123118        0.105186        0.143703 
        2.23354        0.121684        0.103778        0.142096 
         2.2458        0.120559        0.102397        0.140059 
        2.25807        0.119228         0.10104        0.138725 
        2.27035        0.117756       0.0997068        0.137056 
        2.28263        0.116327       0.0983982        0.135555 
         2.2949        0.115306       0.0971137        0.133862 
        2.30718        0.113717       0.0958519        0.132398 
        2.31946        0.112836       0.0946117        0.130944 
        2.33169         0.11107        0.093399        0.129401 
        2.34393        0.110537       0.0922056        0.128101 
        2.35622        0.109298       0.0910292        0.126513 
        2.36847        0.108183       0.0898767        0.125155 
        2.38076         0.10684       0.0887406        0.123804 
        2.39305        0.105965       0.0876246        0.122437 
        2.40534        0.104663       0.0865276        0.121122 
        2.41762        0.103603       0.0854496        0.119781 
        2.42989        0.102589       0.0843916         0.11843 
        2.44216        0.101654       0.0833516         0.11722 
         2.4544        0.100547       0.0823316        0.116016 
        2.46667       0.0994899       0.0813262         0.11467 
        2.47897       0.0981589       0.0803353        0.113476 
        2.49124       0.0976095       0.0793636        0.112293 
        2.50349       0.0965229       0.0784094        0.111073 
        2.51578       0.0954443        0.077468         0.10991 
        2.52805       0.0950778       0.0765438        0.108805 
        2.54029       0.0939828       0.0756369        0.107713 
        2.55257       0.0932783        0.074742        0.106638 
        2.56487        0.092378       0.0738599        0.105526 
        2.57716        0.091693       0.0729932        0.104432 
        2.58942       0.0906043       0.0721424         0.10333 
        2.60167        0.089708        0.071306        0.102301 
        2.61395       0.0889909       0.0704816        0.101318 
        2.62624       0.0886511       0.0696691        0.100315 
        2.63849       0.0875183        0.068872       0.0993138 
        2.65073       0.0867954       0.0680882       0.0983006 
        2.66302       0.0862635       0.0673138       0.0973155 
         2.6753       0.0855339       0.0665519       0.0963788 
        2.68756       0.0850775       0.0658034       0.0954586 
        2.69983       0.0840695       0.0650658       0.0944097 
        2.71213       0.0834304       0.0643381       0.0935834 
        2.72441       0.0827892       0.0636227       0.0927441 
        2.73665       0.0820363         0.06292       0.0918281 
         2.7489        0.081788       0.0622283       0.0909435 
        2.76118       0.0810802       0.0615448       0.0900856 
        2.77349       0.0803901         0.06087       0.0892699 
        2.78576        0.080034        0.060208       0.0884667 
        2.79802       0.0792776       0.0595561        0.087489 
        2.81031       0.0786404       0.0589124        0.086767 
        2.82259       0.0781405       0.0582785       0.0859157 
        2.83483       0.0777227       0.0576563       0.0850884 
         2.8471       0.0771665        0.057042       0.0844229 
         2.8594       0.0770495       0.0564347       0.0836564 
         2.8717       0.0762425       0.0558365       0.0828407 
        2.88396       0.0759379       0.0552492       0.0821295 
        2.89619       0.0753518       0.0546714       0.0814126 
        2.90847       0.0749397       0.0540997        0.080672 
        2.92072       0.0743833       0.0535371       0.0798929 
        2.93299       0.0740937       0.0529823        0.079178 
        2.94526       0.0737861       0.0524348       0.0785188 
        2.95753       0.0732387       0.0518952       0.0778288 
        2.96982       0.0729833       0.0513623       0.0770957 
        2.98209       0.0723425        0.050838       0.0764034 
        2.99436       0.0722555       0.0503205       0.0757384 
        3.00666       0.0719496       0.0498094       0.0750718 
        3.01894        0.071675       0.0493064       0.0744679 
        3.03119       0.0714499        0.048811       0.0738236 
        3.04345       0.0709692       0.0483224       0.0731938 
        3.05573       0.0710492       0.0478395       0.0725887 
          3.068       0.0706892       0.0473637       0.0719268 
        3.08026       0.0703934       0.0468949         0.07134 
        3.09254       0.0702965       0.0464315       0.0707488 
        3.10483       0.0700413       0.0459744       0.0701594 
         3.1171        0.069969        0.045524       0.0695439 
        3.12933       0.0696285       0.0450808       0.0689083 
        3.14159       0.0693546       0.0446427       0.0683995 
