# k  (h/Mpc)    Pcb(k)  (Mpc/h)^3    Pcb_linear(k) (Mpc/h)^3    Pcb_NL(k) (Mpc/h)^3   ShotnoiseSubtracted = false
      0.0156606         12751.9         12794.2         12711.8 
      0.0273761         10986.6         11064.1         10986.5 
      0.0384619         8332.75         8336.27         8274.89 
      0.0498308         6469.89         6557.33         6498.22 
      0.0625568         5462.03         5573.08         5518.16 
      0.0751274         4823.77         4735.02         4655.49 
      0.0867833         3763.06         3812.25          3790.5 
      0.0984825         3131.98         3016.93         3045.35 
       0.111151         2655.73         2519.09         2550.41 
       0.123864         2383.56         2270.22         2296.29 
       0.135742          2158.8          2041.5         2068.19 
        0.14762         1860.97         1745.59         1814.45 
       0.160083          1556.8         1455.05         1536.46 
       0.172465         1387.42         1269.98         1372.17 
       0.184281         1273.59         1170.77         1276.09 
       0.196406         1176.33         1081.21         1170.36 
       0.209011         1085.64         961.997         1056.64 
       0.221538         979.052         840.696         971.423 
       0.233611         915.915         752.204         899.178 
       0.245665         843.436         694.256         827.504 
       0.258103         803.966         646.293         778.574 
       0.270422         728.661         593.868         726.195 
       0.282519           674.1         538.969         678.128 
       0.294636         667.942         491.061         636.974 
       0.306978         597.297         454.314         605.752 
       0.319417         576.497         424.757         569.863 
        0.33169         542.848         396.465         536.642 
       0.343948         517.288         367.348         515.681 
       0.356249          485.18         340.041         493.352 
       0.368458         470.702          317.17         466.257 
        0.38068         452.104         298.043         445.584 
       0.392856         424.795         280.582         427.463 
       0.405069         407.656          263.51          413.28 
       0.417459         390.109         246.979         392.585 
       0.429752         377.994          232.14         378.067 
       0.441978         365.689         219.115         366.647 
       0.454294         344.017         207.288         350.068 
        0.46658         340.335         196.191         340.672 
       0.478753         327.187         185.722         328.804 
       0.490964         315.894         175.889         317.438 
       0.503334         298.081         166.812         308.467 
       0.515665         295.734         158.535         301.488 
       0.527909         286.147         150.895          291.68 
       0.540159         278.424         143.666         283.333 
        0.55248         272.937         136.807         275.048 
       0.564743         266.812         130.456         269.292 
        0.57686         256.964         124.619         261.017 
       0.589077         247.057         119.108          255.36 
       0.601441         243.807         113.869         249.245 
        0.61382         240.854         108.929         243.519 
       0.626067         235.286         104.319          237.85 
       0.638306         224.453          99.978         233.152 
       0.650632         219.201          95.865         225.911 
       0.662899         218.501         92.0108         222.344 
       0.675076         210.383         88.3988         217.518 
       0.687267         205.023         84.9761         212.717 
       0.699615         201.312         81.6919         208.597 
       0.711937         196.976         78.5872         204.565 
       0.724148         192.686         75.6702         201.524 
       0.736433         188.338         72.8868         197.025 
       0.748747           184.4         70.2393         193.076 
       0.761037         181.597         67.7297         189.359 
       0.773197         178.143         65.3687         187.123 
       0.785376         176.133         63.1175         183.089 
       0.797761         172.129         60.9376         180.729 
       0.810096         168.764         58.8692          177.46 
       0.822371         162.886         56.9069         174.494 
       0.834626         161.482         55.0377         171.573 
       0.846916         159.296         53.2479         169.041 
       0.859215         157.834         51.5372         166.373 
       0.871383         154.219         49.9191         163.601 
        0.88363         151.857         48.3611         161.765 
       0.895928           148.7         46.8641         159.431 
       0.908253         144.665         45.4279         156.541 
       0.920535         144.088         44.0571         154.533 
       0.932774         139.534         42.7479         152.061 
        0.94508         138.496         41.4855         150.272 
       0.957324         137.448         40.2805         148.055 
        0.96953         136.252         39.1273         145.703 
       0.981769         131.986         38.0166         144.399 
       0.994071         131.271         36.9439         142.382 
         1.0064         128.049         35.9109         140.251 
        1.01868         126.699         34.9206         138.699 
        1.03092         124.591         33.9723         137.045 
         1.0432         122.358         33.0559         135.262 
        1.05553         119.809         32.1699         133.854 
        1.06777         119.574          31.323         132.382 
           1.08          117.07         30.5075         130.606 
        1.09227         115.654         29.7186         129.201 
         1.1046         113.637         28.9547         127.601 
         1.1169         112.292         28.2191         125.879 
        1.12915         110.527         27.5128         124.564 
        1.14142         108.825         26.8293         122.987 
        1.15365         106.933         26.1712         121.646 
        1.16585         105.585          25.537         120.161 
        1.17807         103.915         24.9231         119.202 
        1.19037         103.648         24.3254         117.935 
        1.20276         101.354         23.7433         116.513 
        1.21504         100.517         23.1849         115.178 
        1.22728         98.3815         22.6469         113.956 
        1.23954         97.6737         22.1247          112.76 
        1.25184         95.6044         21.6181         111.623 
        1.26414         94.4914         21.1271         110.497 
        1.27632         93.6418         20.6558         109.833 
         1.2886         91.9791         20.1957          108.21 
        1.30093         90.4273          19.748         107.031 
        1.31316         89.7598         19.3171         106.128 
        1.32541         88.6857         18.8991         105.177 
        1.33772         87.4477         18.4911         104.082 
        1.35005         86.5609          18.095         103.005 
        1.36225         85.3241         17.7145         102.031 
        1.37447         83.5067         17.3442         100.935 
        1.38676         83.4197         16.9829         99.8308 
        1.39907         81.6461         16.6313         99.0918 
        1.41133         80.3533         16.2912         98.3113 
        1.42358         79.4829         15.9609         97.1608 
        1.43591         78.9067         15.6376         96.2213 
        1.44818         77.8374          15.325         95.3346 
        1.46037         76.6922         15.0228          94.526 
        1.47263         75.4434         14.7272         93.7725 
        1.48494         74.8949         14.4383         92.8241 
        1.49724         73.5861         14.1575         91.8476 
        1.50952         72.8304         13.8847         91.0089 
        1.52178         71.9291         13.6195         90.2826 
        1.53409         71.3495         13.3602          89.496 
        1.54637         69.5858         13.1082         88.6319 
        1.55858         68.9802         12.8641            87.8 
        1.57081         68.2655         12.6259         87.1132 
        1.58313         67.1974         12.3923         86.3728 
        1.59544         66.4355         12.1647         85.5403 
        1.60767         65.7069         11.9443         84.8117 
        1.61994         64.7893         11.7286          84.231 
        1.63225           63.83         11.5178         83.2631 
        1.64452         63.1309         11.3128         82.6681 
        1.65676         62.1746         11.1134         81.8982 
          1.669          61.753         10.9186         81.2501 
        1.68133         61.0796         10.7274           80.51 
        1.69363         60.0388         10.5412          79.935 
        1.70585         59.6149         10.3607         79.2067 
        1.71809         58.3494          10.184         78.6382 
        1.73038         57.7987         10.0109         77.8875 
        1.74268         57.0329         9.84174         77.2714 
        1.75493         56.4537         9.67725         76.5942 
        1.76714         55.7133         9.51695         75.9391 
        1.77942         55.3924         9.35947         75.3379 
        1.79173         54.4025         9.20515          74.647 
        1.80402         53.8565         9.05464         74.1347 
         1.8163         53.1799         8.90757         73.4295 
         1.8286         52.3756         8.76353           72.98 
         1.8409         51.6521          8.6228         72.2754 
        1.85315         51.0505         8.48563         71.8365 
        1.86537         50.5049         8.35171         71.1992 
        1.87765         49.9377          8.2202         70.5218 
        1.88995          49.309          8.0912          69.991 
        1.90221         48.9023         7.96543         69.4269 
        1.91445         48.1211         7.84253         68.9431 
        1.92674         47.6315         7.72181         68.3575 
        1.93902         47.0541         7.60362         67.7795 
        1.95124         46.6681         7.48854         67.3536 
         1.9635         45.8071         7.37555         66.7328 
        1.97583         45.3734         7.26417         66.2978 
        1.98812         44.6757         7.15552         65.7151 
        2.00039         44.3809         7.04931         65.1935 
        2.01264          43.627         6.94536         64.7275 
        2.02492         43.2331         6.84336         64.2418 
        2.03717         42.6111         6.74357         63.6853 
        2.04942          42.095          6.6459         63.2441 
        2.06171         41.6567         6.54984         62.6842 
        2.07397          41.049         6.45589         62.2764 
        2.08629         40.6146         6.36339         61.7476 
        2.09857         40.2915         6.27293         61.3386 
        2.11081         39.6063         6.18459          60.816 
        2.12309         39.2355         6.09775         60.3614 
        2.13538         38.7623         6.01245         59.9394 
        2.14763         38.4117         5.92907         59.4827 
        2.15986          38.174         5.84746         59.0101 
        2.17214         37.4229         5.76706          58.654 
        2.18443         37.2315         5.68809          58.133 
        2.19671          36.568          5.6107         57.6869 
        2.20898         36.1401         5.53485         57.2502 
        2.22126         35.8483         5.46031         56.8202 
        2.23354         35.3758         5.38717         56.4618 
         2.2458         35.0927          5.3155         56.0227 
        2.25807         34.5042         5.24507         55.5793 
        2.27035         34.1524         5.17586         55.1875 
        2.28263         33.7284         5.10793         54.7913 
         2.2949         33.3448         5.04125         54.3997 
        2.30718         33.0538         4.97574         53.9987 
        2.31946         32.6265         4.91137         53.6159 
        2.33169         32.3386         4.84841         53.2016 
        2.34393         31.8556         4.78646         52.7941 
        2.35622         31.5167         4.72539         52.4558 
        2.36847         31.1465         4.66556         52.0374 
        2.38076          30.943         4.60659         51.7103 
        2.39305         30.5543         4.54866         51.3416 
        2.40534         30.2398         4.49171         50.9006 
        2.41762         29.8552         4.43575         50.5563 
        2.42989         29.5212         4.38083         50.2234 
        2.44216         29.2459         4.32685          49.858 
         2.4544         28.9484         4.27389         49.5216 
        2.46667         28.4692         4.22171         49.1399 
        2.47897         28.2874         4.17026         48.8173 
        2.49124         27.9976         4.11982         48.4552 
        2.50349         27.6458         4.07029         48.1516 
        2.51578          27.289         4.02142         47.8165 
        2.52805         27.0759         3.97344         47.4551 
        2.54029         26.9009         3.92637         47.1347 
        2.55257         26.5537         3.87991         46.8106 
        2.56487         26.3352         3.83412         46.4836 
        2.57716         26.0431         3.78913         46.1644 
        2.58942         25.7286         3.74497         45.8594 
        2.60167         25.4413         3.70155         45.5081 
        2.61395         25.2195         3.65875         45.2058 
        2.62624         24.9644         3.61657         44.9106 
        2.63849         24.7785          3.5752         44.5968 
        2.65073         24.5028         3.53451         44.2704 
        2.66302          24.176         3.49431         43.9969 
         2.6753         23.9906         3.45476         43.6953 
        2.68756         23.7578          3.4159         43.4095 
        2.69983         23.5894         3.37762         43.1011 
        2.71213         23.3326         3.33984         42.8201 
        2.72441         23.1755          3.3027         42.5089 
        2.73665         22.9078         3.26622         42.2277 
         2.7489         22.7246         3.23031         41.9507 
        2.76118         22.5492         3.19484          41.641 
        2.77349         22.3914         3.15981         41.3909 
        2.78576         22.2147         3.12544         41.1145 
        2.79802         21.8986          3.0916         40.8365 
        2.81031         21.7977         3.05819         40.5852 
        2.82259          21.657         3.02528         40.3026 
        2.83483         21.4205         2.99298         40.0243 
         2.8471         21.3551         2.96109         39.7586 
         2.8594         21.1177         2.92957         39.5114 
         2.8717          20.917         2.89851         39.2418 
        2.88396         20.7766         2.86803         38.9729 
        2.89619         20.7103         2.83803         38.7256 
        2.90847         20.5386         2.80836          38.467 
        2.92072         20.3621         2.77915         38.2371 
        2.93299         20.3059         2.75035         37.9846 
        2.94526         20.1753         2.72193         37.7356 
        2.95753          20.025         2.69392         37.4966 
        2.96982          19.989         2.66626         37.2554 
        2.98209         19.8028         2.63904         37.0197 
        2.99436          19.781         2.61218         36.7832 
        3.00666         19.6202         2.58564         36.5409 
        3.01894          19.573         2.55953         36.2942 
        3.03119         19.4154         2.53381         36.0573 
        3.04345         19.3781         2.50845         35.8377 
        3.05573         19.3011         2.48338         35.6151 
          3.068          19.272         2.45868         35.3736 
        3.08026         19.2568         2.43435         35.1512 
        3.09254         19.1443          2.4103           34.94 
        3.10483         19.1113         2.38656         34.7244 
         3.1171         19.0727         2.36318         34.5046 
        3.12933         19.0323         2.34018         34.2853 
        3.14159         19.0046         2.31743          34.065 
