# k  (h/Mpc)    Pcb(k)  (Mpc/h)^3    Pcb_linear(k) (Mpc/h)^3    Pcb_NL(k) (Mpc/h)^3   ShotnoiseSubtracted = false
      0.0156606         18830.8         18921.7         18781.4 
      0.0273761         16164.6           16360         16202.3 
      0.0384619         12235.2         12325.4         12188.9 
      0.0498308         9462.83         9694.71         9558.58 
      0.0625568         7992.54         8239.26         8116.89 
      0.0751274         7102.56         7000.11         6827.07 
      0.0867833         5511.62         5635.84         5583.56 
      0.0984825          4637.2         4460.04         4510.79 
       0.111151         3956.38         3724.04          3784.8 
       0.123864         3546.26         3356.11         3405.63 
       0.135742         3226.58         3017.97         3067.96 
        0.14762         2801.63         2580.51         2713.27 
       0.160083         2367.61            2151         2312.89 
       0.172465         2111.83         1877.41         2082.96 
       0.184281         1921.19         1730.75         1938.36 
       0.196406         1800.08         1598.34         1782.58 
       0.209011         1677.61         1422.11         1613.86 
       0.221538         1512.31         1242.79         1501.23 
       0.233611         1440.51         1111.98         1402.52 
       0.245665         1309.83         1026.31         1293.55 
       0.258103         1285.08         955.408         1220.19 
       0.270422         1148.68         877.909         1144.14 
       0.282519         1078.97         796.751         1078.94 
       0.294636         1064.19         725.929         1019.95 
       0.306978         965.905         671.606         975.581 
       0.319417         942.062         627.913         919.226 
        0.33169         886.845         586.089         868.918 
       0.343948         848.431         543.045         840.884 
       0.356249         801.349         502.678         808.436 
       0.368458         773.498         468.867         769.886 
        0.38068         755.617         440.592         739.232 
       0.392856         715.434         414.781         712.071 
       0.405069         681.387         389.542          689.92 
       0.417459         654.876         365.105         662.292 
       0.429752         645.778         343.168         638.894 
       0.441978          623.53         323.915          621.87 
       0.454294         593.811         306.431         595.844 
        0.46658         578.389         290.026         582.824 
       0.478753         564.985          274.55         564.335 
       0.490964          543.26         260.013         546.608 
       0.503334         517.328         246.595         533.478 
       0.515665         516.166          234.36         521.831 
       0.527909         495.776         223.065         509.285 
       0.540159         483.143         212.379         495.592 
        0.55248         473.629         202.239         482.474 
       0.564743         469.294         192.851         474.061 
        0.57686          451.73         184.221         461.011 
       0.589077         439.875         176.076         450.691 
       0.601441         433.056          168.33         441.273 
        0.61382          422.59         161.028         433.457 
       0.626067         417.015         154.213         424.675 
       0.638306         400.731         147.796         416.401 
       0.650632         396.006         141.716         405.405 
       0.662899         392.446         136.018         400.658 
       0.675076         377.876         130.678         394.156 
       0.687267          368.08         125.619         384.765 
       0.699615          364.25         120.764         378.588 
       0.711937         358.504         116.174         371.723 
       0.724148         346.437         111.862         366.329 
       0.736433         338.477         107.747         359.387 
       0.748747          333.95         103.833         352.816 
       0.761037         327.576         100.124         347.992 
       0.773197         323.534         96.6332         342.824 
       0.785376         318.517         93.3054         337.417 
       0.797761         309.952         90.0828         332.081 
       0.810096         307.302         87.0252         327.841 
       0.822371         296.791         84.1244          322.43 
       0.834626         295.251         81.3611         318.156 
       0.846916         288.994         78.7154         313.343 
       0.859215         288.385         76.1865         308.867 
       0.871383         280.816         73.7944           304.5 
        0.88363          279.02         71.4914         301.367 
       0.895928         273.228         69.2783         296.572 
       0.908253         266.208         67.1553         291.824 
       0.920535         263.731         65.1288         288.113 
       0.932774         257.101         63.1933         284.057 
        0.94508         253.977         61.3272         281.099 
       0.957324         252.789         59.5459         277.155 
        0.96953         249.064         57.8412         273.554 
       0.981769         241.925         56.1992         270.766 
       0.994071         240.973         54.6134         267.339 
         1.0064         235.734         53.0864         263.396 
        1.01868         232.835         51.6225         260.124 
        1.03092         226.813         50.2206          257.66 
         1.0432         223.405         48.8659         254.521 
        1.05553         220.583         47.5562          251.17 
        1.06777         219.627         46.3042         248.552 
           1.08         214.171         45.0987         245.595 
        1.09227         211.924         43.9324         242.753 
         1.1046         208.638         42.8031         240.323 
         1.1169         204.087         41.7158         237.036 
        1.12915         201.333         40.6717         234.888 
        1.14142         198.004         39.6613         231.893 
        1.15365         195.235         38.6884         229.451 
        1.16585         192.134         37.7508         226.604 
        1.17807         189.813         36.8433         224.671 
        1.19037          187.69         35.9597         222.564 
        1.20276         184.969         35.0992         219.717 
        1.21504         181.033         34.2738         217.334 
        1.22728         177.847         33.4785         214.572 
        1.23954         177.209         32.7065         212.983 
        1.25184         173.687         31.9576         210.588 
        1.26414          170.58         31.2318         208.457 
        1.27632         169.869         30.5351         206.906 
         1.2886         168.095         29.8549         204.273 
        1.30093         163.234          29.193         201.947 
        1.31316         160.715         28.5561         199.685 
        1.32541         159.375         27.9381         198.042 
        1.33772          157.72          27.335          195.98 
        1.35005         155.164         26.7494         193.781 
        1.36225         152.671          26.187         192.008 
        1.37447         150.548         25.6396         189.689 
        1.38676         148.688         25.1055         188.115 
        1.39907         146.231         24.5857          186.08 
        1.41133         143.875          24.083         184.372 
        1.42358         142.051         23.5947         182.639 
        1.43591         140.346         23.1167         180.718 
        1.44818         138.345         22.6546         179.062 
        1.46037         136.369          22.208         177.185 
        1.47263         134.635         21.7709          175.78 
        1.48494         132.566         21.3439         173.646 
        1.49724         130.742         20.9287         172.253 
        1.50952         128.343         20.5255         170.563 
        1.52178         127.761         20.1334         168.721 
        1.53409         124.961         19.7501         167.334 
        1.54637         123.499         19.3775         165.928 
        1.55858         121.313         19.0167         164.142 
        1.57081         119.628         18.6646         162.748 
        1.58313         118.086         18.3193         161.097 
        1.59544         116.309         17.9828         159.696 
        1.60767         115.226          17.657         158.192 
        1.61994          113.12         17.3382         156.931 
        1.63225         111.724         17.0265          155.15 
        1.64452         109.638         16.7234         153.762 
        1.65676         108.032         16.4287         152.487 
          1.669         107.341         16.1408         151.196 
        1.68133         104.984          15.858         149.801 
        1.69363          103.73         15.5829         148.465 
        1.70585         101.833          15.316         147.147 
        1.71809         100.642         15.0548         145.624 
        1.73038         99.9083         14.7989         144.452 
        1.74268         98.6875         14.5488         143.091 
        1.75493         96.4768         14.3057         141.849 
        1.76714         95.4963         14.0687         140.702 
        1.77942         94.0707         13.8359         139.279 
        1.79173         92.7086         13.6078         138.179 
        1.80402         91.9393         13.3853         136.976 
         1.8163         90.0009         13.1679         135.706 
         1.8286         88.7803          12.955          134.51 
         1.8409         88.1446         12.7469         133.296 
        1.85315         86.5732         12.5441         132.235 
        1.86537         85.5615         12.3462         131.131 
        1.87765          84.754         12.1518         129.986 
        1.88995         83.2917         11.9611         128.874 
        1.90221         82.1389         11.7751         127.783 
        1.91445         81.0796         11.5935         126.596 
        1.92674         79.6886          11.415         125.554 
        1.93902         78.6907         11.2403          124.43 
        1.95124         77.8537         11.0702         123.419 
         1.9635         76.6148         10.9031         122.282 
        1.97583         75.4514         10.7385         121.357 
        1.98812         74.4779         10.5779         120.347 
        2.00039         73.5569         10.4209         119.291 
        2.01264         72.7434         10.2672         118.299 
        2.02492         71.8209         10.1164         117.282 
        2.03717         70.6029         9.96888         116.281 
        2.04942         70.2465         9.82451         115.425 
        2.06171         68.6265          9.6825         114.418 
        2.07397         67.8593         9.54362          113.51 
        2.08629         67.0687         9.40688         112.521 
        2.09857         66.0314         9.27314         111.624 
        2.11081         64.9982         9.14256         110.595 
        2.12309         64.2122         9.01418         109.839 
        2.13538         63.4106         8.88808         108.882 
        2.14763         62.5443         8.76482          108.01 
        2.15986         61.4595         8.64419         107.086 
        2.17214         60.9468         8.52533         106.201 
        2.18443         60.1951          8.4086         105.497 
        2.19671         59.0476         8.29419         104.594 
        2.20898         58.7144         8.18205         103.707 
        2.22126         57.8098         8.07186          102.87 
        2.23354         57.1242         7.96375         102.086 
         2.2458         56.2359          7.8578         101.294 
        2.25807          55.478         7.75368         100.441 
        2.27035         54.8461         7.65136         99.6262 
        2.28263         54.0825         7.55094         98.8426 
         2.2949         53.4803         7.45238         98.0718 
        2.30718         52.4942         7.35554          97.333 
        2.31946         52.1669         7.26038         96.5319 
        2.33169         51.2336         7.16731         95.7917 
        2.34393         50.6948         7.07573         95.0783 
        2.35622         49.9952         6.98546         94.3272 
        2.36847         49.5462         6.89701         93.6837 
        2.38076         48.6653         6.80983         92.8396 
        2.39305         48.1175         6.72419         92.2025 
        2.40534         47.5965         6.64001         91.4455 
        2.41762         47.0139         6.55729          90.698 
        2.42989         46.4311          6.4761         90.0817 
        2.44216         45.9016         6.39629         89.3468 
         2.4544         45.2819         6.31801         88.6705 
        2.46667         44.7589         6.24086         87.9727 
        2.47897         44.2758         6.16482         87.3031 
        2.49124         43.6933         6.09025         86.6819 
        2.50349           43.38         6.01703          85.997 
        2.51578         42.6638         5.94479         85.4391 
        2.52805         42.1798         5.87386         84.7352 
        2.54029         41.7564         5.80427         84.0538 
        2.55257         41.1446          5.7356         83.4823 
        2.56487         40.8029         5.66791         82.9018 
        2.57716         40.2293          5.6014          82.292 
        2.58942         39.6756         5.53611         81.6592 
        2.60167         39.3741         5.47192         81.0669 
        2.61395          38.794         5.40866         80.4799 
        2.62624         38.5461         5.34631          79.837 
        2.63849         38.0303         5.28514         79.2783 
        2.65073         37.6837         5.22499         78.6913 
        2.66302         37.1819         5.16556         78.1069 
         2.6753         36.7528          5.1071         77.5598 
        2.68756         36.3628         5.04966         76.9755 
        2.69983          36.001         4.99306         76.4624 
        2.71213         35.6338         4.93721         75.9238 
        2.72441         35.2667         4.88232         75.3624 
        2.73665         34.7608         4.82839         74.8212 
         2.7489          34.627         4.77531         74.2936 
        2.76118          34.142         4.72286         73.7766 
        2.77349         33.8543         4.67108         73.2455 
        2.78576         33.5929         4.62028         72.6975 
        2.79802         33.2078         4.57025         72.2551 
        2.81031         32.8242         4.52086         71.7245 
        2.82259         32.7552         4.47221         71.1939 
        2.83483         32.2945         4.42446          70.735 
         2.8471         31.9692         4.37732         70.2369 
         2.8594         31.7261         4.33072         69.7248 
         2.8717         31.5535         4.28482         69.2587 
        2.88396         31.1867         4.23975           68.77 
        2.89619         31.0489         4.19541         68.2608 
        2.90847         30.7135         4.15154         67.7911 
        2.92072         30.5268         4.10836         67.3539 
        2.93299         30.3413         4.06579         66.8941 
        2.94526         30.0277         4.02377         66.4428 
        2.95753         29.8401         3.98237         65.9857 
        2.96982         29.6959         3.94147         65.5355 
        2.98209         29.4226         3.90124          65.101 
        2.99436         29.2289         3.86153         64.6307 
        3.00666         29.1673          3.8223          64.209 
        3.01894         28.9022          3.7837         63.7648 
        3.03119         28.7813         3.74569         63.3508 
        3.04345         28.6641         3.70819         62.9516 
        3.05573         28.4002         3.67113         62.5296 
          3.068         28.4059         3.63462         62.1087 
        3.08026         28.2383         3.59865         61.6909 
        3.09254         28.1221         3.56309         61.2861 
        3.10483         28.1149         3.52801         60.8899 
         3.1171         27.9036         3.49345         60.4885 
        3.12933         27.8887         3.45944         60.0793 
        3.14159         27.7581         3.42582         59.6718 
