# k  (h/Mpc)    Pcb(k)  (Mpc/h)^3    Pcb_linear(k) (Mpc/h)^3    Pcb_NL(k) (Mpc/h)^3   ShotnoiseSubtracted = false
      0.0156606         9610.44          9634.6         9577.11 
      0.0273761            8298         8332.81         8285.45 
      0.0384619         6299.17         6278.74         6244.46 
      0.0498308         4902.77         4939.05         4907.26 
      0.0625568         4138.05          4197.8         4167.25 
      0.0751274         3638.54         3566.59         3521.31 
      0.0867833          2848.9         2871.56         2860.33 
      0.0984825          2355.6          2272.5         2291.14 
       0.111151         1990.37         1897.51         1917.26 
       0.123864         1787.44         1710.06         1726.65 
       0.135742         1615.13         1537.77         1554.84 
        0.14762          1385.9         1314.88         1357.53 
       0.160083         1154.67         1096.03         1145.57 
       0.172465         1027.52         956.626         1018.24 
       0.184281         947.387         881.898         946.192 
       0.196406         869.558         814.431         867.365 
       0.209011         797.683         724.637         781.704 
       0.221538         718.064         633.265         712.755 
       0.233611         664.302         566.608         655.816 
       0.245665         617.045         522.958         603.256 
       0.258103          576.89          486.83         566.656 
       0.270422         529.127          447.34         526.799 
       0.282519         485.521         405.986         489.399 
       0.294636          479.57         369.899         457.628 
       0.306978         425.862         342.219         433.399 
       0.319417         409.293         319.955         407.407 
        0.33169          384.24         298.644          383.05 
       0.343948          366.43         276.711         365.754 
       0.356249         342.218         256.142         348.774 
       0.368458         331.294         238.913         328.375 
        0.38068         315.953         224.505         312.923 
       0.392856         295.613         211.353         299.615 
       0.405069         283.589         198.493         288.176 
       0.417459         270.647         186.041         272.882 
       0.429752         260.952         174.863         262.286 
       0.441978         252.039         165.052         253.764 
       0.454294         235.471         156.143          241.61 
        0.46658         235.072         147.784         234.204 
       0.478753          223.14         139.898         225.697 
       0.490964         216.028         132.491         217.407 
       0.503334         204.329         125.654         210.671 
       0.515665         200.806         119.419         205.493 
       0.527909         194.798         113.664         197.541 
       0.540159          188.71         108.219         191.814 
        0.55248         184.198         103.052          185.63 
       0.564743         178.879          98.268          181.18 
        0.57686         172.909         93.8711         175.319 
       0.589077          165.65         89.7205         171.358 
       0.601441         162.532         85.7737         166.997 
        0.61382         160.612         82.0525         162.365 
       0.626067         155.292         78.5801         158.323 
       0.638306         148.884         75.3101         154.829 
       0.650632         144.139          72.212           149.6 
       0.662899          144.25         69.3087         146.606 
       0.675076         139.102         66.5879         143.168 
       0.687267         135.622         64.0097          139.95 
       0.699615         132.251         61.5358         137.074 
       0.711937         128.679         59.1971         133.803 
       0.724148         126.986         56.9998         131.903 
       0.736433         123.082         54.9032         128.606 
       0.748747         120.399          52.909         125.887 
       0.761037         118.279         51.0185         123.048 
       0.773197         115.697           49.24         121.675 
       0.785376         113.738         47.5443         118.703 
       0.797761         112.037         45.9022         117.079 
       0.810096          108.47         44.3442         114.568 
       0.822371         105.906         42.8661         112.547 
       0.834626         103.922         41.4581         110.608 
       0.846916         102.839         40.1099         108.816 
       0.859215          100.98         38.8213         106.791 
       0.871383         99.4098         37.6024             105 
        0.88363         96.9464         36.4289         103.645 
       0.895928          95.132         35.3012         102.073 
       0.908253         92.6641         34.2194          100.21 
       0.920535         92.2209         33.1868         98.8511 
       0.932774         90.0003         32.2006         97.0922 
        0.94508         89.0408         31.2497         95.6175 
       0.957324         87.2536          30.342         94.3669 
        0.96953         87.2834         29.4733         92.7479 
       0.981769         84.3828         28.6366         91.7997 
       0.994071         83.5508         27.8286         90.4476 
         1.0064         81.6789         27.0505         89.1302 
        1.01868         80.8928         26.3046         88.0125 
        1.03092         79.3326         25.5902          86.819 
         1.0432         77.9959         24.8999         85.5883 
        1.05553         75.9645         24.2326         84.8296 
        1.06777         75.8076         23.5946         83.7077 
           1.08         74.2544         22.9803         82.5793 
        1.09227         73.1168          22.386         81.4035 
         1.1046         71.9322         21.8106         80.4288 
         1.1169         71.1073         21.2565         79.2754 
        1.12915           70.18         20.7245         78.4778 
        1.14142         68.8232         20.2097         77.5164 
        1.15365         67.5557         19.7139         76.6293 
        1.16585         66.6991         19.2362          75.645 
        1.17807         65.6795         18.7737         74.8341 
        1.19037         65.5839         18.3235         74.0915 
        1.20276         64.2225          17.885         73.2312 
        1.21504         63.7434         17.4644         72.3469 
        1.22728         62.3663         17.0592         71.6175 
        1.23954         61.7293         16.6658         70.7035 
        1.25184         60.6903         16.2842         70.0934 
        1.26414         59.7133         15.9144         69.2773 
        1.27632         59.1898         15.5594         68.6597 
         1.2886         58.4926         15.2127         67.8052 
        1.30093         57.6987         14.8755         66.9677 
        1.31316          56.856         14.5509         66.5253 
        1.32541         56.4948          14.236          65.776 
        1.33772         55.5092         13.9287         65.0899 
        1.35005         54.9677         13.6303         64.4783 
        1.36225         54.0219         13.3437         63.8178 
        1.37447         52.7752         13.0648         63.1525 
        1.38676         52.9305         12.7927         62.5223 
        1.39907         52.0674         12.5278         62.0346 
        1.41133         51.0515         12.2716          61.518 
        1.42358         50.4571         12.0229           60.77 
        1.43591         50.0768         11.7793         60.2863 
        1.44818         49.3967         11.5438         59.5789 
        1.46037         48.8151         11.3162         59.1525 
        1.47263         48.2984         11.0935         58.6727 
        1.48494         47.4461         10.8759         58.0478 
        1.49724          46.998         10.6644         57.5115 
        1.50952         46.6386         10.4589          56.978 
        1.52178         45.9372         10.2591         56.5313 
        1.53409         45.5288         10.0638         56.0317 
        1.54637         44.6698         9.87396         55.4913 
        1.55858         43.8995         9.69011         54.9568 
        1.57081         43.7984         9.51068         54.5911 
        1.58313          43.259          9.3347         54.1349 
        1.59544          42.558         9.16327         53.6046 
        1.60767         42.0275         8.99725         53.1434 
        1.61994         41.4375         8.83477          52.716 
        1.63225         41.1529         8.67598         52.2286 
        1.64452          40.698         8.52154         51.8404 
        1.65676         40.1162         8.37134          51.361 
          1.669         39.7993         8.22466         51.0135 
        1.68133         39.4401         8.08056         50.5171 
        1.69363         38.7633         7.94034          50.133 
        1.70585         38.5276         7.80436         49.7928 
        1.71809         37.8232         7.67128         49.2864 
        1.73038          37.617         7.54089         48.9777 
        1.74268         36.9951         7.41346          48.492 
        1.75493         36.6458         7.28956         48.1366 
        1.76714         36.2166         7.16881         47.7727 
        1.77942         35.9358         7.05018         47.3992 
        1.79173         35.4475         6.93394         46.9902 
        1.80402         35.0454         6.82056         46.7172 
         1.8163         34.7162         6.70978         46.2176 
         1.8286         34.2142         6.60128         45.9501 
         1.8409         33.8615         6.49527         45.5277 
        1.85315         33.5104         6.39194         45.2632 
        1.86537           33.08         6.29107         44.9173 
        1.87765         32.8745         6.19201         44.5407 
        1.88995         32.3608         6.09484         44.1333 
        1.90221         32.1098          6.0001          43.814 
        1.91445          31.588         5.90752         43.5329 
        1.92674          31.329         5.81659         43.1655 
        1.93902          30.991         5.72756         42.8617 
        1.95124         30.4957         5.64087         42.5889 
         1.9635         30.2329         5.55576         42.2374 
        1.97583         29.9256         5.47186         41.9708 
        1.98812         29.5849         5.39002         41.6348 
        2.00039          29.229         5.31002         41.3203 
        2.01264         28.8761         5.23171         41.0573 
        2.02492         28.6378         5.15488         40.7383 
        2.03717         28.2635         5.07971         40.4292 
        2.04942          27.991         5.00614         40.1206 
        2.06171         27.7047         4.93378         39.8501 
        2.07397         27.4326         4.86301          39.549 
        2.08629         27.1107         4.79333         39.2628 
        2.09857         26.8163         4.72519         38.9997 
        2.11081         26.5007         4.65865         38.7093 
        2.12309         26.2941         4.59324         38.4238 
        2.13538         25.8343         4.52898         38.1993 
        2.14763           25.72         4.46617         37.9043 
        2.15986         25.4087          4.4047         37.6161 
        2.17214         25.1357         4.34414         37.3896 
        2.18443         24.8586         4.28466         37.0784 
        2.19671         24.5418         4.22636         36.8356 
        2.20898          24.302         4.16922         36.5605 
        2.22126         24.1941         4.11307         36.3071 
        2.23354         23.8826         4.05798         36.1005 
         2.2458         23.6534         4.00399         35.8369 
        2.25807         23.3078         3.95094         35.5645 
        2.27035         23.0669          3.8988         35.3462 
        2.28263         22.8926         3.84763         35.1121 
         2.2949         22.6523         3.79741           34.87 
        2.30718         22.4521         3.74806         34.6074 
        2.31946         22.2685         3.69957         34.3779 
        2.33169         21.9887         3.65215         34.1476 
        2.34393         21.7493         3.60548         33.9149 
        2.35622         21.5522         3.55949         33.7146 
        2.36847         21.3095         3.51442         33.4513 
        2.38076         21.1543            3.47         33.2653 
        2.39305         20.8722         3.42635         33.0509 
        2.40534         20.7097         3.38346         32.7811 
        2.41762         20.4773         3.34131         32.6132 
        2.42989           20.38         3.29994         32.3501 
        2.44216         20.0596         3.25927         32.1668 
         2.4544         19.9843         3.21938         31.9462 
        2.46667         19.7566         3.18007         31.7404 
        2.47897         19.5125         3.14132         31.5215 
        2.49124         19.4175         3.10333         31.3195 
        2.50349         19.1506         3.06602         31.1144 
        2.51578         19.0065         3.02921         30.9252 
        2.52805         18.8123         2.99307         30.7144 
        2.54029         18.6602          2.9576         30.5131 
        2.55257         18.5364         2.92261         30.3076 
        2.56487         18.2865         2.88812         30.1248 
        2.57716         18.2031         2.85423         29.9084 
        2.58942          18.043         2.82096         29.7443 
        2.60167         17.8249         2.78825         29.5465 
        2.61395          17.688         2.75602         29.3537 
        2.62624         17.6106         2.72425         29.1611 
        2.63849         17.4023         2.69308          28.995 
        2.65073         17.2136         2.66243         28.7959 
        2.66302         17.0751         2.63215         28.6274 
         2.6753         17.0032         2.60236         28.4431 
        2.68756         16.8731         2.57309         28.2817 
        2.69983         16.6943         2.54425         28.0723 
        2.71213         16.5271         2.51579         27.8958 
        2.72441         16.4094         2.48782         27.7181 
        2.73665         16.3032         2.46034         27.5442 
         2.7489         16.1842         2.43329         27.3786 
        2.76118         16.0751         2.40657         27.2029 
        2.77349         15.9565         2.38018         27.0423 
        2.78576         15.8266         2.35429         26.8875 
        2.79802         15.7239          2.3288         26.7068 
        2.81031         15.6228         2.30363         26.5408 
        2.82259         15.4932         2.27884         26.3926 
        2.83483         15.4435         2.25451         26.2234 
         2.8471         15.3545         2.23049         26.0446 
         2.8594         15.2032         2.20675         25.8818 
         2.8717         15.1499         2.18336         25.7297 
        2.88396         15.0439         2.16039         25.5685 
        2.89619         14.9942          2.1378         25.4148 
        2.90847         14.8783         2.11544         25.2728 
        2.92072         14.8024         2.09344         25.0991 
        2.93299         14.7219         2.07175         24.9679 
        2.94526         14.6691         2.05034         24.8233 
        2.95753         14.6368         2.02924         24.6597 
        2.96982         14.5264          2.0084         24.5141 
        2.98209         14.4471          1.9879         24.3726 
        2.99436         14.4252         1.96767           24.22 
        3.00666         14.3806         1.94768         24.0688 
        3.01894         14.3152         1.92801         23.9353 
        3.03119          14.282         1.90864         23.7926 
        3.04345         14.2181         1.88953         23.6456 
        3.05573          14.223         1.87065         23.5075 
          3.068         14.1329         1.85205         23.3682 
        3.08026         14.1253         1.83371         23.2201 
        3.09254         14.0382          1.8156         23.0869 
        3.10483         14.0695         1.79772         22.9584 
         3.1171         14.1209         1.78011         22.8251 
        3.12933         14.0627         1.76278         22.6912 
        3.14159         13.9897         1.74565         22.5477 
