# k  (h/Mpc)    P(k)  (Mpc/h)^3    P_linear(k)  (Mpc/h)^3     P_NL(k)  ShotnoiseSubtracted = false
      0.0156606         16613.8           16782         16662.9 
      0.0273761           14257           14487         14359.5 
      0.0384619         10790.3         10905.2         10797.5 
      0.0498308         8352.45         8573.21         8466.64 
      0.0625568          7051.3          7283.5         7186.95 
      0.0751274         6252.93         6186.67         6049.37 
      0.0867833         4859.83          4980.2         4939.68 
      0.0984825         4074.21         3940.76         3983.23 
       0.111151         3468.86         3290.17         3339.64 
       0.123864         3110.93         2964.91         3005.48 
       0.135742         2825.88         2666.07         2707.21 
        0.14762         2448.22         2279.53         2388.34 
       0.160083         2061.37         1900.06         2031.52 
       0.172465          1838.6         1658.35         1824.77 
       0.184281         1677.97         1528.77         1697.84 
       0.196406         1564.21         1411.79         1559.75 
       0.209011         1453.38         1256.11         1410.86 
       0.221538          1311.1         1097.71         1308.09 
       0.233611         1241.81         982.154         1218.82 
       0.245665         1133.29         906.483         1123.15 
       0.258103         1102.44         843.851         1058.62 
       0.270422         988.962         775.395          991.07 
       0.282519         924.453          703.71         931.703 
       0.294636         914.332         641.154         879.181 
       0.306978         825.618         593.172         839.568 
       0.319417         802.292          554.58         790.655 
        0.33169         755.985         517.639         746.375 
       0.343948         721.808          479.62         721.103 
       0.356249          680.14         443.967         692.313 
       0.368458         658.556         414.103         657.606 
        0.38068         639.527         389.132         630.516 
       0.392856         604.158         366.334         606.492 
       0.405069          577.28         344.041         587.748 
       0.417459         554.287         322.459         562.149 
       0.429752         542.896         303.084         542.051 
       0.441978         524.728         286.079         527.006 
       0.454294         497.999         270.637         504.474 
        0.46658          487.04         256.148         492.775 
       0.478753         473.761         242.479          476.62 
       0.490964         456.216         229.639         461.239 
       0.503334         432.566          217.79         449.527 
       0.515665         431.534         206.984         439.777 
       0.527909         415.465         197.008         428.132 
       0.540159          405.04         187.569         416.254 
        0.55248         397.137         178.614         405.014 
       0.564743         392.305         170.322         397.638 
        0.57686         377.144         162.701         386.311 
       0.589077         365.317         155.507         377.713 
       0.601441          361.08         148.666         369.394 
        0.61382         353.758         142.216         362.506 
       0.626067         348.391         136.197         354.783 
       0.638306         333.792          130.53         347.996 
       0.650632         328.855          125.16         338.235 
       0.662899         326.136         120.128          334.12 
       0.675076         313.632         115.412         328.057 
       0.687267         305.866         110.943         320.365 
       0.699615         301.683         106.655         314.996 
       0.711937         297.102         102.602         309.342 
       0.724148         287.738         98.7935         304.715 
       0.736433         281.459         95.1596         298.643 
       0.748747         277.224          91.703         293.038 
       0.761037         272.141         88.4265         288.594 
       0.773197         268.752         85.3439         284.605 
       0.785376         264.784         82.4049         279.676 
       0.797761         258.281         79.5587         275.421 
       0.810096         255.493         76.8583         271.619 
       0.822371         246.007         74.2963         267.118 
       0.834626         245.365         71.8559         263.259 
       0.846916         240.083         69.5193         259.384 
       0.859215         240.104         67.2858         255.652 
       0.871383         233.637         65.1731         251.801 
        0.88363         232.079         63.1391           249.2 
       0.895928         226.782         61.1846         245.261 
       0.908253         220.707         59.3096         241.266 
       0.920535         219.737         57.5199          238.04 
       0.932774         212.961         55.8105         234.756 
        0.94508         210.905         54.1624         232.307 
       0.957324         210.354         52.5892         228.884 
        0.96953          207.38         51.0836         225.677 
       0.981769         201.039         49.6334         223.538 
       0.994071         200.173         48.2329          220.64 
         1.0064         195.719         46.8843         217.317 
        1.01868         193.083         45.5914         214.781 
        1.03092         189.324         44.3533         212.575 
         1.0432         185.789         43.1569         209.952 
        1.05553         183.169         42.0002          207.33 
        1.06777         182.925         40.8944         205.229 
           1.08         178.397         39.8298         202.625 
        1.09227         176.216         38.7997         200.458 
         1.1046         173.599         37.8024         198.316 
         1.1169         170.598         36.8421         195.599 
        1.12915         168.114           35.92         193.799 
        1.14142         165.453         35.0276         191.273 
        1.15365         163.231         34.1684         189.264 
        1.16585         160.977         33.3403         186.809 
        1.17807         158.839         32.5388         185.404 
        1.19037         157.583         31.7585         183.536 
        1.20276         154.953         30.9985         181.254 
        1.21504         152.262         30.2696         179.309 
        1.22728         149.341         29.5671         177.037 
        1.23954         148.817         28.8854          175.74 
        1.25184         145.992         28.2239         173.724 
        1.26414          143.72         27.5829         171.905 
        1.27632         143.211         26.9677         170.865 
         1.2886          140.95         26.3669         168.518 
        1.30093         136.973         25.7824         166.695 
        1.31316          136.04         25.2198         164.831 
        1.32541         134.306         24.6741         163.592 
        1.33772         133.056         24.1414         161.823 
        1.35005         131.126         23.6242         160.008 
        1.36225          129.47         23.1275         158.576 
        1.37447         127.349         22.6441         156.749 
        1.38676         125.987         22.1724         155.268 
        1.39907         123.544         21.7133          153.75 
        1.41133         121.845         21.2693         152.447 
        1.42358         120.115         20.8381         151.008 
        1.43591         118.992          20.416         149.314 
        1.44818         117.856         20.0079         148.059 
        1.46037         115.628         19.6134         146.526 
        1.47263         114.503         19.2273         145.417 
        1.48494          112.84         18.8502         143.743 
        1.49724         111.291         18.4836         142.391 
        1.50952         109.263         18.1274           141.1 
        1.52178         108.742         17.7812         139.684 
        1.53409         106.803         17.4426         138.516 
        1.54637         105.328         17.1136         137.309 
        1.55858         103.606          16.795         135.909 
        1.57081         102.252          16.484         134.753 
        1.58313         101.082          16.179         133.444 
        1.59544         99.9408         15.8818         132.287 
        1.60767         98.5782         15.5941         131.004 
        1.61994         96.9846         15.3125         130.103 
        1.63225         95.7381         15.0373         128.545 
        1.64452         94.1186         14.7696         127.438 
        1.65676         92.8487         14.5093         126.405 
          1.669         92.2534          14.255         125.378 
        1.68133         90.5988         14.0053         124.193 
        1.69363          89.714         13.7623         123.141 
        1.70585         88.1705         13.5266         122.016 
        1.71809         86.9963         13.2959         120.896 
        1.73038          86.288         13.0699         119.849 
        1.74268         84.9869         12.8491         118.781 
        1.75493         83.9374         12.6343         117.719 
        1.76714         82.6148          12.425         116.774 
        1.77942          81.828         12.2194         115.652 
        1.79173         80.4823          12.018         114.746 
        1.80402          79.857         11.8214           113.8 
         1.8163         78.4649         11.6294         112.665 
         1.8286         77.3791         11.4414         111.766 
         1.8409         76.6849         11.2576         110.799 
        1.85315         75.4719         11.0786         109.927 
        1.86537           74.63         10.9037         108.985 
        1.87765         73.9502          10.732         107.982 
        1.88995         72.7301         10.5636         107.157 
        1.90221         71.8105         10.3994         106.228 
        1.91445         70.5676          10.239         105.312 
        1.92674         69.7153         10.0813         104.465 
        1.93902         68.8446         9.92704         103.524 
        1.95124         68.2945          9.7768         102.761 
         1.9635         67.1946         9.62928         101.744 
        1.97583         66.3367         9.48387         101.052 
        1.98812         65.5153         9.34202          100.17 
        2.00039         64.4801         9.20336         99.3381 
        2.01264         63.9914         9.06764         98.5006 
        2.02492         63.0253         8.93447         97.7039 
        2.03717         62.0433         8.80419         96.8416 
        2.04942         61.6221         8.67668         96.1643 
        2.06171         60.4257         8.55126         95.3264 
        2.07397         59.8197          8.4286         94.6016 
        2.08629         59.2309         8.30784         93.7762 
        2.09857         58.3433         8.18973         93.0413 
        2.11081         57.3173          8.0744         92.2025 
        2.12309         56.9775         7.96102         91.5755 
        2.13538         56.0726         7.84966         90.8015 
        2.14763         55.4018          7.7408         90.0798 
        2.15986         54.3725         7.63426         89.3419 
        2.17214         53.9743         7.52929           88.62 
        2.18443         53.3587         7.42619           88.01 
        2.19671         52.4357         7.32515         87.2521 
        2.20898          52.245         7.22611           86.56 
        2.22126         51.3836          7.1288         85.8436 
        2.23354         50.6973         7.03331         85.2121 
         2.2458         50.1132         6.93974         84.5772 
        2.25807         49.5243         6.84779         83.8537 
        2.27035         48.9864         6.75743         83.1966 
        2.28263         48.1571         6.66874         82.5353 
         2.2949         47.7873         6.58169         81.9043 
        2.30718           46.96         6.49617         81.3034 
        2.31946         46.4513         6.41212         80.6864 
        2.33169         45.8507         6.32993         80.0578 
        2.34393         45.1254         6.24904          79.451 
        2.35622         44.8646         6.16932         78.8302 
        2.36847         44.2725         6.09121         78.2827 
        2.38076         43.6801         6.01422         77.6197 
        2.39305         43.1524         5.93858         77.0725 
        2.40534         42.7043         5.86423         76.4385 
        2.41762         42.2939         5.79117         75.8268 
        2.42989          41.676         5.71947          75.329 
        2.44216         41.3051         5.64899         74.7337 
         2.4544         40.7955         5.57985         74.1637 
        2.46667         40.3694         5.51172         73.5798 
        2.47897         39.8864         5.44456         73.0496 
        2.49124         39.3482          5.3787         72.5183 
        2.50349         38.8445         5.31404         71.9548 
        2.51578         38.3666         5.25024          71.484 
        2.52805         38.1544          5.1876         70.9236 
        2.54029         37.6247         5.12614          70.367 
        2.55257         37.0649         5.06549         69.8791 
        2.56487         36.8072          5.0057         69.3965 
        2.57716         36.3229         4.94697         68.9061 
        2.58942         35.8791          4.8893         68.3774 
        2.60167         35.4545         4.83262         67.8723 
        2.61395         35.0904         4.77675         67.3865 
        2.62624         34.8388         4.72168         66.8809 
        2.63849         34.5053         4.66766          66.419 
        2.65073          34.134         4.61454         65.9127 
        2.66302         33.6612         4.56205         65.4403 
         2.6753         33.2902         4.51042         64.9819 
        2.68756         32.8253         4.45969         64.4853 
        2.69983         32.6485          4.4097         64.0677 
        2.71213         32.3247         4.36038         63.6304 
        2.72441         32.0312          4.3119         63.1582 
        2.73665         31.6765         4.26427         62.7011 
         2.7489         31.5293         4.21739          62.264 
        2.76118         31.0395         4.17107         61.8373 
        2.77349         30.9123         4.12534         61.4021 
        2.78576         30.6749         4.08047         60.9494 
        2.79802         30.2189         4.03629         60.5609 
        2.81031         29.9525         3.99267         60.1331 
        2.82259         29.7966         3.94971         59.6912 
        2.83483         29.4504         3.90754         59.2904 
         2.8471         29.1246          3.8659         58.8894 
         2.8594         29.0221         3.82475          58.484 
         2.8717         28.7309         3.78421         58.0806 
        2.88396         28.4829          3.7444         57.6608 
        2.89619         28.2327         3.70524         57.2553 
        2.90847         28.0627          3.6665         56.8829 
        2.92072         27.8283         3.62837         56.4908 
        2.93299         27.6913         3.59077         56.1021 
        2.94526         27.4318         3.55366           55.74 
        2.95753         27.2871         3.51709         55.3676 
        2.96982         27.2051         3.48098         54.9885 
        2.98209          26.925         3.44544         54.6247 
        2.99436         26.7456         3.41037          54.241 
        3.00666         26.6722         3.37573         53.8876 
        3.01894         26.4464         3.34164         53.5085 
        3.03119         26.3603         3.30807         53.1608 
        3.04345         26.1855         3.27495         52.8313 
        3.05573         26.1434         3.24222         52.4819 
          3.068         26.0099         3.20998           52.13 
        3.08026         25.8361         3.17821         51.7794 
        3.09254         25.7607          3.1468         51.4399 
        3.10483         25.7706         3.11582         51.1105 
         3.1171         25.7071         3.08529         50.7778 
        3.12933         25.6161         3.05526         50.4399 
        3.14159         25.4877         3.02557         50.1068 
