# k  (h/Mpc)    Pcb(k)  (Mpc/h)^3    Pcb_linear(k) (Mpc/h)^3    Pcb_NL(k) (Mpc/h)^3   ShotnoiseSubtracted = false
      0.0156606         15622.5         15685.6         15576.8 
      0.0273761         13435.9         13563.2         13449.8 
      0.0384619         10181.6         10218.8         10124.1 
      0.0498308         7890.67         8037.93         7944.74 
      0.0625568         6663.52         6831.33         6746.45 
      0.0751274         5904.41            5804         5682.83 
      0.0867833         4593.73         4672.88         4637.64 
      0.0984825         3844.47         3697.99         3736.68 
       0.111151         3270.09         3087.76         3132.19 
       0.123864         2933.56          2782.7         2819.27 
       0.135742         2662.75         2502.34         2539.53 
        0.14762         2304.15         2139.63         2237.56 
       0.160083         1936.64          1783.5         1901.23 
       0.172465          1727.2         1556.66         1705.44 
       0.184281         1578.81         1435.05          1586.7 
       0.196406         1468.08         1325.27         1456.96 
       0.209011          1361.8         1179.15         1317.31 
       0.221538         1228.67         1030.47         1219.11 
       0.233611         1160.15             922         1134.22 
       0.245665         1061.05         850.971          1044.8 
       0.258103         1027.13         792.181         984.369 
       0.270422         923.522         727.922         920.777 
       0.282519         860.997          660.63         864.219 
       0.294636         852.405         601.907         814.682 
       0.306978          767.69         556.865         777.267 
       0.319417         744.598         520.637         731.792 
        0.33169         701.746         485.959         690.365 
       0.343948         669.479         450.269         666.291 
       0.356249         630.079         416.798          639.19 
       0.368458         610.745         388.764         606.366 
        0.38068         591.284         365.319          580.94 
       0.392856         557.857         343.918         558.422 
       0.405069         533.825         322.991         541.074 
       0.417459         512.176         302.729         516.555 
       0.429752         500.019          284.54          497.96 
       0.441978         483.506         268.576         483.851 
       0.454294         457.906         254.079         462.918 
        0.46658         449.036         240.477          451.82 
       0.478753          435.64         227.645         436.772 
       0.490964         419.808         215.592         422.464 
       0.503334         397.285         204.466         411.439 
       0.515665         396.033         194.321         402.491 
       0.527909          381.79         184.956          391.29 
       0.540159         372.197         176.095         380.313 
        0.55248         364.965         167.688         369.901 
       0.564743         359.655         159.903         362.964 
        0.57686         345.761         152.748         352.437 
       0.589077         334.098         145.994          344.65 
       0.601441         330.507         139.572         336.871 
        0.61382         324.545         133.517         330.332 
       0.626067         319.142         127.867         323.133 
       0.638306         305.255         122.546          316.97 
       0.650632         300.133         117.504         307.835 
       0.662899         297.916          112.78         303.923 
       0.675076          286.49         108.353         298.112 
       0.687267         279.424         104.158         291.219 
       0.699615         275.252         100.132         286.182 
       0.711937         270.824         96.3264          281.03 
       0.724148         262.833         92.7509         276.798 
       0.736433         257.201         89.3393         271.134 
       0.748747         252.974         86.0942         265.972 
       0.761037         248.545         83.0181         261.699 
       0.773197          245.17         80.1241         258.219 
       0.785376         241.797         77.3648         253.498 
       0.797761         236.006         74.6928         249.793 
       0.810096         233.031         72.1575         246.136 
       0.822371         224.262         69.7523         242.052 
       0.834626         223.678         67.4611         238.403 
       0.846916          219.14         65.2674         234.927 
       0.859215         218.944         63.1705         231.509 
       0.871383         213.103         61.1871         227.907 
        0.88363         211.384         59.2775         225.539 
       0.895928         206.521         57.4426         222.026 
       0.908253         200.904         55.6822         218.334 
       0.920535          200.25          54.002         215.397 
       0.932774         193.721         52.3972         212.392 
        0.94508         192.007         50.8499         210.162 
       0.957324         191.582         49.3729         207.002 
        0.96953         189.001         47.9594         203.994 
       0.981769         183.155         46.5979          202.12 
       0.994071         182.342         45.2831         199.465 
         1.0064         178.157         44.0169         196.433 
        1.01868         175.795         42.8031         194.217 
        1.03092         172.765         41.6407          192.14 
         1.0432         169.421         40.5175         189.745 
        1.05553         166.821         39.4315         187.459 
        1.06777         166.668         38.3934         185.562 
           1.08         162.591         37.3939         183.142 
        1.09227         160.717         36.4268         181.264 
         1.1046         158.219         35.4905         179.239 
         1.1169         155.861         34.5889         176.795 
        1.12915         153.489         33.7232         175.113 
        1.14142         151.075         32.8854         172.828 
        1.15365         149.128         32.0787         171.015 
        1.16585         147.062         31.3013         168.785 
        1.17807         145.044         30.5488         167.568 
        1.19037         144.133         29.8162         165.828 
        1.20276         141.451         29.1028         163.791 
        1.21504         139.399         28.4184          162.03 
        1.22728         136.687         27.7589         160.028 
        1.23954         136.067         27.1188         158.777 
        1.25184         133.395         26.4978         156.973 
        1.26414         131.475         25.8961         155.326 
        1.27632         130.963         25.3184         154.473 
         1.2886         128.628         24.7544         152.275 
        1.30093         125.244         24.2056         150.649 
        1.31316         124.787         23.6775         149.021 
        1.32541          122.99         23.1651         147.906 
        1.33772         121.797          22.665         146.304 
        1.35005         120.164         22.1795         144.674 
        1.36225          118.72         21.7131         143.386 
        1.37447         116.568         21.2593         141.781 
        1.38676         115.642         20.8164         140.356 
        1.39907         113.175         20.3854          139.07 
        1.41133         111.703         19.9685         137.922 
        1.42358         110.143         19.5637          136.59 
        1.43591         109.332         19.1674         135.053 
        1.44818         108.285         18.7843         133.945 
        1.46037          106.17         18.4139          132.58 
        1.47263         104.984         18.0515         131.582 
        1.48494         103.772         17.6974         130.121 
        1.49724         102.231         17.3532         128.819 
        1.50952         100.468         17.0188         127.689 
        1.52178         99.8226         16.6938         126.475 
        1.53409         98.4129         16.3759         125.392 
        1.54637         96.7482          16.067         124.275 
        1.55858         95.4431         15.7679         123.054 
        1.57081         94.1115         15.4759         121.994 
        1.58313         93.0578         15.1895         120.849 
        1.59544         92.0556         14.9106         119.787 
        1.60767          90.684         14.6404         118.634 
        1.61994         89.3715         14.3761         117.861 
        1.63225         88.1302         14.1177          116.43 
        1.64452         86.8191         13.8664         115.471 
        1.65676         85.6713         13.6219         114.518 
          1.669         85.0831         13.3833         113.594 
        1.68133         83.8144         13.1488         112.515 
        1.69363          82.872         12.9206         111.601 
        1.70585         81.6436         12.6993         110.565 
        1.71809         80.4221         12.4828         109.642 
        1.73038         79.6819         12.2706         108.633 
        1.74268         78.4019         12.0633         107.708 
        1.75493         77.6909         11.8617         106.738 
        1.76714         76.4051         11.6652         105.871 
        1.77942         75.8284         11.4721         104.896 
        1.79173          74.533          11.283         104.048 
        1.80402         73.8254         11.0985         103.226 
         1.8163         72.7834         10.9182         102.178 
         1.8286           71.75         10.7417          101.42 
         1.8409         70.9334         10.5692         100.539 
        1.85315          69.834         10.4011         99.7734 
        1.86537         69.1259         10.2369         98.8997 
        1.87765         68.4094         10.0757         97.9656 
        1.88995         67.3601          9.9176         97.2554 
        1.90221         66.5637         9.76343         96.4155 
        1.91445         65.3373         9.61279         95.6228 
        1.92674         64.7321         9.46482         94.8534 
        1.93902         63.9161         9.31995              94 
        1.95124         63.4511          9.1789         93.3409 
         1.9635         62.3179          9.0404         92.4074 
        1.97583         61.6723         8.90389         91.7997 
        1.98812         60.9388         8.77071         90.9859 
        2.00039         59.9452         8.64053         90.2485 
        2.01264         59.4278         8.51311         89.4929 
        2.02492         58.5571         8.38808         88.7941 
        2.03717         57.7328         8.26577         88.0057 
        2.04942         57.1551         8.14606         87.3967 
        2.06171         56.2389         8.02831         86.6355 
        2.07397         55.6444         7.91315         85.9986 
        2.08629         55.1281         7.79977         85.2471 
        2.09857         54.3896         7.68889          84.596 
        2.11081         53.2709         7.58062         83.8456 
        2.12309         53.0108         7.47417         83.2641 
        2.13538         52.2347         7.36962          82.576 
        2.14763         51.6665         7.26741         81.9305 
        2.15986         50.7695         7.16739         81.2705 
        2.17214         50.2502         7.06884         80.6488 
        2.18443         49.8175         6.97204         80.0537 
        2.19671         48.9123         6.87718         79.3716 
        2.20898          48.682          6.7842         78.7579 
        2.22126         47.9225         6.69284         78.1104 
        2.23354         47.2825          6.6032         77.5508 
         2.2458         46.7909         6.51535         76.9772 
        2.25807         46.3412         6.42902         76.3207 
        2.27035         45.7228         6.34418          75.735 
        2.28263         45.0075         6.26092         75.1358 
         2.2949         44.5781         6.17919         74.5754 
        2.30718         43.9706          6.0989          74.033 
        2.31946         43.3808         6.01999         73.4877 
        2.33169         42.8881         5.94282         72.9111 
        2.34393         42.1835         5.86689         72.3565 
        2.35622         41.9499         5.79204         71.7982 
        2.36847         41.4175          5.7187         71.2906 
        2.38076          40.951         5.64642         70.7188 
        2.39305         40.4169         5.57541         70.2115 
        2.40534         40.0297         5.50561         69.6328 
        2.41762         39.6159         5.43702         69.0902 
        2.42989         38.9688          5.3697         68.6365 
        2.44216         38.7105         5.30353         68.1046 
         2.4544         38.2607         5.23862         67.5953 
        2.46667         37.7982         5.17465         67.0606 
        2.47897         37.3664          5.1116          66.586 
        2.49124         36.8703         5.04977         66.1017 
        2.50349         36.3739         4.98906         65.6044 
        2.51578         35.9842         4.92916         65.1643 
        2.52805         35.8756         4.87035         64.6625 
        2.54029         35.3313         4.81265         64.1728 
        2.55257         34.8294         4.75571         63.7248 
        2.56487         34.5486         4.69958         63.2817 
        2.57716         34.1346         4.64444          62.848 
        2.58942         33.7367          4.5903         62.3659 
        2.60167           33.26         4.53708         61.8995 
        2.61395         33.0189         4.48463          61.467 
        2.62624         32.7582         4.43293         61.0191 
        2.63849         32.4319         4.38221         60.5957 
        2.65073         32.0828         4.33234         60.1312 
        2.66302         31.7388         4.28306         59.7141 
         2.6753          31.349         4.23459         59.2984 
        2.68756         30.9167         4.18696          58.851 
        2.69983         30.7127         4.14003         58.4659 
        2.71213         30.4131         4.09372         58.0715 
        2.72441         30.2094         4.04821         57.6399 
        2.73665         29.9068          4.0035         57.2286 
         2.7489         29.6902         3.95948         56.8349 
        2.76118         29.2791         3.91599         56.4406 
        2.77349         29.1302         3.87306         56.0553 
        2.78576          28.929         3.83093         55.6459 
        2.79802         28.5387         3.78946         55.2802 
        2.81031          28.293          3.7485         54.9035 
        2.82259         28.0705         3.70816         54.5023 
        2.83483         27.7972         3.66857         54.1292 
         2.8471         27.4804         3.62948         53.7683 
         2.8594         27.3505         3.59085         53.4137 
         2.8717         27.0465         3.55278         53.0418 
        2.88396         26.8769         3.51542         52.6575 
        2.89619         26.6406         3.47865         52.3003 
        2.90847         26.4579         3.44227         51.9598 
        2.92072         26.3166         3.40648         51.5982 
        2.93299          26.175         3.37118         51.2421 
        2.94526         25.8976         3.33634         50.9163 
        2.95753         25.7595         3.30201         50.5844 
        2.96982         25.7079          3.2681         50.2407 
        2.98209         25.4611         3.23474         49.9092 
        2.99436         25.2425         3.20181          49.565 
        3.00666         25.2374         3.16929         49.2393 
        3.01894         25.0353         3.13728         48.8922 
        3.03119         24.9132         3.10576         48.5751 
        3.04345         24.8085         3.07467         48.2748 
        3.05573         24.7481         3.04395         47.9579 
          3.068         24.6327         3.01367         47.6392 
        3.08026         24.4881         2.98384         47.3219 
        3.09254         24.4183         2.95436         47.0159 
        3.10483         24.4167         2.92527         46.7156 
         3.1171         24.3569         2.89661         46.4117 
        3.12933         24.3051         2.86842         46.1081 
        3.14159         24.1737         2.84054         45.8067 
