# k  (h/Mpc)    Pcb(k)  (Mpc/h)^3    Pcb_linear(k) (Mpc/h)^3    Pcb_NL(k) (Mpc/h)^3   ShotnoiseSubtracted = false
      0.0156606         6723.24         6735.03         6697.79 
      0.0273761         5818.16         5825.91         5800.07 
      0.0384619         4419.57         4390.11            4374 
      0.0498308         3448.57         3453.53         3439.64 
      0.0625568         2910.04          2935.3         2920.99 
      0.0751274         2545.56         2493.97         2471.85 
      0.0867833         2001.67         2007.98         2003.29 
      0.0984825         1643.39         1589.09         1599.84 
       0.111151          1383.8         1326.88         1337.89 
       0.123864         1243.13          1195.8         1205.02 
       0.135742         1120.81         1075.33         1084.81 
        0.14762         957.388         919.466         942.308 
       0.160083         795.564         766.431          792.54 
       0.172465         706.132          668.95         701.055 
       0.184281         653.232         616.695         650.567 
       0.196406         596.963         569.517         596.661 
       0.209011         544.075         506.726         536.534 
       0.221538         487.986         442.832         484.498 
       0.233611         446.485          396.22         442.844 
       0.245665         417.819         365.696         407.416 
       0.258103         383.449         340.432         381.965 
       0.270422         355.999         312.818         353.858 
       0.282519         324.614           283.9         327.066 
       0.294636         317.779         258.665         304.172 
       0.306978         280.813         239.308         286.602 
       0.319417          269.08          223.74         269.192 
        0.33169          251.51         208.837         252.719 
       0.343948         240.051           193.5         239.363 
       0.356249         222.903         179.116          227.41 
       0.368458         214.808         167.068         213.209 
        0.38068         203.652         156.993          202.58 
       0.392856         189.994         147.796         193.492 
       0.405069         181.381         138.803           184.7 
       0.417459         172.513         130.096         174.765 
       0.429752         165.921         122.279         167.345 
       0.441978         159.445         115.419         161.409 
       0.454294         148.423         109.189         153.215 
        0.46658         148.637         103.343         147.742 
       0.478753         139.392          97.829         142.127 
       0.490964         135.147         92.6492         136.619 
       0.503334         128.762         87.8681         131.744 
       0.515665         124.945         83.5083          128.17 
       0.527909         120.811         79.4837         122.265 
       0.540159         116.674          75.676         118.578 
        0.55248         112.161          72.063         114.347 
       0.564743         109.185         68.7175          111.15 
        0.57686         105.775         65.6428          107.44 
       0.589077         100.862         62.7403         104.664 
       0.601441         98.5102         59.9804         101.689 
        0.61382         96.4414         57.3782         98.3935 
       0.626067         92.5191           54.95         95.8279 
       0.638306         89.5473         52.6633         93.2356 
       0.650632         86.3507         50.4968         89.9432 
       0.662899         85.6842         48.4666         87.7303 
       0.675076         82.5004          46.564         85.5219 
       0.687267         80.8728         44.7611         83.3432 
       0.699615          78.203         43.0311         81.6269 
       0.711937         75.6419         41.3958         79.1099 
       0.724148         75.0818         39.8592         77.9532 
       0.736433         71.6455         38.3931         75.7615 
       0.748747          70.499         36.9985         74.0139 
       0.761037         68.7466         35.6766          72.253 
       0.773197         67.2501         34.4329          71.231 
       0.785376         65.3788         33.2471         69.3804 
       0.797761         64.7886         32.0988         68.1961 
       0.810096          62.658         31.0093         66.5989 
       0.822371         61.4637         29.9757         65.1914 
       0.834626         59.9558         28.9911         64.1098 
       0.846916         58.8586         28.0483         62.8514 
       0.859215         57.4134         27.1472         61.5178 
       0.871383         56.6576         26.2949         60.4671 
        0.88363          55.126         25.4742         59.5558 
       0.895928         53.9052         24.6856         58.3759 
       0.908253         52.6925         23.9292         57.4167 
       0.920535         52.2766         23.2071         56.3982 
       0.932774         51.2699         22.5174         55.4345 
        0.94508         50.4676         21.8525         54.3582 
       0.957324          49.189         21.2178         53.6017 
        0.96953         48.9109         20.6103         52.6051 
       0.981769         47.4013         20.0252          51.932 
       0.994071          46.762         19.4602         51.1263 
         1.0064         45.7516         18.9161         50.3002 
        1.01868         44.9346         18.3944          49.593 
        1.03092         44.3694         17.8949         48.8077 
         1.0432         43.5602         17.4122         47.9586 
        1.05553         42.5513         16.9455         47.5841 
        1.06777         41.9211         16.4994         46.7541 
           1.08         40.9291         16.0698         46.0498 
        1.09227         40.5026         15.6542         45.4611 
         1.1046         39.9074         15.2519         44.7703 
         1.1169         39.4102         14.8644         44.1423 
        1.12915         38.7295         14.4924         43.6113 
        1.14142          37.926         14.1324         43.0327 
        1.15365         37.4348         13.7857          42.515 
        1.16585         36.8686         13.4516         41.9071 
        1.17807         36.2431         13.1282         41.2991 
        1.19037         36.0821         12.8134          40.956 
        1.20276         35.5031         12.5068         40.4034 
        1.21504         34.8693         12.2127         39.9731 
        1.22728         34.2638         11.9292         39.4506 
        1.23954         33.8799         11.6542         38.8822 
        1.25184         33.2651         11.3873         38.5039 
        1.26414         32.8468         11.1287         37.9946 
        1.27632         32.5513         10.8805         37.5762 
         1.2886         32.1963         10.6381         37.1758 
        1.30093         31.5472         10.4022         36.7188 
        1.31316         31.1165         10.1753         36.3543 
        1.32541         30.8604         9.95508         35.9574 
        1.33772         30.2814         9.74019         35.5704 
        1.35005         29.9042         9.53152         35.2119 
        1.36225         29.4677         9.33109         34.8621 
        1.37447         28.8049         9.13607         34.4407 
        1.38676         28.8099         8.94575          34.146 
        1.39907         28.3365         8.76053         33.8081 
        1.41133         27.8033         8.58138         33.4166 
        1.42358         27.5339         8.40742         33.0786 
        1.43591         27.1386          8.2371         32.7857 
        1.44818         26.8858         8.07244          32.428 
        1.46037         26.5896         7.91327         32.0869 
        1.47263         26.3214         7.75752         31.8364 
        1.48494         25.9086         7.60538         31.4924 
        1.49724         25.8275         7.45744         31.2013 
        1.50952         25.3284         7.31376         30.9555 
        1.52178         25.0089         7.17407         30.6221 
        1.53409         24.7436         7.03747         30.3535 
        1.54637         24.4916         6.90473         30.0338 
        1.55858         23.9451         6.77616         29.7875 
        1.57081          23.961          6.6507         29.5376 
        1.58313         23.6731         6.52763         29.2435 
        1.59544         23.2307         6.40775         29.0142 
        1.60767         22.9965         6.29166         28.7124 
        1.61994         22.6833         6.17804         28.4954 
        1.63225         22.6035           6.067         28.2949 
        1.64452         22.2182           5.959         28.0476 
        1.65676         22.0137         5.85397           27.78 
          1.669         21.8114         5.75139         27.5692 
        1.68133         21.4607         5.65063         27.3249 
        1.69363         21.2225         5.55258         27.0269 
        1.70585         21.0167         5.45748         26.8976 
        1.71809         20.7149         5.36443          26.634 
        1.73038         20.5675         5.27325         26.4515 
        1.74268         20.3695         5.18413         26.1856 
        1.75493         20.0526         5.09749         26.0022 
        1.76714         19.9952         5.01305          25.799 
        1.77942         19.7733          4.9301          25.575 
        1.79173         19.3577         4.84881         25.3863 
        1.80402         19.1779         4.76953         25.2411 
         1.8163         19.1018         4.69206         24.9646 
         1.8286         18.8005         4.61619         24.8123 
         1.8409         18.6083         4.54206         24.6273 
        1.85315         18.4552          4.4698         24.4396 
        1.86537         18.2014         4.39926         24.2556 
        1.87765         18.0826         4.32999          24.066 
        1.88995         17.8326         4.26204         23.8694 
        1.90221         17.6851         4.19579         23.6919 
        1.91445         17.4894         4.13105         23.5119 
        1.92674         17.3149         4.06746         23.3422 
        1.93902          17.109         4.00521         23.2009 
        1.95124          16.874         3.94459         23.0737 
         1.9635         16.7484         3.88507         22.8542 
        1.97583          16.585          3.8264         22.6748 
        1.98812         16.4287         3.76917         22.5449 
        2.00039         16.2921         3.71322         22.3751 
        2.01264         16.1158         3.65847         22.2336 
        2.02492         15.9553         3.60474         22.0418 
        2.03717         15.7568         3.55217         21.8994 
        2.04942         15.6122         3.50073         21.7366 
        2.06171         15.4945         3.45013         21.5874 
        2.07397         15.3524         3.40064         21.4365 
        2.08629         15.2125         3.35192         21.2915 
        2.09857          15.075         3.30426         21.1503 
        2.11081         14.8838         3.25773         21.0126 
        2.12309          14.737         3.21199         20.8591 
        2.13538         14.5733         3.16706         20.7115 
        2.14763         14.4387         3.12314         20.5838 
        2.15986          14.403         3.08015         20.4636 
        2.17214         14.2149          3.0378         20.3146 
        2.18443         14.0429          2.9962         20.1771 
        2.19671         13.9457         2.95544         20.0309 
        2.20898         13.8026         2.91548         19.9113 
        2.22126         13.6717         2.87622         19.7842 
        2.23354          13.619         2.83769         19.6413 
         2.2458         13.4378         2.79994         19.5475 
        2.25807         13.2956         2.76284         19.3785 
        2.27035         13.2057         2.72638         19.2659 
        2.28263         13.0707          2.6906         19.1388 
         2.2949         12.9894         2.65548         19.0315 
        2.30718         12.8869         2.62097         18.9225 
        2.31946         12.7497         2.58706         18.7875 
        2.33169         12.6299          2.5539         18.6692 
        2.34393         12.5252         2.52127         18.5615 
        2.35622         12.3676          2.4891         18.4424 
        2.36847         12.2989         2.45759         18.3223 
        2.38076         12.1645         2.42652          18.212 
        2.39305         12.0473           2.396         18.0919 
        2.40534         11.9694         2.36601         17.9638 
        2.41762         11.8683         2.33653         17.8805 
        2.42989         11.7832          2.3076         17.7611 
        2.44216         11.6714         2.27916         17.6426 
         2.4544         11.6102         2.25127         17.5321 
        2.46667         11.4996         2.22378         17.4381 
        2.47897         11.3774         2.19669          17.319 
        2.49124         11.2994         2.17012         17.2177 
        2.50349         11.1992         2.14403         17.1092 
        2.51578         11.1135         2.11828         17.0255 
        2.52805         11.0321         2.09301         16.9195 
        2.54029         10.9649         2.06821         16.8195 
        2.55257         10.9028         2.04374         16.7145 
        2.56487         10.7309         2.01962         16.6118 
        2.57716         10.6865         1.99592         16.5048 
        2.58942         10.6251         1.97266         16.4267 
        2.60167         10.5395         1.94979         16.3316 
        2.61395         10.4988         1.92725         16.2298 
        2.62624          10.392         1.90503         16.1383 
        2.63849         10.3095         1.88323         16.0544 
        2.65073         10.2453          1.8618         15.9493 
        2.66302         10.1747         1.84063         15.8605 
         2.6753         10.1245         1.81979         15.7641 
        2.68756         10.0641         1.79933         15.6862 
        2.69983         9.97527         1.77916         15.5848 
        2.71213         9.91738         1.75926         15.4872 
        2.72441         9.85425          1.7397         15.4073 
        2.73665         9.83379         1.72048         15.3141 
         2.7489         9.75647         1.70157         15.2211 
        2.76118          9.6578         1.68288         15.1453 
        2.77349         9.62162         1.66443          15.059 
        2.78576         9.56753         1.64633         14.9776 
        2.79802         9.51735          1.6285         14.8886 
        2.81031         9.47164          1.6109         14.8059 
        2.82259         9.43784         1.59357          14.723 
        2.83483          9.3641         1.57655         14.6417 
         2.8471         9.31884         1.55975         14.5619 
         2.8594          9.3002         1.54315         14.4791 
         2.8717         9.25248         1.52679         14.3967 
        2.88396         9.20163         1.51073         14.3185 
        2.89619         9.15071         1.49493         14.2418 
        2.90847         9.11131          1.4793         14.1623 
        2.92072         9.11168         1.46392         14.0772 
        2.93299         9.04504         1.44875         14.0072 
        2.94526          9.0376         1.43378         13.9338 
        2.95753         9.00254         1.41902         13.8541 
        2.96982          8.9586         1.40445          13.777 
        2.98209         8.94959         1.39011            13.7 
        2.99436         8.93344         1.37596          13.624 
        3.00666         8.90277         1.36199         13.5533 
        3.01894         8.88299         1.34823         13.4889 
        3.03119          8.8701         1.33469         13.4111 
        3.04345         8.81953         1.32133         13.3306 
        3.05573         8.85066         1.30812         13.2627 
          3.068         8.82383         1.29511         13.1967 
        3.08026         8.83142         1.28229          13.117 
        3.09254         8.82521         1.26962         13.0521 
        3.10483         8.82143         1.25712         12.9912 
         3.1171         8.82805         1.24481         12.9192 
        3.12933         8.83815         1.23269          12.848 
        3.14159         8.79996         1.22071         12.7808 
