# k  (h/Mpc)    Pcb(k)  (Mpc/h)^3    Pcb_linear(k) (Mpc/h)^3    Pcb_NL(k) (Mpc/h)^3   ShotnoiseSubtracted = false
      0.0156606         11477.6           11512         11439.7 
      0.0273761         9897.26         9955.75         9890.37 
      0.0384619         7509.52         7501.36         7450.94 
      0.0498308         5836.46         5900.68         5852.61 
      0.0625568            4927         5015.05         4969.97 
      0.0751274         4344.24         4260.92         4195.23 
      0.0867833         3393.78         3430.56         3413.09 
      0.0984825         2817.63         2714.88         2739.42 
       0.111151         2385.95         2266.89         2293.56 
       0.123864         2142.09         2042.94         2065.22 
       0.135742         1938.31         1837.11         1859.97 
        0.14762         1667.97         1570.83         1629.24 
       0.160083            1393         1309.38         1378.03 
       0.172465         1240.85         1142.84         1228.78 
       0.184281         1141.24         1053.56          1142.5 
       0.196406         1051.33         972.964         1047.56 
       0.209011         968.081          865.69         945.259 
       0.221538         872.624         756.533         866.794 
       0.233611         812.852         676.901         800.804 
       0.245665         751.101         624.754          736.81 
       0.258103         710.611         581.592         692.886 
       0.270422         647.022         534.416         645.591 
       0.282519         596.578         485.013         601.821 
       0.294636         590.814         441.901          564.51 
       0.306978         526.779         408.832         536.156 
       0.319417         507.569         382.235          504.26 
        0.33169         477.517         356.775         474.605 
       0.343948         455.111         330.573         455.205 
       0.356249         426.235             306          435.04 
       0.368458         413.349         285.418          410.64 
        0.38068         395.848         268.206         392.072 
       0.392856         371.282         252.493         375.889 
       0.405069         356.511          237.13         362.911 
       0.417459         340.821         222.254         344.285 
       0.429752         329.487           208.9          331.39 
       0.441978         318.676          197.18         321.149 
       0.454294         298.939         186.537         306.363 
        0.46658         296.962         176.551         297.788 
       0.478753         284.142          167.13         287.265 
       0.490964         274.676         158.281         277.133 
       0.503334         259.249         150.113         269.082 
       0.515665         256.378         142.665         262.846 
       0.527909         248.471         135.789         253.807 
       0.540159         241.402         129.284         246.515 
        0.55248         236.475         123.111         239.085 
       0.564743         230.449         117.396         233.865 
        0.57686         222.274         112.143          226.54 
       0.589077         213.405         107.185         221.614 
       0.601441         210.156          102.47         216.212 
        0.61382         207.888         98.0241         210.915 
       0.626067         202.345         93.8757         205.891 
       0.638306           193.2         89.9693          201.71 
       0.650632          188.05         86.2681         195.276 
       0.662899         187.906         82.7997         191.923 
       0.675076          181.09         79.5493         187.628 
       0.687267          176.45         76.4693         183.512 
       0.699615         172.912         73.5138         179.848 
       0.711937         168.777         70.7199          176.18 
       0.724148         165.741         68.0949         173.595 
       0.736433         161.669         65.5902         169.584 
       0.748747         158.117         63.2077         166.123 
       0.761037         155.722         60.9493         162.734 
       0.773197         152.506         58.8247         160.874 
       0.785376         150.658         56.7989         157.235 
       0.797761         147.588         54.8371         155.227 
       0.810096         144.022         52.9758         152.225 
       0.822371         139.559           51.21         149.662 
       0.834626         137.805         49.5279         147.106 
       0.846916         136.313         47.9173         144.889 
       0.859215         134.512         46.3779         142.488 
       0.871383         131.857         44.9217         140.097 
        0.88363         129.348         43.5198          138.45 
       0.895928         126.834         42.1726         136.474 
       0.908253         123.469         40.8802         133.958 
       0.920535         122.899         39.6466         132.256 
       0.932774         119.377         38.4684         130.022 
        0.94508         118.431         37.3324         128.372 
       0.957324          116.98         36.2481         126.549 
        0.96953         116.443         35.2103         124.487 
       0.981769         112.719         34.2108         123.347 
       0.994071         111.956         33.2455         121.581 
         1.0064         109.279         32.3159         119.792 
        1.01868         108.296         31.4248         118.422 
        1.03092         106.359         30.5714         116.955 
         1.0432         104.554         29.7467         115.405 
        1.05553         102.077         28.9494         114.265 
        1.06777         101.935         28.1873          112.94 
           1.08         99.9448         27.4534         111.433 
        1.09227         98.5257         26.7435         110.109 
         1.1046         96.8212         26.0561         108.753 
         1.1169         95.7053         25.3941         107.266 
        1.12915         94.3794         24.7586         106.148 
        1.14142         92.7969         24.1435         104.824 
        1.15365         91.0123         23.5512         103.651 
        1.16585          89.956         22.9805         102.407 
        1.17807         88.5544          22.428         101.504 
        1.19037         88.4128         21.8902         100.441 
        1.20276         86.4817         21.3664          99.245 
        1.21504         85.8936         20.8639         98.0707 
        1.22728         84.0125         20.3797         97.0817 
        1.23954         83.3717         19.9098         95.9768 
        1.25184         81.7523         19.4539         95.0699 
        1.26414         80.6736         19.0121         94.0945 
        1.27632         79.8957          18.588         93.4354 
         1.2886          78.625         18.1739         92.0985 
        1.30093         77.5493          17.771         91.0651 
        1.31316         76.7283         17.3833         90.3812 
        1.32541         76.0231         17.0071         89.4922 
        1.33772         74.8203           16.64         88.5657 
        1.35005         74.1502         16.2835         87.6879 
        1.36225         72.9988         15.9411         86.8219 
        1.37447         71.4047         15.6079         85.8971 
        1.38676         71.4728         15.2828          84.969 
        1.39907         70.1106         14.9664          84.358 
        1.41133         68.8896         14.6603         83.7006 
        1.42358         68.1294         14.3631         82.6639 
        1.43591         67.6546         14.0721          81.933 
        1.44818         66.6878         13.7908          81.104 
        1.46037         65.8909         13.5189         80.4817 
        1.47263         64.9186         13.2528         79.8288 
        1.48494         64.1949         12.9929         79.0169 
        1.49724         63.2023         12.7402         78.2153 
        1.50952          62.771         12.4947         77.4742 
        1.52178         61.9522         12.2561         76.8803 
        1.53409         61.4076         12.0227         76.2168 
        1.54637         59.9625         11.7959         75.4715 
        1.55858         59.3618         11.5763         74.7492 
        1.57081          58.929         11.3619         74.2114 
        1.58313         57.9887         11.1517         73.5977 
        1.59544         57.2347         10.9469         72.8657 
        1.60767         56.6711         10.7486         72.2636 
        1.61994         55.8069         10.5545         71.7383 
        1.63225         55.1536         10.3648         70.9533 
        1.64452         54.5674         10.1803         70.4553 
        1.65676         53.7594         10.0008          69.783 
          1.669          53.397         9.82559         69.2598 
        1.68133         52.8519         9.65345         68.6214 
        1.69363         51.9404         9.48594         68.1387 
        1.70585         51.6502         9.32348         67.5555 
        1.71809         50.5778          9.1645         67.0223 
        1.73038         50.2373         9.00873         66.4449 
        1.74268         49.5168         8.85649         65.8832 
        1.75493         49.0119         8.70847         65.3321 
        1.76714         48.4088         8.56422         64.7812 
        1.77942         48.1279          8.4225         64.2855 
        1.79173         47.2995         8.28363         63.6909 
        1.80402         46.8769         8.14819         63.2754 
         1.8163         46.2702         8.01585         62.6735 
         1.8286         45.6379         7.88622         62.3062 
         1.8409         45.0929         7.75958         61.6871 
        1.85315         44.6175         7.63614         61.3353 
        1.86537         44.0939         7.51563         60.8156 
        1.87765         43.6937         7.39728          60.251 
        1.88995         43.0842          7.2812         59.7649 
        1.90221          42.741         7.16802         59.2991 
        1.91445         42.0607         7.05742         58.9088 
        1.92674         41.6641         6.94879         58.3966 
        1.93902         41.2198         6.84243         57.9274 
        1.95124         40.7948         6.73887         57.5607 
         1.9635         40.1588         6.63719         57.0565 
        1.97583         39.8143         6.53696         56.6916 
        1.98812         39.1593         6.43919         56.1985 
        2.00039         38.9173         6.34361         55.7565 
        2.01264         38.3159         6.25007         55.3855 
        2.02492         38.0022         6.15827         54.9675 
        2.03717         37.4595         6.06848         54.5041 
        2.04942         37.0298         5.98059         54.1121 
        2.06171         36.6908         5.89414         53.6555 
        2.07397          36.203          5.8096         53.3084 
        2.08629         35.8179         5.72636          52.879 
        2.09857         35.4947         5.64495         52.5289 
        2.11081         34.9943         5.56546         52.0979 
        2.12309         34.6982         5.48731         51.7022 
        2.13538         34.1893         5.41055         51.3708 
        2.14763         33.8919         5.33552         50.9732 
        2.15986         33.6821         5.26208         50.5712 
        2.17214         33.0948         5.18973         50.2759 
        2.18443         32.8249         5.11867         49.8246 
        2.19671         32.3421         5.04902         49.4682 
        2.20898         31.9252         4.98076         49.0953 
        2.22126         31.7957         4.91368         48.7309 
        2.23354         31.3825         4.84787         48.4378 
         2.2458         31.0388         4.78337         48.0602 
        2.25807         30.5425         4.71999         47.6918 
        2.27035         30.2462         4.65771         47.3696 
        2.28263         29.9162         4.59658         47.0403 
         2.2949         29.6688         4.53657         46.7072 
        2.30718         29.3535         4.47763          46.355 
        2.31946          29.055         4.41969         46.0306 
        2.33169         28.7531         4.36304         45.6907 
        2.34393         28.3701         4.30729         45.3405 
        2.35622         28.0546         4.25234         45.0772 
        2.36847         27.7401          4.1985         44.7091 
        2.38076         27.5025         4.14543          44.443 
        2.39305         27.1734          4.0933         44.1346 
        2.40534         26.9335         4.04205          43.761 
        2.41762         26.5591          3.9917          43.485 
        2.42989         26.4005         3.94227         43.1811 
        2.44216          26.071         3.89369         42.8883 
         2.4544         25.8168         3.84604          42.602 
        2.46667         25.4833         3.79908         42.2886 
        2.47897         25.2665         3.75278         42.0118 
        2.49124         25.0554         3.70739         41.7107 
        2.50349         24.7379         3.66282         41.4516 
        2.51578         24.4092         3.61884         41.1698 
        2.52805         24.2506         3.57567         40.8672 
        2.54029         24.0469          3.5333         40.5912 
        2.55257         23.8077          3.4915         40.3128 
        2.56487         23.5781         3.45029         40.0406 
        2.57716         23.3294         3.40981         39.7554 
        2.58942         23.0904         3.37006         39.5179 
        2.60167         22.8751         3.33099         39.2266 
        2.61395         22.6585         3.29248         38.9623 
        2.62624          22.486         3.25452         38.7155 
        2.63849         22.3046         3.21729         38.4515 
        2.65073         22.0217         3.18067         38.1763 
        2.66302         21.7577          3.1445         37.9442 
         2.6753         21.6585         3.10891         37.6946 
        2.68756         21.5037         3.07394         37.4629 
        2.69983         21.3009         3.03949         37.1856 
        2.71213         21.0985         3.00549         36.9474 
        2.72441          20.943         2.97207         36.6856 
        2.73665         20.7351         2.93925         36.4446 
         2.7489         20.5198         2.90693         36.2109 
        2.76118         20.4003           2.875         35.9491 
        2.77349          20.294         2.84348         35.7375 
        2.78576         20.0482         2.81256          35.513 
        2.79802         19.8739         2.78211         35.2735 
        2.81031         19.7673         2.75204         35.0616 
        2.82259         19.6701         2.72242          34.828 
        2.83483         19.4174         2.69336         34.5862 
         2.8471         19.3702         2.66466         34.3545 
         2.8594           19.21         2.63629         34.1439 
         2.8717         19.0412         2.60835         33.9152 
        2.88396         18.8695         2.58091         33.6879 
        2.89619         18.8406         2.55392          33.482 
        2.90847         18.7017         2.52721         33.2651 
        2.92072         18.5538         2.50093         33.0648 
        2.93299         18.4916         2.47502         32.8603 
        2.94526          18.409         2.44944         32.6455 
        2.95753         18.3215         2.42423          32.435 
        2.96982         18.2453         2.39934         32.2348 
        2.98209         18.1028         2.37485         32.0352 
        2.99436         18.0671         2.35067         31.8323 
        3.00666         17.9469          2.3268         31.6254 
        3.01894         17.8934          2.3033         31.4173 
        3.03119         17.7427         2.28016         31.2201 
        3.04345         17.7887         2.25733         31.0332 
        3.05573         17.7111         2.23477         30.8398 
          3.068          17.624         2.21255         30.6348 
        3.08026         17.6139         2.19065         30.4473 
        3.09254         17.5402           2.169         30.2651 
        3.10483         17.5086         2.14765         30.0808 
         3.1171         17.5295         2.12661         29.8969 
        3.12933         17.4651         2.10591         29.7112 
        3.14159         17.3926         2.08544         29.5216 
