# k  (h/Mpc)    P(k)  (Mpc/h)^3    P_linear(k)  (Mpc/h)^3     P_NL(k)  ShotnoiseSubtracted = false
      0.0156606         14577.2         14739.2         14639.4 
      0.0273761         12524.7         12724.4         12623.6 
      0.0384619         9485.71         9578.81         9496.08 
      0.0498308         7352.19         7530.69         7449.78 
      0.0625568         6205.83         6397.97         6323.89 
      0.0751274         5491.66         5434.58         5328.42 
      0.0867833         4275.71         4374.83          4344.5 
      0.0984825         3571.36         3461.77         3496.84 
       0.111151         3034.36         2890.28            2930 
       0.123864         2722.38         2604.57         2637.38 
       0.135742         2469.09         2342.05         2375.49 
        0.14762         2133.84          2002.5         2090.09 
       0.160083         1790.43         1669.15         1773.88 
       0.172465         1596.48         1456.82          1588.9 
       0.184281         1461.39         1342.99         1478.08 
       0.196406         1355.69         1240.23          1356.6 
       0.209011         1255.42         1103.47         1225.98 
       0.221538         1132.64         964.315         1132.27 
       0.233611          1066.2         862.804         1051.74 
       0.245665         977.249         796.329         968.466 
       0.258103         941.323         741.309         912.051 
       0.270422         848.398         681.172         852.355 
       0.282519         788.913         618.198         798.658 
       0.294636         781.499         563.244         752.049 
       0.306978         702.101         521.093         716.797 
       0.319417         679.782          487.19         674.678 
        0.33169         640.613         454.738         636.086 
       0.343948         610.783          421.34         613.142 
       0.356249         574.169         390.019         587.704 
       0.368458         556.899         363.784         556.812 
        0.38068         537.638         341.847          533.04 
       0.392856         506.562          321.82         512.029 
       0.405069         485.311         302.236         495.911 
       0.417459         465.233         283.276         472.594 
       0.429752         452.896         266.256          455.45 
       0.441978          438.07         251.317          442.27 
       0.454294          413.97         237.751         422.883 
        0.46658         407.085         225.023         412.377 
       0.478753         393.837         213.015         398.429 
       0.490964         379.749         201.735         385.157 
       0.503334         358.856         191.326         374.835 
       0.515665         357.302         181.833          366.62 
       0.527909         344.884         173.069         355.886 
       0.540159         336.102         164.777         345.815 
        0.55248         329.572          156.91         336.178 
       0.564743         323.916         149.626         329.661 
        0.57686         311.507         142.931         319.919 
       0.589077         300.396         136.611         312.909 
       0.601441         297.127         130.601          305.69 
        0.61382         292.424         124.935         299.456 
       0.626067         287.007         119.648         292.785 
       0.638306         274.142         114.669         287.179 
       0.650632         268.964         109.952         278.691 
       0.662899         267.288         105.531         274.928 
       0.675076         257.095         101.388         269.414 
       0.687267         250.713         97.4626         263.285 
       0.699615         246.701         93.6957          258.56 
       0.711937         242.364         90.1348         253.852 
       0.724148         235.782         86.7891         250.025 
       0.736433         230.736         83.5967         244.767 
       0.748747         226.584         80.5602         240.033 
       0.761037         222.819         77.6818         235.938 
       0.773197         219.429         74.9738         232.924 
       0.785376         216.654         72.3918          228.42 
       0.797761         211.513         69.8915         225.236 
       0.810096         208.426         67.5192         221.708 
       0.822371         200.621         65.2686         218.023 
       0.834626          199.88         63.1247         214.601 
       0.846916          196.21          61.072         211.485 
       0.859215         195.608         59.1099         208.352 
       0.871383         190.524          57.254         205.015 
        0.88363         188.604         55.4671         202.854 
       0.895928          184.33         53.7501         199.767 
       0.908253         179.285         52.1029         196.351 
       0.920535          178.74         50.5306         193.729 
       0.932774         172.792          49.029         190.942 
        0.94508         171.374         47.5811           188.9 
       0.957324         170.881         46.1991         186.033 
        0.96953         168.729         44.8764         183.237 
       0.981769         163.509         43.6025         181.591 
       0.994071         162.773         42.3722         179.166 
         1.0064         158.903         41.1874         176.434 
        1.01868         156.888         40.0516         174.492 
        1.03092         154.364          38.964         172.554 
         1.0432          151.39         37.9129         170.376 
        1.05553          148.83         36.8968         168.411 
        1.06777         148.666         35.9254         166.685 
           1.08         145.136         34.9901         164.469 
        1.09227         143.558         34.0852         162.824 
         1.1046         141.212         33.2091          160.92 
         1.1169          139.35         32.3654         158.739 
        1.12915         137.141         31.5554         157.168 
        1.14142         135.017         30.7714         155.127 
        1.15365         133.216         30.0166         153.494 
        1.16585         131.352         29.2892         151.513 
        1.17807         129.457          28.585          150.43 
        1.19037         128.842         27.8995         148.837 
        1.20276         126.222         27.2319         147.023 
        1.21504         124.703         26.5915         145.428 
        1.22728         122.235         25.9744           143.7 
        1.23954         121.535         25.3755         142.466 
        1.25184         119.028         24.7944         140.886 
        1.26414         117.473         24.2313         139.424 
        1.27632         116.853         23.6908         138.697 
         1.2886         114.682         23.1631         136.666 
        1.30093         111.971         22.6496         135.211 
        1.31316         111.635         22.1554         133.834 
        1.32541         109.996         21.6759         132.801 
        1.33772         108.817          21.208         131.376 
        1.35005         107.461         20.7537         129.933 
        1.36225         106.138         20.3173          128.77 
        1.37447         104.063         19.8926         127.361 
        1.38676         103.532         19.4782         126.018 
        1.39907         101.201         19.0749         124.946 
        1.41133          99.873         18.6849         123.932 
        1.42358         98.5861         18.3061         122.678 
        1.43591         97.9607         17.9352         121.328 
        1.44818         96.8843         17.5767          120.33 
        1.46037         95.0811         17.2301         119.144 
        1.47263         93.7632          16.891         118.239 
        1.48494         92.9873         16.5597         116.976 
        1.49724           91.48         16.2376         115.757 
        1.50952         90.0626         15.9248         114.753 
        1.52178         89.2776         15.6206         113.725 
        1.53409         88.3071         15.3232         112.732 
        1.54637         86.4881         15.0342         111.703 
        1.55858         85.5417         14.7542         110.638 
        1.57081         84.3441          14.481         109.687 
        1.58313         83.3296         14.2131         108.694 
        1.59544         82.4457         13.9521         107.715 
        1.60767         81.2235         13.6993         106.708 
        1.61994         80.1637         13.4519         106.025 
        1.63225         78.9803         13.2101         104.741 
        1.64452         77.9377         12.9749         103.924 
        1.65676         76.8492         12.7463         103.034 
          1.669         76.3171         12.5229         102.203 
        1.68133         75.3427         12.3035         101.239 
        1.69363         74.3714           12.09         100.454 
        1.70585          73.469          11.883         99.5101 
        1.71809         72.1907         11.6803         98.7578 
        1.73038         71.4418         11.4818         97.8009 
        1.74268         70.3329         11.2878         97.0089 
        1.75493         69.7748         11.0991         96.1328 
        1.76714         68.6144         10.9153         95.3381 
        1.77942         68.1977         10.7346         94.5016 
        1.79173         67.0207         10.5577         93.7007 
        1.80402         66.3005          10.385         92.9944 
         1.8163         65.4803         10.2164         92.0572 
         1.8286         64.5327         10.0512          91.423 
         1.8409          63.627         9.88974         90.6095 
        1.85315         62.7319         9.73241         89.9621 
        1.86537         62.1228         9.57883         89.1549 
        1.87765          61.386         9.42799         88.3009 
        1.88995         60.5512         9.28004         87.6744 
        1.90221         59.9194         9.13578         86.9301 
        1.91445         58.8379         8.99483          86.248 
        1.92674         58.3357         8.85637          85.549 
        1.93902         57.6161         8.72081          84.786 
        1.95124         57.1826         8.58882         84.2193 
         1.9635         56.0968         8.45923         83.3879 
        1.97583         55.5727         8.33149          82.845 
        1.98812         54.8863         8.20688         82.1026 
        2.00039         54.1102         8.08506           81.45 
        2.01264         53.4813         7.96584         80.7875 
        2.02492         52.7723         7.84884         80.1734 
        2.03717         52.0738          7.7344         79.4603 
        2.04942         51.4365         7.62238         78.9181 
        2.06171         50.7546          7.5122          78.225 
        2.07397         50.1245         7.40445         77.6727 
        2.08629         49.6076         7.29836         76.9904 
        2.09857         49.0975          7.1946         76.4303 
        2.11081         48.0307         7.09329         75.7581 
        2.12309         47.7548         6.99369         75.2196 
        2.13538         47.1414         6.89585         74.6187 
        2.14763         46.6531         6.80022         74.0466 
        2.15986         46.0022         6.70662         73.4552 
        2.17214         45.3623         6.61441         72.9356 
        2.18443         45.0843         6.52384         72.3528 
        2.19671         44.2405         6.43508          71.749 
        2.20898         43.9304         6.34807         71.2015 
        2.22126         43.3438         6.26258         70.6303 
        2.23354         42.7673          6.1787         70.1426 
         2.2458         42.3655          6.0965         69.6183 
        2.25807         41.9409         6.01572         69.0342 
        2.27035         41.3605         5.93634         68.5163 
        2.28263         40.7963         5.85843         67.9856 
         2.2949         40.2853         5.78195         67.4904 
        2.30718         39.8752         5.70682         67.0004 
        2.31946         39.3031         5.63299         66.5162 
        2.33169         38.8867         5.56078         65.9934 
        2.34393         38.2838         5.48973         65.4914 
        2.35622         38.0131         5.41969         65.0003 
        2.36847         37.5296         5.35107         64.5275 
        2.38076         37.2088         5.28343         64.0458 
        2.39305         36.7317         5.21698         63.5802 
        2.40534         36.3514         5.15167         63.0496 
        2.41762         35.9356         5.08749         62.5776 
        2.42989          35.372          5.0245         62.1703 
        2.44216         35.1508         4.96258         61.6929 
         2.4544         34.7956         4.90185         61.2485 
        2.46667         34.2406         4.84199         60.7595 
        2.47897         33.9339         4.78299         60.3378 
        2.49124         33.4951         4.72514          59.899 
        2.50349         33.0873         4.66833         59.4717 
        2.51578         32.7422         4.61228         59.0621 
        2.52805         32.6129         4.55726         58.6095 
        2.54029         32.1808         4.50326          58.187 
        2.55257         31.7542         4.44998         57.7822 
        2.56487          31.428         4.39746         57.3757 
        2.57716         31.1134         4.34586         56.9935 
        2.58942         30.7292         4.29521         56.5625 
        2.60167         30.3344         4.24541         56.1298 
        2.61395          30.112         4.19633         55.7518 
        2.62624         29.8706         4.14795         55.3549 
        2.63849         29.5657         4.10049         54.9673 
        2.65073         29.2241         4.05383         54.5519 
        2.66302         28.9397         4.00772         54.1897 
         2.6753         28.6103         3.96236         53.8122 
        2.68756         28.2617         3.91779         53.4177 
        2.69983          28.044         3.87388         53.0614 
        2.71213         27.6939         3.83055         52.7067 
        2.72441         27.5798         3.78796         52.3147 
        2.73665         27.2896         3.74612         51.9505 
         2.7489         27.0947         3.70494         51.5989 
        2.76118         26.7859         3.66425         51.2323 
        2.77349         26.5749         3.62407         50.8969 
        2.78576         26.3887         3.58466         50.5318 
        2.79802         26.0648         3.54585         50.1905 
        2.81031         25.8488         3.50752         49.8591 
        2.82259         25.6333         3.46978         49.4995 
        2.83483         25.3912         3.43273         49.1603 
         2.8471          25.178         3.39616         48.8358 
         2.8594         24.9764            3.36         48.5219 
         2.8717         24.7088         3.32439         48.1836 
        2.88396         24.6058         3.28942         47.8386 
        2.89619         24.4158         3.25502         47.5207 
        2.90847         24.2138         3.22098         47.2052 
        2.92072         24.1125         3.18749         46.8908 
        2.93299          23.987         3.15445         46.5655 
        2.94526         23.7577         3.12186         46.2699 
        2.95753          23.595         3.08973         45.9778 
        2.96982         23.5726         3.05801         45.6671 
        2.98209         23.3554         3.02679         45.3654 
        2.99436         23.1749         2.99598         45.0615 
        3.00666         23.1367         2.96555         44.7648 
        3.01894         23.0091          2.9356         44.4531 
        3.03119         22.8408          2.9061         44.1623 
        3.04345         22.7434         2.87701         43.8877 
        3.05573         22.6752         2.84826         43.6046 
          3.068         22.6148         2.81994         43.3162 
        3.08026          22.538         2.79202         43.0307 
        3.09254         22.4185         2.76444         42.7581 
        3.10483         22.4399         2.73722         42.4869 
         3.1171         22.3302          2.7104         42.2111 
        3.12933         22.3549         2.68402         41.9389 
        3.14159         22.2656         2.65793         41.6656 
