# k  (h/Mpc)    P(k)  (Mpc/h)^3    P_linear(k)  (Mpc/h)^3     P_NL(k)  ShotnoiseSubtracted = false
      0.0156606         22359.3         22452.6         22272.8 
      0.0273761           19125         19379.1         19162.2 
      0.0384619         14443.4         14586.4         14393.2 
      0.0498308         11142.5         11466.4         11271.8 
      0.0625568         9410.16         9740.86         9568.22 
      0.0751274         8382.98         8273.64         8031.55 
      0.0867833         6489.04            6660         6584.78 
      0.0984825         5489.65         5269.85         5335.69 
       0.111151         4698.98         4399.76         4482.64 
       0.123864         4208.13         3964.75         4031.69 
       0.135742         3839.06         3565.09         3632.09 
        0.14762         3344.25         3048.19         3225.47 
       0.160083         2845.65         2540.74         2760.02 
       0.172465         2537.78         2217.51         2496.88 
       0.184281         2297.36         2044.23         2323.87 
       0.196406          2171.6          1887.8         2141.68 
       0.209011         2033.88         1679.63         1942.28 
       0.221538         1830.27         1467.81         1815.76 
       0.233611         1757.72         1313.29         1703.45 
       0.245665         1592.05          1212.1         1574.06 
       0.258103         1579.78         1128.35         1486.89 
       0.270422         1408.65         1036.82         1397.94 
       0.282519         1332.61         940.961         1325.36 
       0.294636         1306.64         857.313         1256.42 
       0.306978         1195.97         793.154         1204.96 
       0.319417         1174.03          741.55         1136.42 
        0.33169         1102.93         692.154         1077.11 
       0.343948         1059.84         641.317         1044.51 
       0.356249         1005.73         593.643         1006.47 
       0.368458         964.618         553.711         962.999 
        0.38068         950.812         520.321         927.078 
       0.392856         903.582         489.837         895.487 
       0.405069         856.281         460.028         866.299 
       0.417459         823.555         431.169         837.039 
       0.429752         821.205         405.262         808.027 
       0.441978         792.275         382.524         787.982 
       0.454294         757.939         361.876         756.368 
        0.46658         736.504         342.501         741.206 
       0.478753         723.011         324.224          719.22 
       0.490964          695.14         307.056         697.558 
       0.503334          665.91         291.211         682.524 
       0.515665         663.206         276.762         667.117 
       0.527909         635.422         263.423         653.633 
       0.540159         620.206         250.803         637.521 
        0.55248         607.619         238.829         621.204 
       0.564743         602.402         227.741          610.75 
        0.57686         582.927         217.551         594.904 
       0.589077         573.207         207.931         582.009 
       0.601441         559.166         198.784         570.932 
        0.61382         543.352          190.16         560.963 
       0.626067         537.683         182.112         550.789 
       0.638306         518.157         174.534         539.616 
       0.650632         513.318         167.354         527.164 
       0.662899         509.095         160.625          520.74 
       0.675076         492.954          154.32         513.874 
       0.687267         478.658         148.345         501.831 
       0.699615         477.396         142.611         493.939 
       0.711937         467.079         137.191         484.631 
       0.724148         452.044         132.099          478.32 
       0.736433         441.475          127.24         469.964 
       0.748747         435.845         122.618         461.772 
       0.761037         428.131         118.237         456.302 
       0.773197         421.394         114.115         448.721 
       0.785376         416.145         110.185         442.348 
       0.797761         403.653          106.38         435.928 
       0.810096         398.982         102.769         430.381 
       0.822371         388.596         99.3431         423.449 
       0.834626         384.646         96.0799         418.617 
       0.846916         378.898         92.9555         412.069 
       0.859215         374.174         89.9691         406.044 
       0.871383         365.841         87.1443         400.763 
        0.88363         361.436         84.4245         396.731 
       0.895928         356.403         81.8111         390.599 
       0.908253         347.568          79.304         384.185 
       0.920535         340.519         76.9109         380.139 
       0.932774         335.528         74.6253         374.352 
        0.94508         330.346         72.4216         370.643 
       0.957324         326.797          70.318          365.72 
        0.96953         322.602         68.3048         361.314 
       0.981769         314.835         66.3658         357.298 
       0.994071         313.597         64.4931         352.978 
         1.0064         307.676         62.6899         347.857 
        1.01868         304.082         60.9611         343.453 
        1.03092         294.992         59.3056         340.468 
         1.0432         292.183         57.7059         336.356 
        1.05553         289.083         56.1592         331.722 
        1.06777         285.076         54.6807         327.971 
           1.08         278.542         53.2571         324.366 
        1.09227         277.849         51.8798         320.476 
         1.1046         272.259         50.5463         317.461 
         1.1169         266.425         49.2622         313.263 
        1.12915         262.689         48.0292         310.077 
        1.14142         257.345         46.8361         306.436 
        1.15365         254.431         45.6871         303.226 
        1.16585          250.01         44.5799         299.844 
        1.17807         247.562         43.5082         296.592 
        1.19037          243.16         42.4648         294.088 
        1.20276         240.159         41.4487          290.25 
        1.21504         235.146          40.474         286.996 
        1.22728         231.682         39.5347         283.882 
        1.23954         230.297         38.6231         281.039 
        1.25184         224.975         37.7387         278.079 
        1.26414         220.459         36.8816         275.453 
        1.27632         218.594         36.0589         272.925 
         1.2886         216.579         35.2556         269.832 
        1.30093         211.655          34.474         266.412 
        1.31316         207.151         33.7219         263.869 
        1.32541          206.04         32.9921         261.066 
        1.33772         202.369         32.2799         258.703 
        1.35005         199.954         31.5884          255.78 
        1.36225         196.068         30.9241         253.391 
        1.37447         192.963         30.2778         250.322 
        1.38676         191.095         29.6471         248.561 
        1.39907          188.28         29.0332         245.525 
        1.41133         184.621         28.4395         242.961 
        1.42358         182.374          27.863         240.678 
        1.43591          179.95         27.2985         238.525 
        1.44818         176.469         26.7528         236.011 
        1.46037         174.985         26.2253         233.477 
        1.47263         171.514         25.7092         231.274 
        1.48494         170.055         25.2049         228.502 
        1.49724         167.038         24.7147          227.07 
        1.50952         164.045         24.2385         224.439 
        1.52178         162.248         23.7755         222.201 
        1.53409         159.307         23.3228         220.179 
        1.54637          156.84         22.8829          218.36 
        1.55858         155.116         22.4568         216.036 
        1.57081          152.36          22.041         213.946 
        1.58313         150.382         21.6332         211.772 
        1.59544         147.597         21.2359         209.886 
        1.60767         146.206         20.8511         208.023 
        1.61994         143.709         20.4746         205.937 
        1.63225         141.402         20.1066         203.848 
        1.64452         139.129         19.7487         202.042 
        1.65676         137.355         19.4006          200.31 
          1.669         135.754         19.0606         198.318 
        1.68133         133.071         18.7267         196.508 
        1.69363         130.762         18.4017         194.874 
        1.70585         128.712         18.0866          193.06 
        1.71809         127.025         17.7782         190.993 
        1.73038         125.413          17.476         189.402 
        1.74268         124.247         17.1807         187.548 
        1.75493         121.363         16.8935         186.034 
        1.76714         120.756         16.6137         184.408 
        1.77942           118.2         16.3388         182.687 
        1.79173         116.432         16.0694         180.971 
        1.80402         114.882         15.8066         179.361 
         1.8163         112.798         15.5499         177.932 
         1.8286         111.295         15.2985         176.185 
         1.8409         109.958         15.0528         174.552 
        1.85315         107.748         14.8133         173.121 
        1.86537         106.719         14.5796          171.66 
        1.87765         105.361           14.35         170.191 
        1.88995         103.415         14.1248         168.563 
        1.90221         102.153         13.9052         167.254 
        1.91445         100.601         13.6907         165.644 
        1.92674         98.9818         13.4799         164.183 
        1.93902         97.7865         13.2736         162.703 
        1.95124         96.4141         13.0727         161.336 
         1.9635         94.8144         12.8755         159.933 
        1.97583         93.3578          12.681         158.519 
        1.98812         92.0058         12.4914         157.396 
        2.00039         90.9681          12.306         155.876 
        2.01264         89.8328         12.1245         154.594 
        2.02492         88.5707         11.9464         153.176 
        2.03717         87.2067         11.7722         151.977 
        2.04942         86.0881         11.6017         150.675 
        2.06171         84.5618          11.434         149.336 
        2.07397         83.5697           11.27         148.203 
        2.08629         82.2792         11.1085         146.908 
        2.09857         81.2961         10.9506         145.735 
        2.11081         79.9672         10.7964          144.39 
        2.12309         78.9625         10.6448          143.29 
        2.13538         77.6605         10.4959         142.037 
        2.14763         76.6015         10.3503         140.884 
        2.15986         75.7401         10.2079         139.626 
        2.17214          74.652         10.0675         138.555 
        2.18443         73.7262         9.92968         137.565 
        2.19671          72.783         9.79458         136.365 
        2.20898         71.8244         9.66215         135.139 
        2.22126         70.7635         9.53203         134.151 
        2.23354         69.8908         9.40436         133.081 
         2.2458         68.5307         9.27924         131.955 
        2.25807         67.8502         9.15629         130.902 
        2.27035         66.8675         9.03547         129.839 
        2.28263         66.0454         8.91688         128.852 
         2.2949         64.7627         8.80048         127.834 
        2.30718         63.8927         8.68613         126.783 
        2.31946          63.309         8.57375           125.7 
        2.33169         62.3022         8.46385         124.759 
        2.34393         61.7828          8.3557         123.883 
        2.35622         60.6937          8.2491         122.824 
        2.36847         60.0886         8.14465         121.975 
        2.38076          59.007         8.04171         120.901 
        2.39305         58.4444         7.94057         120.067 
        2.40534         57.5622         7.84116         119.066 
        2.41762         56.9467         7.74347         118.117 
        2.42989         56.0414         7.64759          117.26 
        2.44216         55.5354         7.55335          116.28 
         2.4544         54.6486         7.46091         115.443 
        2.46667         53.8778         7.36981         114.562 
        2.47897         53.3714         7.28001         113.613 
        2.49124         52.7489         7.19195         112.768 
        2.50349         51.8612         7.10548         111.934 
        2.51578         51.4892         7.02017         111.172 
        2.52805         50.6814         6.93642         110.244 
        2.54029          50.177         6.85424         109.405 
        2.55257         49.5209         6.77314         108.648 
        2.56487         49.1987          6.6932         107.838 
        2.57716          48.631         6.61467         107.033 
        2.58942         47.8354         6.53757         106.246 
        2.60167         47.3117         6.46177         105.476 
        2.61395         46.9666         6.38706         104.676 
        2.62624         46.1748         6.31343         103.846 
        2.63849         45.6863          6.2412         103.124 
        2.65073         45.0743         6.17017         102.367 
        2.66302         44.6951         6.09999         101.614 
         2.6753          44.111         6.03095         100.902 
        2.68756          43.793         5.96312         100.134 
        2.69983         43.2438         5.89629         99.4208 
        2.71213         42.7536         5.83033          98.713 
        2.72441         42.3652         5.76551         97.9869 
        2.73665          41.896         5.70183         97.3169 
         2.7489          41.442         5.63914         96.6346 
        2.76118         41.0543         5.57721          95.913 
        2.77349         40.6062         5.51606         95.2511 
        2.78576         40.2264         5.45606         94.5522 
        2.79802         39.8772         5.39699         93.9478 
        2.81031         39.3436         5.33866         93.2618 
        2.82259         38.9701         5.28121         92.5692 
        2.83483         38.5496         5.22483         91.9672 
         2.8471         38.1844         5.16916          91.299 
         2.8594         37.7943         5.11413         90.6522 
         2.8717         37.5333         5.05992         90.0681 
        2.88396         37.2184          5.0067         89.4389 
        2.89619         36.9126         4.95434         88.7741 
        2.90847         36.5555         4.90253         88.1279 
        2.92072         36.2748         4.85155          87.586 
        2.93299         36.1296         4.80127         87.0047 
        2.94526         35.7616         4.75166         86.3883 
        2.95753         35.5283         4.70276         85.7861 
        2.96982         35.1573         4.65447         85.2181 
        2.98209         35.0333         4.60695         84.6456 
        2.99436         34.7463         4.56006         84.0403 
        3.00666         34.6104         4.51374         83.4786 
        3.01894         34.3864         4.46816         82.9278 
        3.03119          34.153         4.42326         82.3955 
        3.04345         33.9521         4.37899         81.8532 
        3.05573          33.856         4.33523         81.2958 
          3.068         33.6445         4.29211         80.7604 
        3.08026         33.4554         4.24963         80.2207 
        3.09254          33.386         4.20764         79.6983 
        3.10483         33.3842         4.16621         79.1768 
         3.1171         33.2049         4.12539         78.6466 
        3.12933         32.9749         4.08524         78.1243 
        3.14159         32.9816         4.04553         77.6038 
