# k  (h/Mpc)    Pcb(k)  (Mpc/h)^3    Pcb_linear(k) (Mpc/h)^3    Pcb_NL(k) (Mpc/h)^3   ShotnoiseSubtracted = false
      0.0156606         247.727         248.552         247.418 
      0.0273761         216.255          215.23          214.82 
      0.0384619          164.19         162.253         162.287 
      0.0498308         129.401         127.665         127.783 
      0.0625568         109.261         108.521         108.493 
      0.0751274          93.217          92.211         92.0999 
      0.0867833         74.8553         74.2454         74.2351 
      0.0984825         59.7782         58.7586         58.8343 
       0.111151         49.9255         49.0642          49.127 
       0.123864         44.8131         44.2179         44.2243 
       0.135742         40.2018         39.7636         39.7523 
        0.14762         34.2756         34.0004         34.0366 
       0.160083         28.5786         28.3417         28.4058 
       0.172465         24.9786         24.7371         24.8086 
       0.184281         23.0628         22.8048         22.8683 
       0.196406         21.1619         21.0603         21.0977 
       0.209011          18.894         18.7384         18.7886 
       0.221538         16.5993         16.3757         16.4586 
       0.233611         14.8483          14.652         14.7451 
       0.245665         13.7907         13.5233          13.602 
       0.258103         12.6319         12.5891         12.6637 
       0.270422         11.7127         11.5679         11.6388 
       0.282519         10.6349         10.4986         10.5794 
       0.294636         9.79587         9.56537         9.65207 
       0.306978         8.90243         8.84959         8.93829 
       0.319417         8.39339         8.27386         8.35898 
        0.33169         7.81821         7.72277         7.80384 
       0.343948         7.29217          7.1556         7.23606 
       0.356249          6.6996          6.6237         6.71884 
       0.368458          6.2878         6.17819         6.26073 
        0.38068          5.8762         5.80561         5.88763 
       0.392856         5.53839         5.46551         5.54822 
       0.405069         5.22638         5.13295         5.21026 
       0.417459         4.83041         4.81095         4.89392 
       0.429752         4.57386         4.52189         4.60304 
       0.441978         4.33652         4.26819          4.3551 
       0.454294         4.07848         4.03781         4.11944 
        0.46658         3.89851         3.82165         3.90086 
       0.478753          3.6765         3.61773           3.696 
       0.490964         3.50645         3.42618         3.51071 
       0.503334         3.33703         3.24937         3.32726 
       0.515665          3.1442         3.08815         3.17075 
       0.527909         3.01517         2.93932         3.01515 
       0.540159         2.85371         2.79851         2.87266 
        0.55248         2.70519          2.6649         2.73496 
       0.564743         2.61583         2.54118         2.61825 
        0.57686         2.49491         2.42748         2.50065 
       0.589077         2.35932         2.32015         2.39675 
       0.601441         2.26987         2.21808         2.29246 
        0.61382         2.17257         2.12186         2.19322 
       0.626067         2.07274         2.03206          2.1024 
       0.638306         1.99561          1.9475         2.01641 
       0.650632         1.92725         1.86738         1.93762 
       0.662899          1.8504         1.79231         1.85952 
       0.675076         1.75892         1.72195         1.78954 
       0.687267         1.68847         1.65527         1.71855 
       0.699615           1.644          1.5913         1.65381 
       0.711937         1.57463         1.53082         1.59582 
       0.724148         1.52676           1.474         1.53694 
       0.736433         1.46066         1.41978         1.47957 
       0.748747         1.40983         1.36821         1.43147 
       0.761037          1.3556         1.31933         1.37968 
       0.773197         1.30715         1.27334         1.33489 
       0.785376         1.26139         1.22949         1.28908 
       0.797761         1.21936         1.18702         1.24391 
       0.810096         1.19052         1.14673         1.20611 
       0.822371         1.15191         1.10851          1.1645 
       0.834626         1.11586          1.0721         1.12663 
       0.846916         1.07908         1.03723         1.09482 
       0.859215         1.03593         1.00391         1.06124 
       0.871383         1.00518         0.97239         1.02703 
        0.88363         0.97537        0.942042        0.996718 
       0.895928        0.949489        0.912881        0.966128 
       0.908253        0.922074        0.884905        0.938004 
       0.920535        0.894735        0.858203        0.909528 
       0.932774        0.866131        0.832699        0.882373 
        0.94508        0.843368         0.80811        0.857365 
       0.957324        0.821292        0.784637        0.835045 
        0.96953        0.793268        0.762174        0.811325 
       0.981769        0.770589        0.740537        0.787401 
       0.994071        0.750795        0.719642        0.768693 
         1.0064        0.729285         0.69952        0.746493 
        1.01868         0.71066         0.68023        0.727311 
        1.03092        0.695174        0.661758        0.706822 
         1.0432        0.677286        0.643907        0.688752 
        1.05553        0.656139        0.626649        0.671916 
        1.06777        0.638537        0.610151        0.654617 
           1.08        0.626537        0.594266        0.637949 
        1.09227        0.606502        0.578898        0.621641 
         1.1046        0.592049        0.564018        0.606901 
         1.1169        0.577519        0.549689        0.592191 
        1.12915        0.562187        0.535932        0.577625 
        1.14142        0.552072        0.522618         0.56404 
        1.15365        0.538627        0.509798        0.550577 
        1.16585         0.52472        0.497443         0.53726 
        1.17807        0.515498        0.485484        0.525729 
        1.19037        0.498007        0.473842        0.512877 
        1.20276        0.489331        0.462503        0.500314 
        1.21504        0.479583        0.451627        0.490941 
        1.22728        0.470353        0.441147        0.478382 
        1.23954        0.458351        0.430975        0.468805 
        1.25184        0.450426        0.421106         0.45787 
        1.26414        0.439969        0.411542        0.448017 
        1.27632         0.42708        0.402362        0.437947 
         1.2886        0.416722        0.393399        0.428248 
        1.30093        0.408113        0.384677        0.420447 
        1.31316        0.397828        0.376285        0.411014 
        1.32541        0.390551        0.368141        0.403022 
        1.33772         0.38319        0.360195        0.394594 
        1.35005         0.37747        0.352478        0.386575 
        1.36225        0.369119        0.345066        0.378423 
        1.37447        0.362141        0.337854        0.371399 
        1.38676        0.355477        0.330816        0.363496 
        1.39907        0.347958        0.323967        0.356376 
        1.41133        0.339657        0.317342        0.349668 
        1.42358        0.334991        0.310909        0.342174 
        1.43591        0.328409         0.30461        0.336183 
        1.44818        0.321739        0.298521        0.330102 
        1.46037        0.315522        0.292635        0.323174 
        1.47263        0.309322        0.286875        0.317418 
        1.48494        0.303585        0.281249        0.311884 
        1.49724        0.297949        0.275778        0.306145 
        1.50952          0.2919        0.270465        0.299472 
        1.52178        0.287269        0.265299        0.294262 
        1.53409        0.282636        0.260248        0.289256 
        1.54637         0.27632        0.255339        0.283735 
        1.55858        0.272264        0.250584        0.278677 
        1.57081        0.267479        0.245944        0.273653 
        1.58313        0.263478        0.241393        0.269003 
        1.59544        0.259122         0.23696        0.264201 
        1.60767        0.254601        0.232667        0.259677 
        1.61994        0.248854        0.228466        0.255573 
        1.63225        0.244307        0.224359        0.251118 
        1.64452        0.241734        0.220365         0.24663 
        1.65676        0.238286        0.216481        0.242607 
          1.669        0.234352        0.212688        0.238442 
        1.68133         0.22964        0.208962         0.23456 
        1.69363        0.225635        0.205336        0.230925 
        1.70585        0.221972        0.201819        0.226694 
        1.71809        0.218433        0.198378         0.22314 
        1.73038        0.215552        0.195006        0.219747 
        1.74268        0.211085        0.191711        0.215806 
        1.75493        0.209852        0.188507        0.212803 
        1.76714        0.205445        0.185384        0.209421 
        1.77942        0.202994        0.182316        0.206153 
        1.79173        0.199905         0.17931        0.202523 
        1.80402        0.196265        0.176378        0.199779 
         1.8163        0.193719        0.173514        0.196088 
         1.8286        0.190656        0.170708        0.193743 
         1.8409        0.187668        0.167966        0.190437 
        1.85315        0.185603        0.165294        0.187581 
        1.86537        0.181583        0.162686        0.184694 
        1.87765        0.179143        0.160124        0.182167 
        1.88995        0.177714        0.157611        0.179421 
        1.90221        0.175393        0.155161        0.176698 
        1.91445         0.17186        0.152767        0.174213 
        1.92674        0.169445        0.150416        0.171543 
        1.93902        0.166909        0.148114        0.169001 
        1.95124        0.164509        0.145872        0.166548 
         1.9635        0.162475        0.143671        0.164136 
        1.97583        0.160696        0.141501        0.161832 
        1.98812        0.158235        0.139385         0.15953 
        2.00039        0.156878        0.137316        0.157267 
        2.01264        0.154392        0.135291        0.155153 
        2.02492        0.152927        0.133304        0.152904 
        2.03717        0.150023         0.13136        0.150775 
        2.04942        0.148499        0.129458        0.148706 
        2.06171        0.146381        0.127587        0.146607 
        2.07397        0.144109        0.125757        0.144683 
        2.08629        0.142636        0.123955        0.142676 
        2.09857         0.14099        0.122193        0.140772 
        2.11081        0.139399        0.120472        0.138671 
        2.12309        0.137109         0.11878        0.137074 
        2.13538        0.135699        0.117119        0.135184 
        2.14763        0.134187        0.115494        0.133453 
        2.15986        0.132321        0.113905        0.131752 
        2.17214        0.130714        0.112339        0.129977 
        2.18443        0.129678          0.1108        0.128351 
        2.19671        0.127731        0.109293        0.126732 
        2.20898        0.126493        0.107815        0.125016 
        2.22126        0.124616        0.106363        0.123499 
        2.23354        0.123169        0.104939        0.121938 
         2.2458        0.122024        0.103543        0.120176 
        2.25807        0.120679        0.102171        0.118831 
        2.27035        0.119189        0.100822        0.117388 
        2.28263         0.11774       0.0994991        0.115935 
         2.2949        0.116709       0.0982002        0.114288 
        2.30718        0.115101       0.0969242        0.112984 
        2.31946        0.114214       0.0956702         0.11164 
        2.33169        0.112427       0.0944439        0.110277 
        2.34393        0.111879       0.0932372        0.109014 
        2.35622        0.110631       0.0920476        0.107669 
        2.36847        0.109504       0.0908822        0.106399 
        2.38076         0.10815       0.0897335        0.105143 
        2.39305        0.107257       0.0886049        0.103844 
        2.40534         0.10594       0.0874957        0.102573 
        2.41762        0.104879       0.0864056        0.101369 
        2.42989        0.103851       0.0853358        0.100158 
        2.44216          0.1029       0.0842842       0.0990674 
         2.4544        0.101774       0.0832527       0.0979329 
        2.46667        0.100708       0.0822361       0.0967614 
        2.47897       0.0993583       0.0812341        0.095591 
        2.49124       0.0988126       0.0802515       0.0945346 
        2.50349       0.0977114       0.0792866       0.0933932 
        2.51578       0.0966238       0.0783347       0.0923091 
        2.52805       0.0962418       0.0774001       0.0913301 
        2.54029       0.0951455       0.0764831       0.0903542 
        2.55257       0.0944268       0.0755782       0.0893388 
        2.56487       0.0935091       0.0746862       0.0883311 
        2.57716       0.0928209       0.0738099       0.0873156 
        2.58942       0.0917189       0.0729495       0.0863459 
        2.60167       0.0908165       0.0721038        0.085421 
        2.61395       0.0900912       0.0712701         0.08444 
        2.62624       0.0897526       0.0704485       0.0835874 
        2.63849       0.0886039       0.0696425       0.0826571 
        2.65073       0.0878686       0.0688499       0.0817926 
        2.66302       0.0873307       0.0680669       0.0808522 
         2.6753        0.086587       0.0672965       0.0799949 
        2.68756       0.0861329       0.0665396        0.079166 
        2.69983       0.0851115       0.0657938       0.0782531 
        2.71213       0.0844685       0.0650579       0.0774705 
        2.72441        0.083818       0.0643345       0.0766767 
        2.73665        0.083052       0.0636239         0.07589 
         2.7489       0.0828116       0.0629245       0.0751088 
        2.76118       0.0820862       0.0622334       0.0742917 
        2.77349       0.0813875        0.061551       0.0735706 
        2.78576       0.0810343       0.0608816       0.0728475 
        2.79802        0.080267       0.0602224       0.0719866 
        2.81031       0.0796165       0.0595715       0.0712803 
        2.82259       0.0791235       0.0589305       0.0705932 
        2.83483       0.0786929       0.0583013       0.0698198 
         2.8471       0.0781235       0.0576801       0.0691845 
         2.8594       0.0780199       0.0570661       0.0685166 
         2.8717       0.0772025       0.0564612        0.067766 
        2.88396       0.0768956       0.0558673       0.0671079 
        2.89619       0.0762997       0.0552831       0.0664621 
        2.90847        0.075884        0.054705       0.0657763 
        2.92072       0.0753112       0.0541361       0.0651235 
        2.93299         0.07503       0.0535751       0.0644967 
        2.94526       0.0747099       0.0530214       0.0638688 
        2.95753       0.0741668       0.0524758        0.063227 
        2.96982       0.0739118        0.051937       0.0625871 
        2.98209       0.0732569       0.0514068       0.0620036 
        2.99436        0.073167       0.0508835       0.0614391 
        3.00666        0.072867       0.0503667       0.0607906 
        3.01894       0.0725866        0.049858       0.0602267 
        3.03119       0.0723587       0.0493571       0.0596853 
        3.04345       0.0718755        0.048863       0.0591179 
        3.05573       0.0719624       0.0483747       0.0585483 
          3.068       0.0716001       0.0478936       0.0579958 
        3.08026        0.071293       0.0474195       0.0574835 
        3.09254       0.0711973        0.046951       0.0569377 
        3.10483        0.070938       0.0464887       0.0564097 
         3.1171       0.0708693       0.0460333       0.0558801 
        3.12933       0.0705225       0.0455852       0.0553206 
        3.14159       0.0702507       0.0451421       0.0548474 
