# k  (h/Mpc)    Pcb(k)  (Mpc/h)^3    Pcb_linear(k) (Mpc/h)^3    Pcb_NL(k) (Mpc/h)^3   ShotnoiseSubtracted = false
      0.0156606         22379.5         22506.3         22326.1 
      0.0273761         19174.5         19457.7         19239.9 
      0.0384619           14496         14658.6         14464.4 
      0.0498308         11191.9         11529.6           11334 
      0.0625568         9457.61         9798.52         9624.86 
      0.0751274         8428.73         8324.78          8081.2 
      0.0867833         6526.55          6702.3          6626.6 
      0.0984825         5523.52         5303.97         5370.25 
       0.111151         4729.31          4428.7         4512.12 
       0.123864         4236.78         3991.13         4058.51 
       0.135742         3865.71         3589.01         3656.46 
        0.14762         3368.19         3068.77         3247.25 
       0.160083          2867.1         2557.99         2778.76 
       0.172465          2557.3         2232.63         2513.91 
       0.184281         2315.85         2058.22         2339.78 
       0.196406         2189.54         1900.76         2156.38 
       0.209011         2051.49         1691.19         1955.65 
       0.221538         1846.72         1477.94         1828.28 
       0.233611         1773.84         1322.37         1715.23 
       0.245665         1607.03         1220.49         1584.95 
       0.258103         1595.01         1136.17         1497.19 
       0.270422            1423         1044.01         1407.64 
       0.282519         1346.38         947.499         1334.56 
       0.294636         1320.66         863.276         1265.16 
       0.306978         1209.05         798.675         1213.34 
       0.319417         1187.34         746.715         1144.33 
        0.33169         1115.88         696.978         1084.61 
       0.343948         1072.51          645.79          1051.8 
       0.356249         1018.17         597.786          1013.5 
       0.368458         976.987         557.577         969.724 
        0.38068         963.259         523.952         933.548 
       0.392856         915.685         493.257          901.74 
       0.405069          868.18         463.244         872.355 
       0.417459         835.414         434.183         842.891 
       0.429752         833.308         408.096         813.677 
       0.441978         804.202           385.2         793.495 
       0.454294         769.772         364.408          761.66 
        0.46658         748.209         344.899         746.395 
       0.478753         734.796         326.495         724.257 
       0.490964         706.924         309.208         702.447 
       0.503334         677.391         293.251         687.306 
       0.515665         674.867         278.701         671.791 
       0.527909         646.902         265.269         658.213 
       0.540159         631.757         252.561          641.99 
        0.55248          619.22         240.503         625.559 
       0.564743         614.254         229.338         615.031 
        0.57686         594.543         219.076         599.075 
       0.589077         584.821         209.389         586.091 
       0.601441         570.879         200.179         574.936 
        0.61382         554.955         191.494         564.897 
       0.626067         549.564          183.39         554.653 
       0.638306         529.775         175.759         543.402 
       0.650632         525.045         168.528         530.863 
       0.662899         521.009         161.752         524.394 
       0.675076         504.705         155.403          517.48 
       0.687267         490.353         149.386         505.353 
       0.699615         489.311         143.612         497.405 
       0.711937         479.065         138.154         488.033 
       0.724148         463.816         133.026         481.677 
       0.736433         453.153         128.133         473.263 
       0.748747         447.613         123.479         465.013 
       0.761037         439.905         119.067         459.506 
       0.773197         433.272         114.916         451.871 
       0.785376         428.093         110.959         445.454 
       0.797761          415.44         107.126         438.988 
       0.810096         410.875          103.49         433.403 
       0.822371         400.371         100.041         426.423 
       0.834626         396.531         96.7546         421.557 
       0.846916         390.733         93.6084         414.962 
       0.859215         386.097          90.601         408.896 
       0.871383         377.677         87.7563         403.578 
        0.88363         373.411         85.0175         399.518 
       0.895928         368.323         82.3857         393.342 
       0.908253         359.315          79.861         386.884 
       0.920535         352.345         77.4511          382.81 
       0.932774         347.338         75.1495         376.982 
        0.94508         342.166         72.9303         373.247 
       0.957324         338.701          70.812         368.289 
        0.96953         334.508         68.7847         363.853 
       0.981769         326.655          66.832         359.808 
       0.994071         325.522         64.9462         355.458 
         1.0064          319.57         63.1303         350.301 
        1.01868         315.994         61.3894         345.866 
        1.03092         306.761         59.7223          342.86 
         1.0432         304.036         58.1113         338.719 
        1.05553         300.955         56.5538         334.052 
        1.06777         296.975         55.0649         330.276 
           1.08         290.325         53.6313         326.645 
        1.09227         289.771         52.2444         322.728 
         1.1046          284.12         50.9015         319.692 
         1.1169         278.187         49.6084         315.464 
        1.12915           274.4         48.3667         312.256 
        1.14142         268.938         47.1652          308.59 
        1.15365         266.127         46.0082         305.357 
        1.16585         261.634         44.8932         301.951 
        1.17807         259.201          43.814         298.677 
        1.19037         254.768         42.7633         296.154 
        1.20276         251.781           41.74          292.29 
        1.21504         246.634         40.7584         289.013 
        1.22728         243.142         39.8126         285.877 
        1.23954          241.82         38.8946         283.014 
        1.25184         236.327         38.0039         280.033 
        1.26414         231.731         37.1408         277.389 
        1.27632         229.899         36.3124         274.844 
         1.2886         227.892         35.5034         271.729 
        1.30093         222.833         34.7163         268.284 
        1.31316         218.225         33.9589         265.724 
        1.32541         217.185          33.224         262.901 
        1.33772         213.371         32.5068         260.521 
        1.35005         210.998         31.8104         257.578 
        1.36225         207.032         31.1415         255.172 
        1.37447         203.854         30.4906         252.082 
        1.38676         201.984         29.8555         250.308 
        1.39907         199.108         29.2373         247.251 
        1.41133         195.344         28.6394         244.669 
        1.42358         193.046         28.0588          242.37 
        1.43591         190.609         27.4904         240.202 
        1.44818         187.001         26.9409          237.67 
        1.46037         185.547         26.4097         235.118 
        1.47263         181.952         25.8899           232.9 
        1.48494          180.53         25.3821         230.108 
        1.49724           177.4         24.8884         228.667 
        1.50952         174.271         24.4089         226.016 
        1.52178         172.462         23.9427         223.763 
        1.53409         169.431         23.4868         221.726 
        1.54637         166.898         23.0438         219.895 
        1.55858         165.128         22.6147         217.555 
        1.57081         162.339          22.196          215.45 
        1.58313         160.292         21.7853         213.261 
        1.59544         157.374         21.3852         211.362 
        1.60767         155.995         20.9977         209.486 
        1.61994          153.41         20.6185         207.384 
        1.63225         151.013         20.2479         205.281 
        1.64452         148.659         19.8875         203.463 
        1.65676         146.819          19.537         201.718 
          1.669         145.169         19.1946         199.712 
        1.68133         142.395         18.8584          197.89 
        1.69363         139.964         18.5311         196.244 
        1.70585          137.85         18.2137         194.418 
        1.71809          136.14         17.9032         192.336 
        1.73038         134.487         17.5989         190.733 
        1.74268         133.298         17.3015         188.866 
        1.75493         130.221         17.0123         187.341 
        1.76714         129.667         16.7305         185.705 
        1.77942         126.998         16.4537         183.971 
        1.79173         125.151         16.1824         182.243 
        1.80402         123.534         15.9178         180.622 
         1.8163         121.339         15.6592         179.183 
         1.8286         119.773          15.406         177.423 
         1.8409         118.383         15.1586         175.779 
        1.85315           116.1         14.9175         174.338 
        1.86537         115.002         14.6821         172.867 
        1.87765         113.599         14.4509         171.387 
        1.88995         111.535         14.2241         169.748 
        1.90221         110.232          14.003         168.429 
        1.91445          108.59         13.7869         166.809 
        1.92674         106.908         13.5747         165.337 
        1.93902         105.647         13.3669         163.847 
        1.95124         104.234         13.1646         162.471 
         1.9635         102.519          12.966         161.057 
        1.97583         100.984         12.7702         159.634 
        1.98812         99.5782         12.5792         158.502 
        2.00039         98.4861         12.3925         156.972 
        2.01264         97.2943         12.2097         155.681 
        2.02492         95.9688         12.0304         154.253 
        2.03717         94.5363          11.855         153.046 
        2.04942         93.3699         11.6833         151.735 
        2.06171         91.7412         11.5144         150.386 
        2.07397         90.6887         11.3493         149.245 
        2.08629         89.3446         11.1866         147.941 
        2.09857         88.2982         11.0276          146.76 
        2.11081         86.8934         10.8723         145.405 
        2.12309         85.8267         10.7197         144.297 
        2.13538         84.4678         10.5697         143.036 
        2.14763          83.321         10.4231         141.875 
        2.15986         82.4225         10.2797         140.608 
        2.17214         81.2738         10.1383         139.529 
        2.18443         80.2991          9.9995         138.532 
        2.19671         79.2898         9.86345         137.324 
        2.20898         78.2673         9.73009         136.089 
        2.22126         77.1334         9.59906         135.094 
        2.23354         76.2203         9.47048         134.017 
         2.2458         74.7475         9.34449         132.883 
        2.25807         74.0453         9.22067         131.823 
        2.27035         72.9763           9.099         130.752 
        2.28263         72.1072         8.97958         129.758 
         2.2949         70.7312         8.86236         128.733 
        2.30718         69.7983          8.7472         127.675 
        2.31946         69.1983         8.63403         126.584 
        2.33169         68.1071         8.52336         125.636 
        2.34393         67.5712         8.41445         124.754 
        2.35622         66.3889          8.3071         123.687 
        2.36847         65.7518         8.20192         122.833 
        2.38076         64.5787         8.09825         121.751 
        2.39305         63.9878          7.9964         120.911 
        2.40534         63.0379          7.8963         119.903 
        2.41762         62.3694         7.79792         118.948 
        2.42989         61.4083         7.70137         118.084 
        2.44216         60.8459         7.60646         117.098 
         2.4544         59.9047         7.51338         116.254 
        2.46667         59.0923         7.42163         115.367 
        2.47897         58.5307          7.3312         114.412 
        2.49124         57.8603         7.24252         113.561 
        2.50349         56.9073         7.15545         112.721 
        2.51578         56.5063         7.06954         111.954 
        2.52805         55.6463         6.98519         111.019 
        2.54029         55.1036         6.90243         110.175 
        2.55257          54.384         6.82077         109.412 
        2.56487         54.0462         6.74027         108.596 
        2.57716         53.4362         6.66118         107.786 
        2.58942         52.5637         6.58354         106.993 
        2.60167         52.0061         6.50721         106.218 
        2.61395         51.6487         6.43198         105.412 
        2.62624          50.778         6.35783         104.576 
        2.63849         50.2528         6.28508          103.85 
        2.65073         49.5896         6.21356         103.087 
        2.66302         49.1793         6.14289         102.328 
         2.6753         48.5508         6.07336         101.611 
        2.68756         48.2041         6.00505         100.839 
        2.69983         47.6038         5.93775          100.12 
        2.71213         47.0717         5.87133         99.4072 
        2.72441         46.6598         5.80605         98.6759 
        2.73665         46.1451         5.74192         98.0012 
         2.7489         45.6521          5.6788         97.3141 
        2.76118         45.2271         5.61643         96.5874 
        2.77349         44.7523         5.55484         95.9209 
        2.78576         44.3334         5.49443         95.2171 
        2.79802         43.9538         5.43494         94.6084 
        2.81031         43.3725          5.3762         93.9176 
        2.82259         42.9653         5.31835         93.2201 
        2.83483         42.5102         5.26157         92.6139 
         2.8471         42.1265         5.20551          91.941 
         2.8594         41.6912         5.15009         91.2897 
         2.8717         41.4088          5.0955         90.7014 
        2.88396         41.0528          5.0419         90.0679 
        2.89619         40.7267         4.98918         89.3984 
        2.90847         40.3353           4.937         88.7476 
        2.92072         40.0259         4.88566         88.2019 
        2.93299          39.874         4.83503         87.6165 
        2.94526         39.4706         4.78507         86.9958 
        2.95753          39.217         4.73583         86.3894 
        2.96982         38.8152          4.6872         85.8173 
        2.98209         38.6669         4.63935         85.2409 
        2.99436         38.3591         4.59212         84.6313 
        3.00666         38.2081         4.54548         84.0656 
        3.01894         37.9619         4.49958         83.5109 
        3.03119          37.725         4.45437         82.9749 
        3.04345         37.4909         4.40978         82.4288 
        3.05573         37.3966         4.36571         81.8675 
          3.068         37.1602         4.32229         81.3283 
        3.08026         36.9516         4.27951         80.7849 
        3.09254          36.881         4.23723         80.2587 
        3.10483         36.8752          4.1955         79.7336 
         3.1171          36.677          4.1544         79.1996 
        3.12933         36.4259         4.11396         78.6737 
        3.14159         36.4372         4.07398         78.1495 
