# k  (h/Mpc)    Pcb(k)  (Mpc/h)^3    Pcb_linear(k) (Mpc/h)^3    Pcb_NL(k) (Mpc/h)^3   ShotnoiseSubtracted = false
      0.0156606         21572.7           21691         21520.3 
      0.0273761         18490.4         18753.1         18550.1 
      0.0384619         13981.9         14127.9           13948 
      0.0498308         10797.7         11112.3         10931.4 
      0.0625568         9122.37         9443.87         9282.86 
      0.0751274         8124.13         8023.49         7797.26 
      0.0867833         6293.06         6459.74          6389.8 
      0.0984825         5317.85         5112.02         5174.52 
       0.111151         4548.92         4268.43         4346.18 
       0.123864         4074.98          3846.7         3909.61 
       0.135742         3715.43         3459.13         3522.23 
        0.14762         3234.44         2957.72         3125.03 
       0.160083         2747.81         2465.42         2671.76 
       0.172465         2450.75         2151.84         2414.55 
       0.184281         2221.22         1983.74         2247.23 
       0.196406         2095.32         1831.97         2069.98 
       0.209011         1960.34         1629.99         1876.48 
       0.221538         1765.05         1424.45         1752.38 
       0.233611          1692.1         1274.52         1642.52 
       0.245665         1533.74         1176.33         1517.03 
       0.258103         1518.39         1095.06         1432.55 
       0.270422         1354.35         1006.23         1346.03 
       0.282519         1279.28         913.212         1274.59 
       0.294636         1256.31         832.037         1207.55 
       0.306978         1147.73         769.774         1157.39 
       0.319417         1125.04         719.694         1091.33 
        0.33169         1057.54         671.757          1033.7 
       0.343948         1015.11         622.421         1002.01 
       0.356249         962.216         576.154         965.029 
       0.368458         924.426         537.401         922.342 
        0.38068         909.478         504.992         887.382 
       0.392856         863.572         475.408         856.573 
       0.405069         819.371         446.481         829.022 
       0.417459         788.086         418.472         799.837 
       0.429752         783.947         393.328         771.993 
       0.441978         756.428         371.261          752.53 
       0.454294         723.061         351.221         722.001 
        0.46658         702.706         332.419         707.276 
       0.478753         689.244         314.681         685.947 
       0.490964         662.508         298.019         665.095 
       0.503334         634.058          282.64         650.381 
       0.515665         631.839         268.616         635.832 
       0.527909         605.726          255.67         622.456 
       0.540159         590.841         243.422         606.749 
        0.55248         579.061           231.8         591.073 
       0.564743         574.342         221.039         581.087 
        0.57686          554.97         211.149         565.807 
       0.589077         544.482         201.812          553.38 
       0.601441          532.43         192.935         542.631 
        0.61382         517.782         184.565         533.201 
       0.626067         512.128         176.754         523.257 
       0.638306         493.343         169.399          512.72 
       0.650632         488.704          162.43         500.479 
       0.662899         484.601         155.899         494.489 
       0.675076         468.547         149.779          487.66 
       0.687267         455.333          143.98         476.123 
       0.699615          453.34         138.415         468.635 
       0.711937         444.404         133.155         459.882 
       0.724148         429.823         128.212         453.705 
       0.736433          419.73         123.496         445.642 
       0.748747         414.418         119.011         437.783 
       0.761037         406.942         114.758         432.454 
       0.773197         401.044         110.758         425.438 
       0.785376         395.634         106.944         419.294 
       0.797761         383.929          103.25         412.978 
       0.810096         380.176         99.7454         407.791 
       0.822371          369.53         96.4206         401.165 
       0.834626         366.211         93.2535         396.437 
       0.846916         360.101          90.221         390.248 
       0.859215         356.591         87.3225         384.587 
       0.871383         348.319         84.5808         379.511 
        0.88363         344.812          81.941         375.669 
       0.895928         339.457         79.4045         369.807 
       0.908253         330.983         76.9712         363.787 
       0.920535         325.226         74.6485         359.758 
       0.932774         319.845         72.4301         354.371 
        0.94508         315.045         70.2913         350.787 
       0.957324         312.334         68.2496           346.1 
        0.96953         308.189         66.2956         341.904 
       0.981769         300.514         64.4136         338.143 
       0.994071         299.387         62.5961         334.012 
         1.0064         293.526         60.8459         329.156 
        1.01868         290.242          59.168         324.958 
        1.03092         281.532         57.5612         322.105 
         1.0432         278.744         56.0085          318.21 
        1.05553         275.617         54.5074         313.853 
        1.06777         272.397         53.0723         310.369 
           1.08         266.091         51.6906          306.92 
        1.09227         265.027         50.3539          303.23 
         1.1046          260.02         49.0596          300.33 
         1.1169         254.191         47.8132         296.326 
        1.12915         250.837         46.6166         293.412 
        1.14142         245.885         45.4585         289.895 
        1.15365         243.085         44.3434         286.846 
        1.16585         238.751         43.2687         283.586 
        1.17807         236.402         42.2285         280.656 
        1.19037         232.682         41.2158         278.255 
        1.20276         229.567         40.2296         274.616 
        1.21504         224.702         39.2835         271.556 
        1.22728         221.374         38.3719         268.448 
        1.23954         220.159         37.4872         265.961 
        1.25184         215.198         36.6287         263.123 
        1.26414         210.865         35.7969         260.611 
        1.27632         209.443         34.9984         258.285 
         1.2886         207.762         34.2187         255.297 
        1.30093         202.643         33.4601         252.125 
        1.31316         198.415         32.7301         249.596 
        1.32541         197.328         32.0217         247.087 
        1.33772         194.158         31.3305         244.773 
        1.35005         191.713         30.6593         242.015 
        1.36225         188.028         30.0146         239.754 
        1.37447          185.18         29.3873         236.822 
        1.38676         183.327         28.7751         235.129 
        1.39907          180.63         28.1794         232.308 
        1.41133         177.229         27.6031         229.927 
        1.42358         175.129         27.0435         227.761 
        1.43591         172.928         26.4957         225.659 
        1.44818          169.62          25.966         223.342 
        1.46037          168.12          25.454          220.95 
        1.47263         164.882          24.953         218.956 
        1.48494         163.262         24.4636         216.293 
        1.49724         160.636         23.9878         214.883 
        1.50952         157.664         23.5256         212.495 
        1.52178         156.321         23.0763         210.269 
        1.53409         153.275         22.6369         208.425 
        1.54637         151.083         22.2099         206.704 
        1.55858         149.297         21.7964         204.473 
        1.57081         146.714         21.3928          202.57 
        1.58313         144.775         20.9969         200.506 
        1.59544         142.111         20.6113         198.713 
        1.60767         140.868         20.2379         196.942 
        1.61994         138.417         19.8724          195.04 
        1.63225         136.332         19.5152         193.029 
        1.64452         134.093         19.1679         191.311 
        1.65676         132.316           18.83         189.661 
          1.669         130.899         18.5001          187.85 
        1.68133         128.313          18.176         186.137 
        1.69363         126.107         17.8606         184.543 
        1.70585         124.113         17.5547         182.868 
        1.71809         122.531         17.2553         180.893 
        1.73038         121.193          16.962         179.417 
        1.74268         120.026         16.6754         177.665 
        1.75493         116.993         16.3967         176.209 
        1.76714          116.53         16.1251         174.697 
        1.77942         114.135         15.8583         173.013 
        1.79173         112.323         15.5968         171.456 
        1.80402          111.06         15.3418         169.929 
         1.8163         108.887         15.0926         168.543 
         1.8286         107.525         14.8485         166.912 
         1.8409         106.465         14.6101          165.36 
        1.85315         104.172         14.3777         164.009 
        1.86537         103.336         14.1508         162.642 
        1.87765         102.011         13.9279         161.253 
        1.88995         100.117         13.7094         159.725 
        1.90221         98.9181         13.4963         158.468 
        1.91445         97.5126          13.288         156.937 
        1.92674         95.9829         13.0835         155.576 
        1.93902          94.737         12.8832         154.175 
        1.95124         93.4766         12.6883         152.876 
         1.9635         91.9404         12.4968          151.54 
        1.97583         90.5307         12.3081         150.235 
        1.98812         89.2755          12.124         149.131 
        2.00039         88.2577          11.944         147.712 
        2.01264         87.1402         11.7679         146.499 
        2.02492         86.0947         11.5951         145.164 
        2.03717         84.6619          11.426         144.018 
        2.04942         83.7226         11.2605         142.811 
        2.06171         82.0984         11.0978         141.558 
        2.07397         81.2204         10.9386         140.461 
        2.08629         80.0572         10.7819         139.237 
        2.09857         79.0259         10.6286         138.117 
        2.11081          77.699         10.4789         136.843 
        2.12309         76.6872         10.3318         135.823 
        2.13538         75.5284         10.1872         134.627 
        2.14763         74.5455          10.046         133.544 
        2.15986         73.6015         9.90768         132.357 
        2.17214         72.6467         9.77145         131.319 
        2.18443         71.6802         9.63766         130.406 
        2.19671         70.7234         9.50653         129.275 
        2.20898         69.9068           9.378         128.118 
        2.22126         68.8397         9.25171         127.166 
        2.23354         68.0408         9.12779         126.146 
         2.2458         66.7201         9.00635         125.107 
        2.25807         66.0302         8.88702         124.094 
        2.27035         65.0733         8.76974         123.082 
        2.28263         64.2547         8.65464         122.141 
         2.2949         63.0996         8.54167         121.177 
        2.30718         62.2514         8.43068           120.2 
        2.31946         61.7347          8.3216          119.17 
        2.33169         60.6993         8.21493         118.272 
        2.34393         60.2463         8.10997         117.433 
        2.35622         59.0962          8.0065         116.447 
        2.36847         58.6127         7.90513         115.651 
        2.38076         57.5747         7.80521         114.611 
        2.39305         56.9893         7.70704         113.834 
        2.40534         56.1724         7.61056         112.887 
        2.41762         55.5206         7.51575         111.977 
        2.42989         54.6642         7.42269         111.175 
        2.44216         54.1461         7.33122         110.243 
         2.4544         53.2732          7.2415          109.44 
        2.46667         52.6041         7.15307         108.604 
        2.47897         52.0526         7.06591         107.716 
        2.49124         51.5266         6.98045         106.925 
        2.50349         50.7806         6.89652         106.121 
        2.51578         50.2378         6.81372         105.411 
        2.52805         49.5602         6.73243         104.522 
        2.54029         49.0623         6.65266         103.716 
        2.55257         48.4004         6.57395         103.005 
        2.56487         48.1407         6.49637         102.247 
        2.57716         47.4788         6.42014         101.478 
        2.58942         46.7645         6.34531         100.728 
        2.60167         46.2079         6.27174         99.9941 
        2.61395         45.8555         6.19923         99.2447 
        2.62624         45.0833         6.12776         98.4567 
        2.63849          44.621         6.05765          97.761 
        2.65073           44.09         5.98871         97.0525 
        2.66302          43.665          5.9206         96.3205 
         2.6753         43.1807         5.85359         95.6528 
        2.68756          42.795         5.78775          94.924 
        2.69983         42.2412         5.72288         94.2598 
        2.71213         41.8053         5.65887         93.5855 
        2.72441           41.39         5.59595         92.8981 
        2.73665          40.924         5.53415          92.261 
         2.7489         40.4721          5.4733         91.6115 
        2.76118         40.0991         5.41319         90.9334 
        2.77349         39.6384         5.35384         90.2981 
        2.78576         39.2763         5.29561         89.6291 
        2.79802          38.941         5.23827         89.0667 
        2.81031          38.384         5.18166         88.4135 
        2.82259         38.1077          5.1259         87.7577 
        2.83483         37.6417         5.07117         87.1916 
         2.8471         37.3481         5.01714         86.5569 
         2.8594         36.9573         4.96373         85.9377 
         2.8717         36.7232         4.91111          85.384 
        2.88396          36.398         4.85946         84.7842 
        2.89619         36.1093         4.80864         84.1483 
        2.90847         35.7612         4.75835         83.5391 
        2.92072         35.5275         4.70887         83.0216 
        2.93299         35.3902         4.66007         82.4736 
        2.94526         34.9956         4.61192         81.8932 
        2.95753         34.7689         4.56446         81.3162 
        2.96982         34.4221         4.51759         80.7754 
        2.98209         34.2924         4.47147           80.24 
        2.99436         33.9863         4.42595         79.6614 
        3.00666         33.9062           4.381         79.1279 
        3.01894         33.6127         4.33675         78.6014 
        3.03119         33.4722         4.29318          78.095 
        3.04345         33.3058         4.25021         77.5828 
        3.05573         33.0844         4.20773         77.0547 
          3.068         32.9499         4.16589         76.5444 
        3.08026         32.7619         4.12465         76.0307 
        3.09254         32.6785          4.0839          75.535 
        3.10483         32.6951         4.04369         75.0406 
         3.1171         32.5113         4.00407          74.539 
        3.12933         32.3361          3.9651         74.0442 
        3.14159         32.2825         3.92656         73.5449 
