# k  (h/Mpc)    Pcb(k)  (Mpc/h)^3    Pcb_linear(k) (Mpc/h)^3    Pcb_NL(k) (Mpc/h)^3   ShotnoiseSubtracted = false
      0.0156606         18751.4         18841.6         18701.8 
      0.0273761         16097.4         16290.8         16133.7 
      0.0384619           12185         12273.2         12137.3 
      0.0498308         9425.03         9653.68         9518.13 
      0.0625568            7961         8204.39         8082.54 
      0.0751274         7074.41         6970.49         6798.19 
      0.0867833          5490.3            5612         5559.94 
      0.0984825         4619.13         4441.17         4491.71 
       0.111151         3940.95         3708.29         3768.78 
       0.123864         3532.77         3341.91         3391.22 
       0.135742         3214.23          3005.2         3054.98 
        0.14762         2790.87          2569.6          2701.8 
       0.160083         2358.52          2141.9         2303.11 
       0.172465         2103.79         1869.47         2074.15 
       0.184281         1914.24         1723.43         1930.16 
       0.196406         1793.41         1591.58         1775.04 
       0.209011         1671.43          1416.1         1607.03 
       0.221538         1506.91         1237.54         1494.88 
       0.233611         1435.23         1107.27         1396.58 
       0.245665         1305.23         1021.97         1288.08 
       0.258103         1280.36         951.367         1215.02 
       0.270422         1144.74         874.195          1139.3 
       0.282519         1075.18         793.381         1074.38 
       0.294636         1060.66         722.858         1015.63 
       0.306978         962.621         668.765         971.455 
       0.319417         938.875         625.257         915.337 
        0.33169          883.97          583.61         865.242 
       0.343948         845.681         540.748         837.327 
       0.356249         798.809         500.552         805.016 
       0.368458         771.206         466.884         766.629 
        0.38068         753.325         438.728         736.105 
       0.392856         713.268         413.026         709.059 
       0.405069         679.497         387.895         687.002 
       0.417459         653.137         363.561         659.491 
       0.429752         644.009         341.717         636.192 
       0.441978         621.883         322.545          619.24 
       0.454294         592.284         305.135         593.324 
        0.46658         577.004         288.799         580.359 
       0.478753         563.656         273.389         561.948 
       0.490964         542.097         258.914         544.296 
       0.503334         516.201         245.552         531.221 
       0.515665         515.098         233.369         519.624 
       0.527909         494.862         222.122         507.131 
       0.540159         482.323         211.481         493.496 
        0.55248         472.895         201.384         480.434 
       0.564743          468.62         192.035         472.055 
        0.57686         451.091         183.442         459.061 
       0.589077         439.231         175.331         448.784 
       0.601441         432.584         167.618         439.406 
        0.61382         422.211         160.346         431.624 
       0.626067         416.714         153.561         422.879 
       0.638306         400.444          147.17         414.639 
       0.650632         395.752         141.116          403.69 
       0.662899         392.255         135.443         398.964 
       0.675076         377.718         130.126         392.489 
       0.687267         368.015         125.087         383.137 
       0.699615         364.198         120.253         376.987 
       0.711937         358.538         115.683          370.15 
       0.724148         346.532         111.389         364.779 
       0.736433         338.623         107.291         357.866 
       0.748747         334.132         103.394         351.324 
       0.761037         327.816            99.7          346.52 
       0.773197         323.842         96.2245         341.374 
       0.785376         318.862         92.9107          335.99 
       0.797761         310.352         89.7018         330.676 
       0.810096         307.752         86.6571         326.454 
       0.822371         297.236         83.7685         321.066 
       0.834626          295.78          81.017         316.811 
       0.846916         289.521         78.3825         312.017 
       0.859215         289.007         75.8643         307.561 
       0.871383         281.452         73.4823         303.212 
        0.88363          279.73          71.189         300.092 
       0.895928         273.929         68.9853         295.318 
       0.908253         266.923         66.8712          290.59 
       0.920535         264.542         64.8533         286.894 
       0.932774         257.877          62.926         282.855 
        0.94508         254.824         61.0678          279.91 
       0.957324         253.691         59.2941         275.982 
        0.96953         249.989         57.5965         272.396 
       0.981769         242.851         55.9614         269.621 
       0.994071         241.941         54.3824         266.208 
         1.0064         236.713         52.8618         262.282 
        1.01868         233.827         51.4041         259.024 
        1.03092         227.871         50.0082          256.57 
         1.0432         224.461         48.6592         253.444 
        1.05553         221.647          47.355         250.108 
        1.06777         220.754         46.1083           247.5 
           1.08          215.32         44.9079         244.556 
        1.09227         213.054         43.7466         241.726 
         1.1046         209.809         42.6221         239.307 
         1.1169         205.291         41.5393         236.034 
        1.12915          202.54         40.4997         233.895 
        1.14142         199.225         39.4935         230.913 
        1.15365         196.482         38.5247          228.48 
        1.16585         193.413         37.5911         225.646 
        1.17807         191.106         36.6874         223.721 
        1.19037         189.021         35.8076         221.623 
        1.20276         186.301         34.9508         218.787 
        1.21504         182.386         34.1289         216.415 
        1.22728         179.202         33.3369         213.665 
        1.23954         178.593         32.5682         212.083 
        1.25184         175.082         31.8224         209.698 
        1.26414          171.99         31.0997         207.575 
        1.27632         171.306          30.406         206.031 
         1.2886         169.535         29.7286         203.409 
        1.30093         164.641         29.0696         201.093 
        1.31316         162.176         28.4353         198.841 
        1.32541         160.839         27.8199         197.204 
        1.33772         159.197         27.2194         195.151 
        1.35005         156.647         26.6363         192.961 
        1.36225          154.18         26.0762         191.196 
        1.37447          152.06         25.5312         188.887 
        1.38676         150.205         24.9993          187.32 
        1.39907         147.725         24.4817         185.293 
        1.41133           145.4         23.9811         183.593 
        1.42358         143.567         23.4949         181.867 
        1.43591         141.879          23.019         179.954 
        1.44818         139.899         22.5588         178.304 
        1.46037         137.897          22.114         176.436 
        1.47263         136.192         21.6788         175.037 
        1.48494         134.114         21.2536         172.912 
        1.49724         132.291         20.8402         171.525 
        1.50952         129.878         20.4386         169.841 
        1.52178         129.319         20.0483         168.007 
        1.53409         126.517         19.6666         166.626 
        1.54637         125.058         19.2956         165.226 
        1.55858         122.854         18.9363         163.448 
        1.57081         121.183         18.5857          162.06 
        1.58313          119.64         18.2418         160.416 
        1.59544         117.879         17.9068          159.02 
        1.60767         116.778         17.5823         157.523 
        1.61994         114.675         17.2648         156.267 
        1.63225         113.275         16.9545         154.494 
        1.64452         111.182         16.6527         153.111 
        1.65676          109.56         16.3592         151.842 
          1.669         108.887         16.0725         150.556 
        1.68133         106.521          15.791         149.168 
        1.69363         105.276         15.5169         147.837 
        1.70585         103.367         15.2512         146.525 
        1.71809         102.173         14.9911         145.008 
        1.73038         101.445         14.7363         143.841 
        1.74268          100.22         14.4873         142.486 
        1.75493         98.0094         14.2452         141.249 
        1.76714         97.0023         14.0092         140.107 
        1.77942         95.5943         13.7774         138.689 
        1.79173         94.2223         13.5502         137.595 
        1.80402         93.4574         13.3287         136.397 
         1.8163         91.5017         13.1122         135.132 
         1.8286         90.2757         12.9002         133.941 
         1.8409         89.6367          12.693         132.732 
        1.85315          88.066         12.4911         131.675 
        1.86537         87.0405          12.294         130.576 
        1.87765         86.2319         12.1004         129.437 
        1.88995         84.7584         11.9105         128.329 
        1.90221         83.6052         11.7253         127.242 
        1.91445          82.528         11.5444         126.061 
        1.92674         81.1345         11.3667         125.023 
        1.93902         80.1276         11.1927         123.904 
        1.95124         79.3002         11.0233         122.897 
         1.9635         78.0461          10.857         121.765 
        1.97583         76.8749         10.6931         120.844 
        1.98812         75.8916         10.5331         119.838 
        2.00039          74.959         10.3768         118.786 
        2.01264         74.1525         10.2238         117.799 
        2.02492         73.2107         10.0736         116.786 
        2.03717         71.9766         9.92672         115.789 
        2.04942         71.6321         9.78295         114.937 
        2.06171         69.9888         9.64155         113.934 
        2.07397         69.2146         9.50325          113.03 
        2.08629         68.4157         9.36709         112.045 
        2.09857         67.3669         9.23392         111.152 
        2.11081         66.3256         9.10389         110.127 
        2.12309         65.5422         8.97605         109.374 
        2.13538          64.727         8.85049         108.421 
        2.14763         63.8452         8.72775         107.553 
        2.15986         62.7453         8.60762         106.633 
        2.17214         62.2308         8.48927         105.752 
        2.18443         61.4725         8.37303         105.051 
        2.19671         60.3097         8.25911         104.151 
        2.20898         59.9809         8.14744         103.269 
        2.22126         59.0603         8.03772         102.435 
        2.23354         58.3655         7.93006         101.654 
         2.2458         57.4719         7.82456         100.866 
        2.25807         56.7017         7.72089         100.017 
        2.27035          56.075           7.619         99.2048 
        2.28263         55.2915         7.51901         98.4245 
         2.2949         54.6901         7.42085          97.657 
        2.30718         53.6792         7.32443         96.9213 
        2.31946         53.3514         7.22967         96.1236 
        2.33169         52.4086         7.13699         95.3865 
        2.34393         51.8528          7.0458         94.6761 
        2.35622         51.1606         6.95591         93.9283 
        2.36847         50.6948         6.86784         93.2874 
        2.38076         49.8004         6.78103         92.4469 
        2.39305         49.2475         6.69575         91.8125 
        2.40534         48.7197         6.61193         91.0587 
        2.41762         48.1301         6.52955         90.3144 
        2.42989         47.5443          6.4487         89.7006 
        2.44216         47.0001         6.36923         88.9688 
         2.4544         46.3765         6.29129         88.2954 
        2.46667         45.8446         6.21447         87.6006 
        2.47897         45.3535         6.13874         86.9338 
        2.49124         44.7552         6.06449         86.3153 
        2.50349         44.4394         5.99158         85.6332 
        2.51578          43.713         5.91964         85.0777 
        2.52805         43.2243         5.84902         84.3768 
        2.54029         42.7887         5.77972         83.6982 
        2.55257         42.1659         5.71134         83.1292 
        2.56487         41.8169         5.64393         82.5511 
        2.57716         41.2365         5.57771         81.9439 
        2.58942         40.6725         5.51269         81.3138 
        2.60167         40.3664         5.44878          80.724 
        2.61395         39.7729         5.38578         80.1395 
        2.62624         39.5282          5.3237         79.4993 
        2.63849         39.0047         5.26278          78.943 
        2.65073         38.6501         5.20289         78.3585 
        2.66302         38.1309         5.14372         77.7765 
         2.6753         37.6947          5.0855         77.2317 
        2.68756          37.297          5.0283         76.6499 
        2.69983          36.935         4.97194          76.139 
        2.71213         36.5592         4.91633         75.6026 
        2.72441          36.186         4.86167         75.0436 
        2.73665         35.6667         4.80797         74.5047 
         2.7489         35.5379         4.75511         73.9794 
        2.76118         35.0365         4.70289         73.4646 
        2.77349         34.7495         4.65132         72.9357 
        2.78576         34.4847         4.60073           72.39 
        2.79802         34.0869         4.55092         71.9494 
        2.81031         33.6933         4.50174         71.4211 
        2.82259         33.6277         4.45329         70.8928 
        2.83483         33.1565         4.40575         70.4358 
         2.8471         32.8198         4.35881         69.9398 
         2.8594         32.5758          4.3124         69.4299 
         2.8717         32.3974         4.26669         68.9658 
        2.88396          32.026         4.22181         68.4791 
        2.89619         31.8839         4.17766          67.972 
        2.90847         31.5428         4.13398         67.5044 
        2.92072         31.3469         4.09099          67.069 
        2.93299         31.1588         4.04859         66.6111 
        2.94526         30.8421         4.00675         66.1618 
        2.95753           30.65         3.96552         65.7066 
        2.96982         30.5079          3.9248         65.2583 
        2.98209         30.2212         3.88474         64.8256 
        2.99436         30.0265         3.84519         64.3573 
        3.00666         29.9624         3.80614         63.9374 
        3.01894         29.6945          3.7677         63.4951 
        3.03119         29.5641         3.72984         63.0828 
        3.04345         29.4438         3.69251         62.6853 
        3.05573         29.1828         3.65561         62.2652 
          3.068         29.1854         3.61925          61.846 
        3.08026         29.0162         3.58343           61.43 
        3.09254         28.8932         3.54802         61.0269 
        3.10483         28.8852         3.51309         60.6323 
         3.1171          28.673         3.47867         60.2326 
        3.12933         28.6581         3.44481         59.8252 
        3.14159          28.524         3.41133         59.4194 
