# k  (h/Mpc)    Pcb(k)  (Mpc/h)^3    Pcb_linear(k) (Mpc/h)^3    Pcb_NL(k) (Mpc/h)^3   ShotnoiseSubtracted = false
      0.0156606         1161.63         1162.23          1156.8 
      0.0273761         1011.65         1005.99          1003.8 
      0.0384619         768.534         758.265         758.029 
      0.0498308         604.038         596.581         596.801 
      0.0625568         509.748         507.104         506.752 
      0.0751274         438.023         430.881          429.99 
      0.0867833         349.514         346.927          346.85 
      0.0984825         281.129          274.56         275.201 
       0.111151         235.007          229.26         229.851 
       0.123864         211.014         206.614         206.945 
       0.135742         189.348           185.8         186.079 
        0.14762          160.91         158.871         159.684 
       0.160083         133.825         132.429         133.414 
       0.172465         117.365         115.586         116.745 
       0.184281         108.671         106.557         107.758 
       0.196406         99.3265          98.406           99.29 
       0.209011         89.0212         87.5566          88.591 
       0.221538         78.5623         76.5165         77.9948 
       0.233611         70.4465         68.4626         70.1011 
       0.245665         65.8477         63.1886         64.6329 
       0.258103         59.5721         58.8233         60.2529 
       0.270422         55.7241         54.0519         55.4244 
       0.282519         50.5407         49.0552         50.5476 
       0.294636         47.2901         44.6948         46.2692 
       0.306978         42.2776         41.3502           42.97 
       0.319417         40.1244         38.6601         40.2301 
        0.33169         37.3031         36.0851         37.5983 
       0.343948         35.0967          33.435         34.9475 
       0.356249         32.1151         30.9496         32.6624 
       0.368458         30.3847         28.8679         30.4004 
        0.38068         28.3531         27.1271         28.6511 
       0.392856         26.6296         25.5379         27.0766 
       0.405069          25.146          23.984         25.4472 
       0.417459         23.2602         22.4794              24 
       0.429752         22.1647         21.1288         22.6325 
       0.441978         21.0489         19.9434         21.5253 
       0.454294         19.6548         18.8669         20.3627 
        0.46658         19.1476         17.8569         19.3261 
       0.478753         17.8913          16.904         18.3692 
       0.490964          17.183          16.009         17.5406 
       0.503334         16.3857         15.1829         16.6327 
       0.515665          15.433         14.4295         15.9499 
       0.527909         14.7887         13.7341         15.1369 
       0.540159         14.0409         13.0762         14.4631 
        0.55248         13.1752         12.4519          13.792 
       0.564743         12.9231         11.8738         13.2837 
        0.57686         12.3795         11.3425           12.71 
       0.589077         11.6338          10.841         12.2416 
       0.601441          11.164         10.3641         11.7388 
        0.61382         10.7226         9.91448         11.2408 
       0.626067         10.2583          9.4949         10.8155 
       0.638306         9.88456         9.09979         10.3908 
       0.650632         9.60425         8.72544         10.0298 
       0.662899         9.14679         8.37464         9.64046 
       0.675076         8.69566         8.04588         9.29911 
       0.687267         8.44018         7.73436         8.94289 
       0.699615         8.18939         7.43543         8.63495 
       0.711937         7.77021         7.15285         8.36076 
       0.724148         7.64764         6.88735          8.0794 
       0.736433         7.23819         6.63401         7.78798 
       0.748747         7.02584         6.39304         7.56507 
       0.761037         6.82512         6.16462         7.31383 
       0.773197          6.5248         5.94973           7.104 
       0.785376         6.30363         5.74483         6.87395 
       0.797761         6.10365         5.54642         6.64643 
       0.810096         5.93946         5.35816         6.48011 
       0.822371         5.78577         5.17955         6.26235 
       0.834626         5.58543         5.00942         6.07977 
       0.846916         5.38286         4.84653         5.91968 
       0.859215         5.17239         4.69082         5.75988 
       0.871383           5.028         4.54354         5.59979 
        0.88363         4.89475         4.40174         5.44291 
       0.895928         4.78336         4.26548          5.2875 
       0.908253         4.63507         4.13477         5.14917 
       0.920535         4.47742         4.00999         5.00446 
       0.932774         4.36629         3.89083         4.85805 
        0.94508         4.23499         3.77593         4.74753 
       0.957324         4.12639         3.66626         4.64106 
        0.96953         3.98384         3.56129         4.52102 
       0.981769         3.87309          3.4602          4.3942 
       0.994071         3.79933         3.36256         4.30201 
         1.0064         3.67164         3.26854          4.1953 
        1.01868         3.55907         3.17841         4.09212 
        1.03092         3.50196          3.0921         3.98813 
         1.0432         3.37544         3.00869         3.89957 
        1.05553         3.30264         2.92805         3.81719 
        1.06777         3.19676         2.85096         3.73453 
           1.08         3.14145         2.77674         3.64353 
        1.09227         3.04314         2.70493         3.55914 
         1.1046         2.97302          2.6354         3.48467 
         1.1169         2.88509         2.56845         3.40869 
        1.12915         2.83726         2.50417         3.34034 
        1.14142          2.7549         2.44196         3.26217 
        1.15365         2.69492         2.38205         3.20011 
        1.16585         2.63948         2.32433         3.13375 
        1.17807         2.58929         2.26845          3.0669 
        1.19037         2.49327         2.21405         3.00188 
        1.20276         2.44088         2.16107         2.93634 
        1.21504         2.39225         2.11025         2.88975 
        1.22728         2.33681         2.06128         2.82254 
        1.23954         2.29292         2.01375         2.78117 
        1.25184         2.23863         1.96764         2.71703 
        1.26414          2.1927         1.92295         2.66148 
        1.27632         2.12679         1.88006         2.62073 
         1.2886         2.09877         1.83817         2.56542 
        1.30093          2.0349         1.79742         2.52479 
        1.31316          1.9782         1.75821         2.47437 
        1.32541         1.95445         1.72016         2.43397 
        1.33772         1.92135         1.68303         2.38859 
        1.35005         1.87973         1.64697         2.34752 
        1.36225         1.83789         1.61234         2.30223 
        1.37447          1.7994         1.57864         2.26819 
        1.38676         1.76088         1.54575          2.2226 
        1.39907         1.71783         1.51375         2.19041 
        1.41133          1.6848         1.48279         2.15284 
        1.42358         1.66471         1.45274         2.11013 
        1.43591         1.62948         1.42331         2.08726 
        1.44818          1.5934         1.39485         2.05013 
        1.46037         1.55643         1.36735         2.01217 
        1.47263          1.5256         1.34044         1.98324 
        1.48494         1.50072         1.31415         1.95115 
        1.49724          1.4676         1.28859         1.91929 
        1.50952         1.45047         1.26376         1.88699 
        1.52178         1.41324         1.23962         1.86155 
        1.53409         1.38812         1.21602         1.82866 
        1.54637         1.35608         1.19308         1.79941 
        1.55858         1.33823         1.17087         1.77199 
        1.57081         1.31692         1.14919         1.74535 
        1.58313          1.2875         1.12792         1.72325 
        1.59544         1.26697         1.10721         1.69591 
        1.60767         1.24641         1.08715         1.67101 
        1.61994          1.2198         1.06752         1.64798 
        1.63225         1.20306         1.04833         1.62506 
        1.64452         1.18094         1.02967         1.59956 
        1.65676         1.15606         1.01152         1.57785 
          1.669          1.1389        0.993795         1.55336 
        1.68133         1.11604        0.976384         1.53544 
        1.69363         1.10475        0.959441         1.51249 
        1.70585         1.08326         0.94301         1.49238 
        1.71809          1.0678         0.92693         1.47114 
        1.73038         1.04501        0.911175         1.45153 
        1.74268         1.02514        0.895777         1.43118 
        1.75493         1.01655        0.880806         1.41448 
        1.76714        0.995565        0.866216         1.39288 
        1.77942        0.975145        0.851882         1.37525 
        1.79173        0.963977        0.837836         1.35706 
        1.80402        0.948083        0.824137         1.33953 
         1.8163        0.932768        0.810751         1.32102 
         1.8286        0.911962        0.797641         1.30848 
         1.8409        0.907803        0.784831         1.29062 
        1.85315        0.893732        0.772346         1.27238 
        1.86537        0.872728        0.760158         1.25834 
        1.87765        0.861998        0.748188          1.2419 
        1.88995        0.850074        0.736447         1.22724 
        1.90221        0.835094        0.724999          1.2115 
        1.91445        0.822663        0.713813         1.19811 
        1.92674        0.809845        0.702825         1.18295 
        1.93902        0.794772        0.692068         1.16782 
        1.95124        0.784742        0.681593         1.15411 
         1.9635        0.773388        0.671309         1.14007 
        1.97583        0.760255        0.661172          1.1258 
        1.98812        0.748614        0.651283         1.11512 
        2.00039        0.737562        0.641616         1.10092 
        2.01264         0.72763        0.632154         1.08885 
        2.02492        0.718693         0.62287         1.07768 
        2.03717        0.710895        0.613788         1.06509 
        2.04942        0.697178        0.604898         1.05165 
        2.06171        0.688169        0.596155         1.04003 
        2.07397        0.677971        0.587604         1.02965 
        2.08629        0.670143        0.579185          1.0183 
        2.09857        0.658996        0.570951         1.00728 
        2.11081        0.648653        0.562911        0.995506 
        2.12309        0.640457        0.555006        0.985727 
        2.13538        0.633529        0.547242         0.97401 
        2.14763         0.62552        0.539653        0.964256 
        2.15986        0.617148        0.532225        0.955249 
        2.17214        0.605237        0.524908         0.94314 
        2.18443        0.599738         0.51772        0.934251 
        2.19671        0.592421        0.510676        0.924792 
        2.20898        0.583613        0.503772        0.914891 
        2.22126        0.574371        0.496988        0.905686 
        2.23354        0.566725        0.490331        0.896847 
         2.2458        0.561713        0.483807        0.886688 
        2.25807        0.552916        0.477397        0.878184 
        2.27035        0.547276        0.471097        0.869268 
        2.28263        0.538384        0.464914        0.861256 
         2.2949         0.53254        0.458845         0.85231 
        2.30718        0.526568        0.452883        0.844392 
        2.31946        0.519518        0.447024        0.836408 
        2.33169        0.511854        0.441294        0.828006 
        2.34393        0.507569        0.435655        0.819895 
        2.35622        0.500497        0.430097        0.811653 
        2.36847        0.495364        0.424651         0.80419 
        2.38076        0.488162        0.419284        0.796552 
        2.39305        0.483086        0.414011         0.78939 
        2.40534        0.476326        0.408828        0.781925 
        2.41762        0.471302        0.403734        0.773856 
        2.42989        0.464457        0.398735        0.767045 
        2.44216         0.46097        0.393822        0.760601 
         2.4544        0.456996        0.389002        0.753463 
        2.46667        0.450934        0.384252        0.746185 
        2.47897        0.445675         0.37957        0.739874 
        2.49124        0.439551        0.374979         0.73279 
        2.50349         0.43521        0.370471        0.725914 
        2.51578        0.430262        0.366023        0.719479 
        2.52805         0.42686        0.361656        0.713405 
        2.54029        0.421477        0.357371        0.706959 
        2.55257        0.416895        0.353143        0.701369 
        2.56487        0.413132        0.348975        0.695021 
        2.57716        0.408806         0.34488        0.688686 
        2.58942        0.405468         0.34086        0.683244 
        2.60167        0.401199        0.336908        0.676729 
        2.61395         0.39602        0.333013        0.671165 
        2.62624        0.392335        0.329174        0.666086 
        2.63849          0.3886        0.325408        0.660186 
        2.65073        0.385073        0.321705        0.654469 
        2.66302        0.381559        0.318046        0.648874 
         2.6753        0.377988        0.314446        0.643596 
        2.68756        0.374962        0.310909        0.638469 
        2.69983        0.370524        0.307425        0.633077 
        2.71213        0.365871        0.303986        0.627971 
        2.72441         0.36437        0.300606        0.622973 
        2.73665        0.361211        0.297286        0.618297 
         2.7489         0.35916        0.294018        0.613339 
        2.76118        0.355161        0.290788        0.608068 
        2.77349        0.352949          0.2876         0.60359 
        2.78576        0.350193        0.284472        0.598351 
        2.79802        0.347343        0.281392         0.59336 
        2.81031         0.34441        0.278351        0.589428 
        2.82259        0.342515        0.275356        0.584227 
        2.83483        0.339551        0.272416        0.579737 
         2.8471        0.337413        0.269513        0.575451 
         2.8594        0.335713        0.266644        0.571321 
         2.8717        0.332599        0.263818        0.566967 
        2.88396        0.330485        0.261043        0.562455 
        2.89619        0.328897        0.258313        0.558467 
        2.90847        0.326749        0.255612        0.554452 
        2.92072        0.325214        0.252953        0.549914 
        2.93299        0.322746        0.250332         0.54564 
        2.94526        0.321172        0.247745        0.541756 
        2.95753        0.320394        0.245196        0.537871 
        2.96982         0.31822        0.242678         0.53377 
        2.98209        0.317561        0.240201        0.529745 
        2.99436         0.31472        0.237756        0.526023 
        3.00666        0.314579        0.235341        0.522488 
        3.01894        0.313988        0.232964        0.518622 
        3.03119        0.312762        0.230623        0.514674 
        3.04345        0.311324        0.228315        0.511148 
        3.05573        0.311316        0.226033        0.507855 
          3.068        0.308918        0.223785        0.504179 
        3.08026        0.309269         0.22157        0.500173 
        3.09254        0.308327        0.219381        0.496638 
        3.10483        0.307693        0.217221        0.493476 
         3.1171        0.308221        0.215093        0.490201 
        3.12933        0.307637        0.212999        0.486806 
        3.14159        0.306696        0.210929        0.483417 
