# k  (h/Mpc)    P(k)  (Mpc/h)^3    P_linear(k)  (Mpc/h)^3     P_NL(k)  ShotnoiseSubtracted = false
      0.0156606         19553.8           19722         19572.7 
      0.0273761         16751.7         17023.4         16852.4 
      0.0384619         12665.3         12813.9         12664.7 
      0.0498308         9787.09         10073.3         9924.09 
      0.0625568         8264.63         8557.65         8424.05 
      0.0751274            7348         7268.78         7080.36 
      0.0867833         5698.49          5851.2         5793.76 
      0.0984825         4801.08         4629.91         4683.94 
       0.111151         4099.58         3865.52         3931.05 
       0.123864         3674.33         3483.35         3536.62 
       0.135742         3345.26         3132.24         3185.88 
        0.14762          2907.3          2678.1         2820.62 
       0.160083         2461.28         2232.27         2406.75 
       0.172465         2195.47         1948.29         2170.07 
       0.184281         1995.32         1796.05         2019.48 
       0.196406         1873.65         1658.62         1858.14 
       0.209011          1748.7         1475.72         1682.97 
       0.221538         1576.17         1289.62         1567.73 
       0.233611         1504.66         1153.86         1466.36 
       0.245665         1366.78         1064.96         1353.04 
       0.258103          1345.2         991.376         1276.77 
       0.270422         1201.77         910.952         1198.05 
       0.282519         1130.98         826.733         1131.41 
       0.294636         1114.36         753.241         1070.39 
       0.306978         1013.66         696.871         1024.57 
       0.319417         990.453         651.531         965.623 
        0.33169         932.235         608.131         913.395 
       0.343948         892.833         563.466         884.491 
       0.356249         844.459          521.58         850.885 
       0.368458         814.184         486.495         811.321 
        0.38068         797.364         457.158         779.555 
       0.392856         755.747         430.375          751.44 
       0.405069         719.179         404.185         727.842 
       0.417459          691.64         378.829         699.926 
       0.429752         684.104         356.068         675.328 
       0.441978         660.455         336.089         657.677 
       0.454294         629.998         317.948         630.431 
        0.46658         613.119         300.926         617.003 
       0.478753         599.973         284.867         597.755 
       0.490964         576.954         269.783         579.196 
       0.503334         550.484         255.862         565.669 
       0.515665         549.226         243.167         553.231 
       0.527909         527.358         231.447         540.532 
       0.540159         514.114         220.358         526.275 
        0.55248         504.152         209.837         512.456 
       0.564743          500.08         200.096          503.65 
        0.57686         481.912         191.143         490.006 
       0.589077         470.446         182.691         479.065 
       0.601441          462.51         174.655          469.31 
        0.61382          450.86         167.077         461.105 
       0.626067         445.483         160.006         452.011 
       0.638306         428.563         153.348         443.099 
       0.650632         424.087         147.039         431.775 
       0.662899         420.439         141.128         426.721 
       0.675076         405.403         135.587         420.173 
       0.687267         394.792         130.337         410.146 
       0.699615         391.517           125.3         403.637 
       0.711937         385.149         120.538          396.25 
       0.724148         372.297         116.064         390.625 
       0.736433         363.731         111.794         383.392 
       0.748747         359.119         107.734         376.468 
       0.761037         352.474         103.884         371.545 
       0.773197         348.122         100.263         365.846 
       0.785376         342.961         96.8101         360.283 
       0.797761         333.487         93.4664         354.604 
       0.810096         330.873         90.2939         350.155 
       0.822371          320.26         87.2841         344.395 
       0.834626         318.346         84.4171         340.017 
       0.846916          311.99          81.672         334.801 
       0.859215         310.859         79.0481         330.006 
       0.871383         303.053         76.5661         325.465 
        0.88363         301.087         74.1765         322.129 
       0.895928         295.338         71.8803         317.026 
       0.908253         287.939         69.6775          311.94 
       0.920535          284.73         67.5749          308.13 
       0.932774         278.455         65.5668         303.702 
        0.94508         274.909         63.6306         300.553 
       0.957324         273.486         61.7823         296.425 
        0.96953         269.602         60.0135         292.694 
       0.981769         262.328         58.3099         289.611 
       0.994071         261.433         56.6645         285.991 
         1.0064         255.966         55.0802         281.802 
        1.01868         253.077         53.5613         278.235 
        1.03092         246.113         52.1067         275.686 
         1.0432         242.999         50.7012          272.34 
        1.05553          240.09         49.3422         268.691 
        1.06777         238.668         48.0432         265.831 
           1.08         232.966         46.7924         262.758 
        1.09227         231.014         45.5823         259.646 
         1.1046         227.327         44.4106         257.095 
         1.1169         222.253         43.2824         253.603 
        1.12915         219.409         42.1991         251.261 
        1.14142         215.648         41.1508         248.117 
        1.15365         212.899         40.1413           245.5 
        1.16585         209.396         39.1685         242.548 
        1.17807         207.117         38.2269         240.333 
        1.19037         204.639         37.3102         238.159 
        1.20276         201.794         36.4174         235.076 
        1.21504         197.514          35.561         232.504 
        1.22728         194.335         34.7357         229.614 
        1.23954         193.568         33.9348         227.804 
        1.25184         189.631         33.1577          225.29 
        1.26414         186.143         32.4047         223.059 
        1.27632         185.347         31.6819          221.26 
         1.2886          183.82         30.9761         218.544 
        1.30093         178.701         30.2894         215.978 
        1.31316         175.595         29.6285          213.62 
        1.32541         174.425         28.9873         211.741 
        1.33772         172.408         28.3616         209.605 
        1.35005         169.826          27.754         207.254 
        1.36225          166.96         27.1704         205.338 
        1.37447         164.693         26.6025         202.828 
        1.38676         162.845         26.0483         201.246 
        1.39907         160.288          25.509         198.975 
        1.41133         157.659         24.9874         197.067 
        1.42358         155.804         24.4808         195.211 
        1.43591         154.004         23.9849         193.249 
        1.44818         151.506         23.5054         191.399 
        1.46037         149.726         23.0419         189.379 
        1.47263         147.543         22.5884         187.818 
        1.48494          145.54         22.1454         185.514 
        1.49724         143.529         21.7147         184.142 
        1.50952         140.921         21.2963         182.259 
        1.52178          140.23         20.8895          180.27 
        1.53409         137.256         20.4918         178.771 
        1.54637          135.67         20.1052         177.286 
        1.55858         133.511         19.7309         175.355 
        1.57081         131.576         19.3655         173.834 
        1.58313         129.853         19.0072         172.061 
        1.59544         127.728         18.6581         170.545 
        1.60767         126.728         18.3201         168.976 
        1.61994         124.426         17.9893         167.526 
        1.63225         122.888         17.6659          165.69 
        1.64452         120.701         17.3515         164.206 
        1.65676         118.999         17.0456         162.813 
          1.669         118.139         16.7469         161.386 
        1.68133         115.668         16.4535          159.91 
        1.69363          114.05          16.168         158.481 
        1.70585         112.102         15.8911         157.081 
        1.71809         110.799         15.6202         155.408 
        1.73038         110.009         15.3547         154.167 
        1.74268          108.84         15.0952         152.691 
        1.75493         106.105         14.8429         151.392 
        1.76714         105.401          14.597         150.146 
        1.77942         103.647         14.3555         148.629 
        1.79173         102.127         14.1188         147.412 
        1.80402         101.287         13.8879         146.111 
         1.8163         99.1433         13.6624         144.818 
         1.8286         97.9013         13.4414         143.495 
         1.8409         97.2381         13.2256         142.172 
        1.85315         95.3657         13.0152         141.032 
        1.86537         94.4308         12.8098         139.862 
        1.87765         93.4173         12.6081         138.661 
        1.88995         91.8136         12.4102         137.417 
        1.90221         90.5928         12.2173         136.282 
        1.91445         89.4986         12.0288         134.991 
        1.92674         88.0372         11.8437         133.858 
        1.93902         86.8793         11.6624         132.659 
        1.95124           85.94         11.4859         131.554 
         1.9635         84.5302         11.3126         130.374 
        1.97583         83.2843         11.1417         129.335 
        1.98812          82.255         10.9751         128.302 
        2.00039         81.2924         10.8122         127.139 
        2.01264         80.3181         10.6527          126.09 
        2.02492         79.4467         10.4963         124.979 
        2.03717         78.0781         10.3432         123.944 
        2.04942          77.604         10.1934         122.986 
        2.06171         75.8416         10.0461         121.917 
        2.07397           75.06           9.902         120.945 
        2.08629         74.1855         9.76013         119.894 
        2.09857         73.1031         9.62137         118.932 
        2.11081         71.9006         9.48588         117.832 
        2.12309         70.9491         9.35268         117.006 
        2.13538         70.1044         9.22185         115.978 
        2.14763         69.2099         9.09396         115.054 
        2.15986         68.1288         8.96879          114.05 
        2.17214          67.471         8.84547         113.121 
        2.18443         66.6234         8.72436         112.363 
        2.19671         65.4464         8.60565           111.4 
        2.20898         64.9459          8.4893         110.432 
        2.22126         63.9923         8.37498         109.565 
        2.23354         63.2829          8.2628         108.711 
         2.2458         62.1916         8.15287         107.853 
        2.25807         61.4399         8.04485         106.956 
        2.27035         60.6784         7.93869         106.082 
        2.28263         59.8711          7.8345         105.254 
         2.2949         59.0966         7.73223         104.431 
        2.30718         58.1247         7.63175         103.629 
        2.31946         57.7851         7.53302         102.751 
        2.33169          56.738         7.43645         101.969 
        2.34393         56.2361         7.34143          101.22 
        2.35622         55.2921         7.24777         100.411 
        2.36847         54.8849         7.15601          99.726 
        2.38076         53.9432         7.06556         98.8173 
        2.39305         53.3556         6.97669         98.1488 
        2.40534         52.7177         6.88935         97.3403 
        2.41762         52.1122         6.80352         96.5459 
        2.42989         51.3559         6.71928         95.8727 
        2.44216         50.8069         6.63648         95.0813 
         2.4544         50.0803         6.55526          94.374 
        2.46667         49.5285         6.47522         93.6377 
        2.47897         48.9903         6.39632          92.903 
        2.49124         48.4022         6.31895         92.2403 
        2.50349         48.0683         6.24298         91.5204 
        2.51578         47.2376         6.16802         90.9212 
        2.52805         46.7245         6.09444         90.1602 
        2.54029         46.2625         6.02223         89.4414 
        2.55257         45.6343         5.95098         88.8312 
        2.56487         45.3033         5.88074         88.2085 
        2.57716         44.6059         5.81174         87.5476 
        2.58942         44.0045           5.744         86.8801 
        2.60167          43.619          5.6774         86.2505 
        2.61395          43.029         5.61176         85.6216 
        2.62624         42.6404         5.54707         84.9331 
        2.63849          42.104         5.48361         84.3326 
        2.65073          41.745          5.4212         83.7135 
        2.66302         41.2015         5.35954         83.0835 
         2.6753         40.7811         5.29888         82.5076 
        2.68756         40.3473         5.23928         81.8862 
        2.69983         39.8824         5.18056         81.3308 
        2.71213         39.5049         5.12261         80.7502 
        2.72441         39.1134         5.06566         80.1552 
        2.73665         38.5652         5.00971         79.5908 
         2.7489         38.2943         4.95463         79.0273 
        2.76118         37.8632         4.90021          78.464 
        2.77349         37.4795         4.84649         77.9048 
        2.78576         37.1732         4.79378          77.317 
        2.79802         36.8025         4.74187         76.8494 
        2.81031         36.3414         4.69062         76.2835 
        2.82259         36.2409         4.64015         75.7178 
        2.83483         35.7431         4.59061         75.2329 
         2.8471         35.4244          4.5417         74.6919 
         2.8594         35.1222         4.49335         74.1485 
         2.8717         34.9655         4.44572         73.6601 
        2.88396         34.5381         4.39896         73.1398 
        2.89619         34.3895         4.35295          72.594 
        2.90847         33.9752         4.30743         72.0814 
        2.92072         33.7878         4.26264         71.6266 
        2.93299         33.6164         4.21846         71.1459 
        2.94526         33.2516         4.17487         70.6564 
        2.95753         33.0422         4.13191         70.1616 
        2.96982         32.8121         4.08948         69.6881 
        2.98209         32.5528         4.04773         69.2295 
        2.99436          32.309         4.00653         68.7252 
        3.00666         32.2855         3.96584         68.2708 
        3.01894         31.9419         3.92579         67.8032 
        3.03119         31.8949         3.88634         67.3658 
        3.04345         31.7639         3.84744         66.9362 
        3.05573         31.4022         3.80899         66.4833 
          3.068         31.4103         3.77111         66.0382 
        3.08026         31.2267         3.73378         65.5936 
        3.09254         31.1525         3.69689          65.167 
        3.10483         31.1097         3.66049         64.7438 
         3.1171         30.9029         3.62463          64.313 
        3.12933         30.8333         3.58935          63.881 
        3.14159         30.7028         3.55446         63.4448 
