# k  (h/Mpc)    Pcb(k)  (Mpc/h)^3    Pcb_linear(k) (Mpc/h)^3    Pcb_NL(k) (Mpc/h)^3   ShotnoiseSubtracted = false
      0.0156606         2133.83         2135.06         2124.73 
      0.0273761         1855.41         1847.68         1842.94 
      0.0384619         1409.85         1392.58         1391.31 
      0.0498308          1106.1          1095.6         1095.19 
      0.0625568         933.284          931.26         929.992 
      0.0751274         805.779         791.272         788.746 
      0.0867833         640.418         637.094         636.808 
      0.0984825         517.715         504.196         505.906 
       0.111151          433.32         421.006         422.646 
       0.123864         389.199         379.419         380.586 
       0.135742          349.51         341.197         342.323 
        0.14762         296.911         291.744         294.495 
       0.160083         246.642         243.187         246.357 
       0.172465         216.985         212.257          216.04 
       0.184281         201.117         195.677          199.68 
       0.196406         183.513         180.708         183.755 
       0.209011         165.056         160.785         164.272 
       0.221538         146.274         140.511         145.406 
       0.233611         131.567         125.721         131.152 
       0.245665         123.417         116.036         120.857 
       0.258103         111.247          108.02         112.816 
       0.270422          104.39         99.2581         103.897 
       0.282519         94.6892         90.0824         95.0611 
       0.294636         89.6748         82.0752         87.3241 
       0.306978         79.5605         75.9334         81.3495 
       0.319417          75.794         70.9935         76.2377 
        0.33169         70.4346         66.2648         71.3301 
       0.343948          66.671         61.3983         66.5179 
       0.356249         61.0773         56.8343         62.4999 
       0.368458         58.1187         53.0116         58.1859 
        0.38068         54.3666         49.8147         54.9514 
       0.392856         50.9014         46.8964         52.0806 
       0.405069         48.1147         44.0429         49.0403 
       0.417459         44.8306           41.28         46.3638 
       0.429752         42.8618         38.7998         43.8693 
       0.441978         40.7656         36.6229         41.9043 
       0.454294         37.9603         34.6462         39.6499 
        0.46658         37.4282         32.7914          37.751 
       0.478753         34.8374         31.0416         36.0093 
       0.490964          33.584         29.3981         34.4887 
       0.503334         32.1352          27.881         32.7889 
       0.515665         30.4105         26.4976         31.6055 
       0.527909         29.0983         25.2206         29.9525 
       0.540159         27.7906         24.0124         28.7322 
        0.55248          25.975          22.866         27.4749 
       0.564743         25.6031         21.8044         26.5371 
        0.57686         24.6779         20.8288         25.4735 
       0.589077         23.2009         19.9078         24.6096 
       0.601441         22.3266         19.0321           23.67 
        0.61382         21.5079         18.2064         22.7028 
       0.626067         20.6342         17.4359          21.945 
       0.638306          19.911         16.7104         21.1151 
       0.650632         19.3735         16.0229         20.4316 
       0.662899          18.464         15.3787         19.6862 
       0.675076         17.5973          14.775         19.0269 
       0.687267         17.2626         14.2029         18.3652 
       0.699615         16.6933          13.654         17.8061 
       0.711937         15.8207         13.1351          17.236 
       0.724148         15.7025         12.6475         16.7415 
       0.736433         14.7989         12.1823          16.181 
       0.748747         14.4651         11.7398           15.73 
       0.761037         14.1131         11.3204         15.2792 
       0.773197         13.5438         10.9258         14.8656 
       0.785376          13.056         10.5495         14.4368 
       0.797761         12.7162         10.1851          14.013 
       0.810096         12.3908         9.83943          13.677 
       0.822371         12.0568         9.51145         13.2524 
       0.834626         11.6603         9.19903         12.9317 
       0.846916         11.2723         8.89989         12.5895 
       0.859215         10.8531         8.61396         12.2792 
       0.871383         10.6152         8.34351         11.9929 
        0.88363         10.3388         8.08311         11.6815 
       0.895928         10.1289          7.8329         11.3735 
       0.908253         9.83904         7.59285          11.115 
       0.920535         9.51871         7.36373         10.8353 
       0.932774         9.35039          7.1449         10.5404 
        0.94508         9.03114         6.93391         10.3375 
       0.957324         8.83853         6.73251          10.126 
        0.96953         8.52582         6.53977         9.88501 
       0.981769         8.41247         6.35411         9.65143 
       0.994071         8.21128         6.17482         9.44806 
         1.0064          7.9275         6.00217         9.24992 
        1.01868         7.75607         5.83666         9.05242 
        1.03092         7.60861         5.67815         8.84912 
         1.0432         7.32706         5.52499         8.66683 
        1.05553         7.20553         5.37691         8.51261 
        1.06777         6.98771         5.23535         8.33361 
           1.08         6.86794         5.09905         8.16593 
        1.09227          6.7062         4.96718         8.00117 
         1.1046         6.55638         4.83951         7.83524 
         1.1169         6.34402         4.71656         7.68875 
        1.12915         6.32169         4.59851         7.57136 
        1.14142         6.08234         4.48428         7.40439 
        1.15365         5.98157         4.37427         7.27052 
        1.16585         5.89767         4.26827         7.15515 
        1.17807         5.74062         4.16566         7.00411 
        1.19037         5.60034         4.06576         6.88275 
        1.20276         5.47328         3.96847         6.75249 
        1.21504         5.37102         3.87515         6.65086 
        1.22728         5.23861         3.78522         6.52053 
        1.23954         5.15202         3.69794         6.43166 
        1.25184         5.03765         3.61326         6.31086 
        1.26414         4.97084          3.5312         6.19413 
        1.27632         4.81662         3.45243         6.10687 
         1.2886         4.75832         3.37552         6.00389 
        1.30093         4.65215         3.30069         5.92271 
        1.31316         4.52967         3.22868         5.81688 
        1.32541         4.46674          3.1588         5.73803 
        1.33772         4.38461         3.09062         5.63564 
        1.35005         4.31064          3.0244         5.55546 
        1.36225          4.2244         2.96081         5.46034 
        1.37447         4.14188         2.89893         5.39165 
        1.38676         4.05569         2.83854         5.30656 
        1.39907         3.97412         2.77977         5.23442 
        1.41133         3.91298         2.72292         5.15487 
        1.42358         3.84504         2.66772         5.07512 
        1.43591         3.78937         2.61368         5.01675 
        1.44818         3.69112         2.56143         4.94208 
        1.46037         3.62068         2.51093         4.86941 
        1.47263         3.56674         2.46151         4.80625 
        1.48494         3.51634         2.41323         4.73855 
        1.49724         3.44653         2.36629         4.67229 
        1.50952         3.42822          2.3207         4.61176 
        1.52178         3.33863         2.27637         4.55393 
        1.53409         3.27014         2.23303         4.48313 
        1.54637         3.22548         2.19091         4.42799 
        1.55858         3.17426         2.15012         4.36179 
        1.57081         3.11563          2.1103         4.32076 
        1.58313         3.06066         2.07125          4.2608 
        1.59544         3.01386         2.03322         4.21247 
        1.60767         2.97541         1.99638         4.15512 
        1.61994         2.91417         1.96033          4.1093 
        1.63225         2.86734         1.92509         4.05728 
        1.64452         2.82135         1.89082         4.00463 
        1.65676         2.77021          1.8575         3.95912 
          1.669         2.73967         1.82495         3.91208 
        1.68133         2.66941         1.79298         3.86866 
        1.69363          2.6633         1.76187         3.82431 
        1.70585         2.61812         1.73169         3.77644 
        1.71809         2.58493         1.70216         3.73601 
        1.73038         2.53795         1.67323         3.69032 
        1.74268         2.49175         1.64496         3.65073 
        1.75493         2.46273         1.61746         3.61042 
        1.76714         2.43351         1.59067           3.565 
        1.77942         2.39333         1.56435         3.52973 
        1.79173         2.36068         1.53856         3.48696 
        1.80402          2.3248          1.5134          3.4514 
         1.8163         2.30379         1.48882         3.41655 
         1.8286         2.25843         1.46474         3.38473 
         1.8409         2.22568         1.44122         3.34818 
        1.85315         2.20022         1.41829         3.30419 
        1.86537         2.17129         1.39591         3.27757 
        1.87765         2.14056         1.37393         3.24267 
        1.88995         2.10596         1.35237          3.2103 
        1.90221          2.0789         1.33135         3.17593 
        1.91445         2.05569         1.31081         3.15052 
        1.92674         2.03415         1.29063         3.11178 
        1.93902          1.9958         1.27088         3.07745 
        1.95124         1.96784         1.25164         3.05305 
         1.9635         1.95185         1.23275         3.02117 
        1.97583         1.91489         1.21414          2.9926 
        1.98812         1.89319         1.19598         2.96475 
        2.00039         1.86894         1.17823         2.93399 
        2.01264         1.83931         1.16085         2.91292 
        2.02492         1.82265          1.1438         2.88455 
        2.03717          1.8038         1.12713         2.85475 
        2.04942         1.77602          1.1108         2.82702 
        2.06171         1.75108         1.09475         2.79994 
        2.07397         1.73207         1.07904         2.77635 
        2.08629         1.71505         1.06358         2.75453 
        2.09857          1.6923         1.04846         2.72765 
        2.11081         1.67062          1.0337         2.70226 
        2.12309         1.65511         1.01918         2.68131 
        2.13538         1.62919         1.00493         2.65646 
        2.14763         1.62072        0.990989         2.63253 
        2.15986         1.59904        0.977349         2.61263 
        2.17214            1.57        0.963911         2.58441 
        2.18443         1.56084        0.950713         2.56516 
        2.19671         1.54274        0.937777         2.54409 
        2.20898         1.52329        0.925098         2.52347 
        2.22126         1.50742         0.91264         2.50266 
        2.23354         1.48959        0.900416         2.48113 
         2.2458         1.47905        0.888437         2.45811 
        2.25807         1.45576        0.876665         2.43892 
        2.27035         1.44108        0.865097         2.42106 
        2.28263         1.42016        0.853743          2.4016 
         2.2949         1.41233        0.842598         2.38235 
        2.30718         1.39635         0.83165         2.36423 
        2.31946         1.37628         0.82089         2.34494 
        2.33169         1.36577        0.810367         2.32667 
        2.34393          1.3584        0.800013         2.30921 
        2.35622          1.3371        0.789806         2.29117 
        2.36847         1.32656        0.779806         2.27224 
        2.38076         1.30677         0.76995         2.25455 
        2.39305         1.29646        0.760266         2.23562 
        2.40534         1.28515        0.750749         2.22139 
        2.41762         1.26887        0.741395          2.2045 
        2.42989         1.25802        0.732216         2.18915 
        2.44216         1.24869        0.723192         2.17199 
         2.4544         1.23784        0.714342         2.15755 
        2.46667         1.22137        0.705619         2.14132 
        2.47897         1.21205        0.697021         2.12381 
        2.49124         1.19758        0.688591         2.10972 
        2.50349         1.18793        0.680312         2.09331 
        2.51578         1.17742        0.672144         2.07655 
        2.52805         1.16264        0.664125         2.06332 
        2.54029         1.15651        0.656256         2.04845 
        2.55257         1.14234        0.648492         2.03385 
        2.56487         1.13216        0.640838         2.02073 
        2.57716         1.12708        0.633319         2.00554 
        2.58942         1.11853        0.625937         1.99218 
        2.60167         1.10816         0.61868         1.97796 
        2.61395         1.09496        0.611527         1.96582 
        2.62624         1.08804        0.604477         1.95182 
        2.63849         1.07922        0.597561         1.93806 
        2.65073         1.06999         0.59076         1.92494 
        2.66302         1.06141        0.584041         1.91206 
         2.6753         1.05883        0.577431         1.89981 
        2.68756         1.04663        0.570937         1.88799 
        2.69983         1.03868        0.564538         1.87498 
        2.71213         1.02886        0.558223         1.86309 
        2.72441         1.02229        0.552017         1.85072 
        2.73665         1.01601        0.545919         1.84028 
         2.7489         1.00841        0.539918         1.82939 
        2.76118         1.00023        0.533988          1.8156 
        2.77349        0.996536        0.528133         1.80441 
        2.78576        0.991086        0.522389         1.79321 
        2.79802        0.984474        0.516733         1.78103 
        2.81031        0.976552        0.511148         1.77054 
        2.82259         0.96967        0.505648         1.75873 
        2.83483          0.9665        0.500249         1.74845 
         2.8471        0.960987        0.494919         1.73735 
         2.8594        0.955347         0.48965         1.72694 
         2.8717        0.951664         0.48446         1.71739 
        2.88396        0.944031        0.479364         1.70672 
        2.89619        0.940184        0.474351         1.69595 
        2.90847        0.935213        0.469391         1.68579 
        2.92072        0.933234         0.46451         1.67614 
        2.93299        0.928087        0.459696         1.66556 
        2.94526        0.926987        0.454946         1.65604 
        2.95753        0.922382        0.450264         1.64666 
        2.96982        0.918942         0.44564         1.63658 
        2.98209        0.916405        0.441091         1.62726 
        2.99436        0.914275        0.436601         1.61785 
        3.00666        0.913224        0.432166         1.60833 
        3.01894        0.910085        0.427802         1.59952 
        3.03119        0.907721        0.423504         1.59016 
        3.04345        0.904998        0.419265         1.58123 
        3.05573        0.904027        0.415075         1.57307 
          3.068        0.902088        0.410947         1.56416 
        3.08026        0.901936        0.406879         1.55498 
        3.09254        0.902516        0.402859         1.54618 
        3.10483        0.902589        0.398892         1.53803 
         3.1171        0.903264        0.394984         1.52971 
        3.12933         0.90278         0.39114         1.52091 
        3.14159        0.902176        0.387338         1.51265 
