# k  (h/Mpc)    P(k)  (Mpc/h)^3    P_linear(k)  (Mpc/h)^3     P_NL(k)  ShotnoiseSubtracted = false
      0.0156606         19707.8           19722         19572.7 
      0.0273761         16881.2         17023.4         16852.4 
      0.0384619         12761.5         12813.9         12664.7 
      0.0498308         9859.05         10073.3         9924.09 
      0.0625568         8324.33         8557.65         8424.05 
      0.0751274         7401.06         7268.78         7080.36 
      0.0867833         5738.51          5851.2         5793.76 
      0.0984825         4834.76         4629.91         4683.94 
       0.111151          4128.2         3865.52         3931.05 
       0.123864         3699.14         3483.35         3536.62 
       0.135742         3367.93         3132.24         3185.88 
        0.14762         2926.94          2678.1         2820.62 
       0.160083         2477.76         2232.27         2406.75 
       0.172465         2209.97         1948.29         2170.07 
       0.184281          2007.7         1796.05         2019.48 
       0.196406         1885.48         1658.62         1858.14 
       0.209011         1759.52         1475.72         1682.97 
       0.221538         1585.49         1289.62         1567.73 
       0.233611         1513.75         1153.86         1466.36 
       0.245665         1374.62         1064.96         1353.04 
       0.258103          1353.2         991.376         1276.77 
       0.270422         1208.28         910.952         1198.05 
       0.282519         1137.26         826.733         1131.41 
       0.294636         1120.04         753.241         1070.39 
       0.306978         1018.93         696.871         1024.57 
       0.319417         995.486         651.531         965.623 
        0.33169         936.654         608.131         913.395 
       0.343948         897.038         563.466         884.491 
       0.356249         848.253          521.58         850.885 
       0.368458         817.462         486.495         811.321 
        0.38068          800.62         457.158         779.555 
       0.392856         758.778         430.375          751.44 
       0.405069         721.664         404.185         727.842 
       0.417459         693.806         378.829         699.926 
       0.429752         686.294         356.068         675.328 
       0.441978         662.419         336.089         657.677 
       0.454294         631.712         317.948         630.431 
        0.46658          614.59         300.926         617.003 
       0.478753         601.295         284.867         597.755 
       0.490964         577.946         269.783         579.196 
       0.503334         551.424         255.862         565.669 
       0.515665          550.01         243.167         553.231 
       0.527909         527.855         231.447         540.532 
       0.540159         514.421         220.358         526.275 
        0.55248         504.267         209.837         512.456 
       0.564743         500.007         200.096          503.65 
        0.57686         481.819         191.143         490.006 
       0.589077         470.366         182.691         479.065 
       0.601441         462.043         174.655          469.31 
        0.61382         450.228         167.077         461.105 
       0.626067         444.646         160.006         452.011 
       0.638306         427.719         153.348         443.099 
       0.650632         423.141         147.039         431.775 
       0.662899         419.356         141.128         426.721 
       0.675076         404.278         135.587         420.173 
       0.687267         393.477         130.337         410.146 
       0.699615         390.155           125.3         403.637 
       0.711937         383.575         120.538          396.25 
       0.724148         370.649         116.064         390.625 
       0.736433         361.997         111.794         383.392 
       0.748747         357.288         107.734         376.468 
       0.761037         350.531         103.884         371.545 
       0.773197         346.008         100.263         365.846 
       0.785376         340.776         96.8101         360.283 
       0.797761         331.213         93.4664         354.604 
       0.810096         328.456         90.2939         350.155 
       0.822371          317.87         87.2841         344.395 
       0.834626         315.769         84.4171         340.017 
       0.846916         309.448          81.672         334.801 
       0.859215          308.08         79.0481         330.006 
       0.871383         300.268         76.5661         325.465 
        0.88363         298.105         74.1765         322.129 
       0.895928          292.39         71.8803         317.026 
       0.908253         284.988         69.6775          311.94 
       0.920535         281.552         67.5749          308.13 
       0.932774         275.351         65.5668         303.702 
        0.94508         271.664         63.6306         300.553 
       0.957324         270.102         61.7823         296.425 
        0.96953         266.181         60.0135         292.694 
       0.981769         258.916         58.3099         289.611 
       0.994071         257.918         56.6645         285.991 
         1.0064         252.434         55.0802         281.802 
        1.01868          249.51         53.5613         278.235 
        1.03092         242.455         52.1067         275.686 
         1.0432         239.316         50.7012          272.34 
        1.05553         236.398         49.3422         268.691 
        1.06777         234.826         48.0432         265.831 
           1.08         229.098         46.7924         262.758 
        1.09227         227.169         45.5823         259.646 
         1.1046         223.406         44.4106         257.095 
         1.1169         218.302         43.2824         253.603 
        1.12915         215.449         42.1991         251.261 
        1.14142         211.669         41.1508         248.117 
        1.15365         208.862         40.1413           245.5 
        1.16585          205.31         39.1685         242.548 
        1.17807         203.002         38.2269         240.333 
        1.19037         200.442         37.3102         238.159 
        1.20276         197.586         36.4174         235.076 
        1.21504         193.303          35.561         232.504 
        1.22728          190.12         34.7357         229.614 
        1.23954          189.28         33.9348         227.804 
        1.25184         185.343         33.1577          225.29 
        1.26414         181.838         32.4047         223.059 
        1.27632         180.971         31.6819          221.26 
         1.2886          179.41         30.9761         218.544 
        1.30093         174.385         30.2894         215.978 
        1.31316         171.213         29.6285          213.62 
        1.32541         170.015         28.9873         211.741 
        1.33772         167.975         28.3616         209.605 
        1.35005         165.394          27.754         207.254 
        1.36225         162.487         27.1704         205.338 
        1.37447          160.21         26.6025         202.828 
        1.38676         158.352         26.0483         201.246 
        1.39907         155.856          25.509         198.975 
        1.41133         153.169         24.9874         197.067 
        1.42358         151.337         24.4808         195.211 
        1.43591         149.501         23.9849         193.249 
        1.44818         146.995         23.5054         191.399 
        1.46037         145.246         23.0419         189.379 
        1.47263         143.028         22.5884         187.818 
        1.48494         141.052         22.1454         185.514 
        1.49724         139.037         21.7147         184.142 
        1.50952         136.475         21.2963         182.259 
        1.52178         135.728         20.8895          180.27 
        1.53409         132.792         20.4918         178.771 
        1.54637         131.185         20.1052         177.286 
        1.55858         129.089         19.7309         175.355 
        1.57081         127.125         19.3655         173.834 
        1.58313          125.42         19.0072         172.061 
        1.59544         123.291         18.6581         170.545 
        1.60767         122.304         18.3201         168.976 
        1.61994         120.016         17.9893         167.526 
        1.63225         118.485         17.6659          165.69 
        1.64452          116.33         17.3515         164.206 
        1.65676         114.673         17.0456         162.813 
          1.669         113.773         16.7469         161.386 
        1.68133         111.345         16.4535          159.91 
        1.69363         109.733          16.168         158.481 
        1.70585         107.823         15.8911         157.081 
        1.71809         106.518         15.6202         155.408 
        1.73038         105.708         15.3547         154.167 
        1.74268         104.542         15.0952         152.691 
        1.75493         101.878         14.8429         151.392 
        1.76714         101.199          14.597         150.146 
        1.77942         99.4288         14.3555         148.629 
        1.79173         97.9319         14.1188         147.412 
        1.80402         97.0839         13.8879         146.111 
         1.8163         95.0068         13.6624         144.818 
         1.8286         93.7782         13.4414         143.495 
         1.8409          93.115         13.2256         142.172 
        1.85315         91.2546         13.0152         141.032 
        1.86537         90.3606         12.8098         139.862 
        1.87765         89.3543         12.6081         138.661 
        1.88995          87.785         12.4102         137.417 
        1.90221         86.5807         12.2173         136.282 
        1.91445         85.5117         12.0288         134.991 
        1.92674         84.0731         11.8437         133.858 
        1.93902         82.9508         11.6624         132.659 
        1.95124         81.9977         11.4859         131.554 
         1.9635         80.6436         11.3126         130.374 
        1.97583          79.413         11.1417         129.335 
        1.98812         78.4113         10.9751         128.302 
        2.00039           77.47         10.8122         127.139 
        2.01264         76.5007         10.6527          126.09 
        2.02492         75.6566         10.4963         124.979 
        2.03717         74.3375         10.3432         123.944 
        2.04942         73.8384         10.1934         122.986 
        2.06171         72.1488         10.0461         121.917 
        2.07397         71.3872           9.902         120.945 
        2.08629         70.5357         9.76013         119.894 
        2.09857          69.484         9.62137         118.932 
        2.11081         68.3131         9.48588         117.832 
        2.12309         67.3803         9.35268         117.006 
        2.13538         66.5509         9.22185         115.978 
        2.14763            65.7         9.09396         115.054 
        2.15986         64.6598         8.96879          114.05 
        2.17214         64.0067         8.84547         113.121 
        2.18443          63.184         8.72436         112.363 
        2.19671         62.0537         8.60565           111.4 
        2.20898         61.5605          8.4893         110.432 
        2.22126         60.6398         8.37498         109.565 
        2.23354         59.9503          8.2628         108.711 
         2.2458         58.8916         8.15287         107.853 
        2.25807         58.1663         8.04485         106.956 
        2.27035         57.4172         7.93869         106.082 
        2.28263         56.6428          7.8345         105.254 
         2.2949         55.8818         7.73223         104.431 
        2.30718         54.9691         7.63175         103.629 
        2.31946         54.6222         7.53302         102.751 
        2.33169         53.6165         7.43645         101.969 
        2.34393         53.1396         7.34143          101.22 
        2.35622          52.215         7.24777         100.411 
        2.36847         51.8282         7.15601          99.726 
        2.38076         50.9276         7.06556         98.8173 
        2.39305         50.3513         6.97669         98.1488 
        2.40534         49.7397         6.88935         97.3403 
        2.41762         49.1637         6.80352         96.5459 
        2.42989         48.4212         6.71928         95.8727 
        2.44216         47.9132         6.63648         95.0813 
         2.4544         47.2039         6.55526          94.374 
        2.46667         46.6683         6.47522         93.6377 
        2.47897          46.154         6.39632          92.903 
        2.49124         45.6062         6.31895         92.2403 
        2.50349          45.257         6.24298         91.5204 
        2.51578         44.4746         6.16802         90.9212 
        2.52805         43.9747         6.09444         90.1602 
        2.54029         43.5417         6.02223         89.4414 
        2.55257         42.9429         5.95098         88.8312 
        2.56487         42.6288         5.88074         88.2085 
        2.57716         41.9587         5.81174         87.5476 
        2.58942         41.3861           5.744         86.8801 
        2.60167         41.0094          5.6774         86.2505 
        2.61395         40.4576         5.61176         85.6216 
        2.62624         40.0638         5.54707         84.9331 
        2.63849         39.5582         5.48361         84.3326 
        2.65073         39.2123          5.4212         83.7135 
        2.66302         38.7107         5.35954         83.0835 
         2.6753         38.3028         5.29888         82.5076 
        2.68756         37.8926         5.23928         81.8862 
        2.69983         37.4389         5.18056         81.3308 
        2.71213         37.0809         5.12261         80.7502 
        2.72441         36.7045         5.06566         80.1552 
        2.73665         36.1957         5.00971         79.5908 
         2.7489         35.9221         4.95463         79.0273 
        2.76118         35.5279         4.90021          78.464 
        2.77349         35.1502         4.84649         77.9048 
        2.78576         34.8534         4.79378          77.317 
        2.79802         34.5104         4.74187         76.8494 
        2.81031         34.0732         4.69062         76.2835 
        2.82259         33.9625         4.64015         75.7178 
        2.83483         33.4929         4.59061         75.2329 
         2.8471         33.1956          4.5417         74.6919 
         2.8594         32.9092         4.49335         74.1485 
         2.8717         32.7584         4.44572         73.6601 
        2.88396         32.3525         4.39896         73.1398 
        2.89619         32.2046         4.35295          72.594 
        2.90847         31.8148         4.30743         72.0814 
        2.92072         31.6443         4.26264         71.6266 
        2.93299          31.476         4.21846         71.1459 
        2.94526         31.1278         4.17487         70.6564 
        2.95753          30.929         4.13191         70.1616 
        2.96982         30.7015         4.08948         69.6881 
        2.98209         30.4682         4.04773         69.2295 
        2.99436         30.2406         4.00653         68.7252 
        3.00666          30.209         3.96584         68.2708 
        3.01894         29.8857         3.92579         67.8032 
        3.03119          29.843         3.88634         67.3658 
        3.04345         29.7192         3.84744         66.9362 
        3.05573         29.3751         3.80899         66.4833 
          3.068         29.3783         3.77111         66.0382 
        3.08026         29.2017         3.73378         65.5936 
        3.09254         29.1371         3.69689          65.167 
        3.10483         29.1014         3.66049         64.7438 
         3.1171         28.9057         3.62463          64.313 
        3.12933         28.8256         3.58935          63.881 
        3.14159         28.7097         3.55446         63.4448 
