# k  (h/Mpc)    Pcb(k)  (Mpc/h)^3    Pcb_linear(k) (Mpc/h)^3    Pcb_NL(k) (Mpc/h)^3   ShotnoiseSubtracted = false
      0.0156606           15599         15661.9         15553.2 
      0.0273761         13415.9         13542.7         13429.5 
      0.0384619         10166.6         10203.4         10108.8 
      0.0498308         7879.21          8025.8         7932.75 
      0.0625568         6653.89         6821.03         6736.27 
      0.0751274         5895.78         5795.24         5674.25 
      0.0867833         4587.14         4665.83         4630.65 
      0.0984825         3838.85         3692.41         3731.04 
       0.111151         3265.27          3083.1         3127.47 
       0.123864         2929.28          2778.5         2815.02 
       0.135742         2658.83         2498.57         2535.69 
        0.14762         2300.72          2136.4         2234.19 
       0.160083         1933.72         1780.81         1898.36 
       0.172465          1724.6         1554.31         1702.87 
       0.184281         1576.51         1432.89         1584.31 
       0.196406         1465.88         1323.27         1454.77 
       0.209011         1359.73         1177.37         1315.33 
       0.221538         1226.83         1028.91         1217.27 
       0.233611         1158.34         920.609         1132.51 
       0.245665         1059.46         849.687         1043.22 
       0.258103         1025.49         790.986         982.884 
       0.270422         922.118         726.824         919.388 
       0.282519         859.646         659.633         862.915 
       0.294636         851.096         600.999         813.453 
       0.306978         766.477         556.025         776.095 
       0.319417         743.408         519.851         730.688 
        0.33169         700.636         485.226         689.323 
       0.343948         668.418          449.59         665.285 
       0.356249         629.079          416.17         638.225 
       0.368458         609.794         388.177         605.452 
        0.38068         590.337         364.768         580.064 
       0.392856         556.953         343.399          557.58 
       0.405069         532.987         322.504         540.258 
       0.417459         511.375         302.272         515.776 
       0.429752         499.214         284.111         497.209 
       0.441978         482.736         268.171         483.121 
       0.454294         457.166         253.696          462.22 
        0.46658         448.343         240.114         451.139 
       0.478753         434.952         227.301         436.113 
       0.490964         419.162         215.266         421.827 
       0.503334         396.664         204.158         410.818 
       0.515665         395.411         194.028         401.884 
       0.527909         381.211         184.677           390.7 
       0.540159         371.638          175.83         379.739 
        0.55248         364.425         167.435         369.343 
       0.564743         359.111         159.662         362.417 
        0.57686         345.246         152.518         351.905 
       0.589077          333.59         145.774          344.13 
       0.601441         330.019         139.362         336.363 
        0.61382         324.083         133.316         329.834 
       0.626067         318.687         127.674         322.646 
       0.638306         304.813         122.361         316.491 
       0.650632         299.692         117.327         307.371 
       0.662899         297.492          112.61         303.465 
       0.675076         286.088         108.189         297.662 
       0.687267          279.04             104         290.779 
       0.699615         274.873         99.9809          285.75 
       0.711937         270.451         96.1811         280.606 
       0.724148         262.489          92.611          276.38 
       0.736433         256.872         89.2045         270.725 
       0.748747         252.648         85.9643         265.571 
       0.761037         248.235         82.8928         261.304 
       0.773197         244.864         80.0032         257.829 
       0.785376         241.505         77.2481         253.116 
       0.797761         235.728         74.5801         249.416 
       0.810096         232.753         72.0487         245.765 
       0.822371         223.998          69.647         241.687 
       0.834626         223.419         67.3593         238.043 
       0.846916         218.899          65.169         234.573 
       0.859215         218.701         63.0753          231.16 
       0.871383         212.875         61.0948         227.564 
        0.88363         211.157         59.1881         225.199 
       0.895928         206.302         57.3559         221.691 
       0.908253         200.696         55.5982         218.005 
       0.920535          200.05         53.9205         215.072 
       0.932774         193.527         52.3181         212.071 
        0.94508         191.824         50.7732         209.845 
       0.957324         191.402         49.2984          206.69 
        0.96953         188.833          47.887         203.686 
       0.981769         182.997         46.5276         201.815 
       0.994071         182.189         45.2148         199.164 
         1.0064         178.009         43.9505         196.137 
        1.01868         175.653         42.7386         193.924 
        1.03092         172.639         41.5779          191.85 
         1.0432           169.3         40.4564         189.459 
        1.05553         166.701         39.3721         187.176 
        1.06777         166.552         38.3355         185.282 
           1.08         162.486         37.3375         182.866 
        1.09227         160.617         36.3719          180.99 
         1.1046         158.123          35.437         178.969 
         1.1169         155.779         34.5367         176.528 
        1.12915         153.409         33.6723         174.849 
        1.14142         151.001         32.8358         172.567 
        1.15365         149.059         32.0303         170.757 
        1.16585         146.998         31.2541          168.53 
        1.17807         144.984         30.5028         167.315 
        1.19037         144.081         29.7713         165.577 
        1.20276         141.398         29.0589         163.544 
        1.21504         139.359         28.3755         161.785 
        1.22728         136.651          27.717         159.786 
        1.23954         136.032         27.0779         158.538 
        1.25184         133.362         26.4579         156.736 
        1.26414         131.449          25.857         155.092 
        1.27632         130.938         25.2802          154.24 
         1.2886         128.605          24.717         152.045 
        1.30093         125.229         24.1691         150.422 
        1.31316         124.781         23.6418         148.797 
        1.32541         122.986         23.1301         147.683 
        1.33772         121.792         22.6308         146.083 
        1.35005         120.166          22.146         144.456 
        1.36225         118.726         21.6803          143.17 
        1.37447         116.574         21.2272         141.567 
        1.38676         115.658          20.785         140.145 
        1.39907         113.188         20.3547          138.86 
        1.41133         111.721         19.9384         137.714 
        1.42358         110.165         19.5342         136.384 
        1.43591         109.361         19.1385         134.849 
        1.44818         108.314         18.7559         133.743 
        1.46037         106.201         18.3861          132.38 
        1.47263         105.013         18.0242         131.384 
        1.48494          103.81         17.6707         129.924 
        1.49724         102.269          17.327         128.625 
        1.50952          100.51         16.9931         127.497 
        1.52178         99.8636         16.6686         126.284 
        1.53409         98.4644         16.3512         125.203 
        1.54637         96.7941         16.0428         124.088 
        1.55858          95.496         15.7441         122.868 
        1.57081         94.1654         15.4526          121.81 
        1.58313         93.1128         15.1666         120.667 
        1.59544         92.1131         14.8881         119.607 
        1.60767         90.7411         14.6184         118.455 
        1.61994         89.4347         14.3544         117.683 
        1.63225         88.1925         14.0964         116.254 
        1.64452         86.8864         13.8454         115.297 
        1.65676         85.7384         13.6014         114.345 
          1.669         85.1515         13.3631         113.422 
        1.68133         83.8898          13.129         112.345 
        1.69363         82.9453         12.9011         111.433 
        1.70585         81.7224         12.6802         110.398 
        1.71809         80.4987          12.464         109.476 
        1.73038          79.758         12.2521         108.469 
        1.74268         78.4783         12.0451         107.545 
        1.75493         77.7717         11.8438         106.577 
        1.76714         76.4857         11.6476         105.712 
        1.77942         75.9141         11.4548         104.738 
        1.79173         74.6183          11.266         103.891 
        1.80402         73.9087         11.0818         103.071 
         1.8163         72.8729         10.9018         102.024 
         1.8286         71.8391         10.7255         101.267 
         1.8409         71.0183         10.5532         100.388 
        1.85315         69.9207         10.3854         99.6229 
        1.86537         69.2146         10.2215         98.7506 
        1.87765         68.4958         10.0605         97.8178 
        1.88995         67.4493         9.90264         97.1087 
        1.90221         66.6563          9.7487         96.2701 
        1.91445         65.4285         9.59829         95.4785 
        1.92674         64.8275         9.45054         94.7104 
        1.93902         64.0121          9.3059         93.8582 
        1.95124         63.5481         9.16505         93.2001 
         1.9635         62.4118         9.02676          92.268 
        1.97583         61.7691         8.89046         91.6613 
        1.98812         61.0369         8.75748         90.8486 
        2.00039         60.0435         8.62749         90.1124 
        2.01264         59.5244         8.50027         89.3579 
        2.02492         58.6546         8.37543         88.6601 
        2.03717         57.8316          8.2533          87.873 
        2.04942          57.251         8.13377         87.2649 
        2.06171         56.3383          8.0162         86.5048 
        2.07397         55.7419         7.90122         85.8688 
        2.08629         55.2259         7.78801         85.1185 
        2.09857         54.4907         7.67729         84.4684 
        2.11081         53.3686         7.56918         83.7191 
        2.12309         53.1089          7.4629         83.1385 
        2.13538         52.3339          7.3585         82.4514 
        2.14763         51.7664         7.25645         81.8069 
        2.15986         50.8722         7.15657         81.1479 
        2.17214         50.3485         7.05817         80.5272 
        2.18443         49.9195         6.96153         79.9329 
        2.19671         49.0124         6.86681         79.2519 
        2.20898         48.7805         6.77397         78.6391 
        2.22126          48.022         6.68275         77.9926 
        2.23354         47.3825         6.59323         77.4338 
         2.2458          46.892         6.50552         76.8611 
        2.25807         46.4426         6.41932         76.2056 
        2.27035         45.8222         6.33461         75.6207 
        2.28263         45.1076         6.25147         75.0225 
         2.2949          44.676         6.16987         74.4629 
        2.30718         44.0711          6.0897         73.9213 
        2.31946         43.4796         6.01091         73.3768 
        2.33169         42.9879         5.93386         72.8011 
        2.34393         42.2822         5.85804         72.2473 
        2.35622         42.0483          5.7833         71.6899 
        2.36847          41.516         5.71008         71.1831 
        2.38076         41.0509          5.6379         70.6122 
        2.39305         40.5165           5.567         70.1056 
        2.40534          40.129         5.49731         69.5277 
        2.41762         39.7138         5.42882          68.986 
        2.42989         39.0654          5.3616         68.5329 
        2.44216         38.8081         5.29553         68.0019 
         2.4544         38.3589         5.23072         67.4933 
        2.46667         37.8928         5.16685         66.9595 
        2.47897          37.462         5.10389         66.4856 
        2.49124         36.9658         5.04216          66.002 
        2.50349         36.4691         4.98154         65.5054 
        2.51578           36.08         4.92173          65.066 
        2.52805          35.972         4.86301          64.565 
        2.54029         35.4269         4.80539          64.076 
        2.55257          34.925         4.74854         63.6287 
        2.56487         34.6425         4.69249         63.1862 
        2.57716         34.2293         4.63743         62.7532 
        2.58942         33.8308         4.58338         62.2718 
        2.60167         33.3529         4.53024         61.8062 
        2.61395         33.1128         4.47786         61.3743 
        2.62624         32.8517         4.42624         60.9271 
        2.63849         32.5237          4.3756         60.5043 
        2.65073         32.1743          4.3258         60.0405 
        2.66302         31.8314          4.2766          59.624 
         2.6753         31.4405          4.2282          59.209 
        2.68756         31.0083         4.18064         58.7622 
        2.69983         30.8031         4.13379         58.3777 
        2.71213         30.5022         4.08755         57.9839 
        2.72441         30.3003          4.0421          57.553 
        2.73665         29.9965         3.99746         57.1423 
         2.7489         29.7794         3.95351         56.7492 
        2.76118         29.3688         3.91009         56.3554 
        2.77349          29.218         3.86721         55.9707 
        2.78576         29.0172         3.82516          55.562 
        2.79802          28.627         3.78374         55.1968 
        2.81031         28.3805         3.74285         54.8206 
        2.82259          28.157         3.70257         54.4201 
        2.83483         27.8842         3.66304         54.0475 
         2.8471         27.5671         3.62401         53.6872 
         2.8594         27.4357         3.58543         53.3332 
         2.8717         27.1311         3.54742         52.9618 
        2.88396         26.9626         3.51011         52.5781 
        2.89619         26.7267          3.4734         52.2214 
        2.90847         26.5426         3.43708         51.8814 
        2.92072         26.4023         3.40134         51.5204 
        2.93299         26.2606         3.36609         51.1648 
        2.94526          25.982         3.33131         50.8395 
        2.95753         25.8434         3.29703         50.5081 
        2.96982         25.7926         3.26317         50.1649 
        2.98209         25.5453         3.22986         49.8339 
        2.99436         25.3258         3.19698         49.4902 
        3.00666         25.3213         3.16451         49.1651 
        3.01894         25.1198         3.13255         48.8184 
        3.03119         24.9958         3.10108         48.5018 
        3.04345         24.8916         3.07003          48.202 
        3.05573         24.8307         3.03935         47.8855 
          3.068         24.7164         3.00913         47.5674 
        3.08026         24.5724         2.97934         47.2505 
        3.09254         24.5015          2.9499          46.945 
        3.10483         24.5006         2.92086         46.6451 
         3.1171         24.4394         2.89225         46.3417 
        3.12933         24.3894         2.86409         46.0386 
        3.14159         24.2573         2.83625         45.7376 
