# k  (h/Mpc)    P(k)  (Mpc/h)^3    P_linear(k)  (Mpc/h)^3     P_NL(k)  ShotnoiseSubtracted = false
      0.0156606         3389.19         3445.41         3428.04 
      0.0273761         2938.19         2976.91         2967.74 
      0.0384619         2231.28         2242.08          2238.3 
      0.0498308         1746.77         1763.24         1760.81 
      0.0625568         1473.45         1498.38         1494.94 
      0.0751274         1277.91         1272.95         1266.94 
      0.0867833         1011.72         1024.82         1023.94 
      0.0984825         822.091         810.995         814.678 
       0.111151         689.229         677.152         680.771 
       0.123864         619.156         610.241         613.088 
       0.135742         556.651         548.752         551.617 
        0.14762         473.287         469.206         475.946 
       0.160083         392.919         391.107         398.762 
       0.172465         346.815          341.36         350.597 
       0.184281         321.508         314.692          324.51 
       0.196406         293.188         290.617         298.232 
       0.209011         264.798         258.573         267.161 
       0.221538         235.693         225.968         237.974 
       0.233611          212.95         202.182          215.54 
       0.245665         200.077         186.606         198.499 
       0.258103         180.606         173.714         185.562 
       0.270422         169.434         159.623          171.17 
       0.282519         153.805         144.866         157.146 
       0.294636         147.473         131.989         144.943 
       0.306978         130.277         122.112         135.518 
       0.319417         124.434         114.168         127.115 
        0.33169         115.738         106.563         119.076 
       0.343948         110.078         98.7369         111.539 
       0.356249         101.221         91.3972         105.279 
       0.368458         96.7884         85.2496         98.1661 
        0.38068         90.9371         80.1091         92.9044 
       0.392856         84.8996         75.4159         88.3104 
       0.405069         80.4234         70.8268         83.4409 
       0.417459         75.6034         66.3838         78.9735 
       0.429752         72.4782         62.3953         75.0295 
       0.441978         69.0968         58.8944         71.9502 
       0.454294         64.2744         55.7155         68.1136 
        0.46658         63.9336         52.7327         65.1186 
       0.478753         59.4555         49.9188         62.3399 
       0.490964         57.5081         47.2755         59.8062 
       0.503334         55.1217         44.8361         57.1076 
       0.515665         52.5468         42.6115         55.2777 
       0.527909         50.3278         40.5578         52.3879 
       0.540159         48.3567         38.6147         50.4883 
        0.55248         45.3233         36.7711         48.4288 
       0.564743         44.6546         35.0641         46.8581 
        0.57686         43.2133         33.4952         45.1359 
       0.589077         40.7803         32.0141         43.7216 
       0.601441         39.4526         30.6058         42.1941 
        0.61382         38.1398          29.278          40.576 
       0.626067         36.5926          28.039         39.3874 
       0.638306         35.4362         26.8722         37.9921 
       0.650632         34.4042         25.7667          36.761 
       0.662899         33.1327         24.7308         35.5474 
       0.675076         31.6567         23.7599         34.4621 
       0.687267         31.2537           22.84         33.3939 
       0.699615         30.1476         21.9572         32.5306 
       0.711937         28.7063         21.1227         31.4397 
       0.724148          28.573         20.3387         30.7228 
       0.736433         26.9208         19.5906         29.7725 
       0.748747         26.5108          18.879         28.9635 
       0.761037          25.812         18.2044         28.2472 
       0.773197          25.029         17.5698         27.5543 
       0.785376         24.0637         16.9648         26.8324 
       0.797761         23.6194         16.3788         26.1732 
       0.810096          23.086         15.8229         25.5294 
       0.822371         22.4604         15.2955         24.8218 
       0.834626         21.7714         14.7931         24.3342 
       0.846916         21.1489          14.312         23.7154 
       0.859215         20.4102         13.8522         23.1744 
       0.871383          20.077         13.4173         22.7081 
        0.88363         19.5564         12.9985         22.2055 
       0.895928          19.159         12.5962         21.6468 
       0.908253         18.7122         12.2101         21.2488 
       0.920535          18.204         11.8417         20.7648 
       0.932774         17.9173         11.4898         20.2832 
        0.94508         17.3834         11.1505          19.891 
       0.957324          17.064         10.8266          19.515 
        0.96953         16.5131         10.5167          19.095 
       0.981769         16.3702         10.2181         18.7506 
       0.994071         15.9066         9.92978         18.3588 
         1.0064         15.4693         9.65214         18.0288 
        1.01868         15.1711         9.38598          17.705 
        1.03092          14.987         9.13108         17.3513 
         1.0432         14.4637         8.88478         17.0101 
        1.05553         14.2368         8.64665         16.7838 
        1.06777         13.8239           8.419         16.4126 
           1.08         13.5764         8.19982         16.1474 
        1.09227         13.3218         7.98777         15.8893 
         1.1046         13.1094         7.78245         15.5779 
         1.1169         12.7567         7.58474         15.3119 
        1.12915         12.7024         7.39491         15.1063 
        1.14142         12.2204          7.2112         14.8272 
        1.15365         12.1265         7.03431         14.5848 
        1.16585         11.9764         6.86384          14.386 
        1.17807         11.6176         6.69883         14.1071 
        1.19037         11.4608         6.53818         13.9263 
        1.20276         11.2146         6.38173          13.692 
        1.21504         11.0594         6.23166         13.5065 
        1.22728         10.7782         6.08705         13.2824 
        1.23954         10.6289         5.94669         13.1009 
        1.25184         10.4232         5.81052         12.9098 
        1.26414          10.283         5.67856         12.6982 
        1.27632         10.0351         5.55189          12.521 
         1.2886         9.92998         5.42821         12.3549 
        1.30093         9.72211         5.30787         12.2237 
        1.31316          9.5559         5.19206         12.0167 
        1.32541          9.4118          5.0797         11.8903 
        1.33772          9.2307         4.97005         11.7011 
        1.35005         9.12542         4.86357         11.5612 
        1.36225         8.95059          4.7613          11.388 
        1.37447         8.80197         4.66179         11.2536 
        1.38676          8.6599         4.56467          11.119 
        1.39907         8.50674         4.47017         10.9694 
        1.41133         8.38854         4.37875         10.8349 
        1.42358         8.22582         4.28999         10.6877 
        1.43591         8.14028         4.20308         10.5819 
        1.44818         7.96614         4.11906         10.4485 
        1.46037         7.86988         4.03784         10.3088 
        1.47263         7.74201         3.95837         10.2066 
        1.48494         7.67041         3.88074         10.0602 
        1.49724         7.51993         3.80525         9.96238 
        1.50952         7.48374         3.73193         9.85075 
        1.52178         7.32298         3.66065         9.72886 
        1.53409         7.19071         3.59095         9.61404 
        1.54637         7.12763         3.52322         9.49456 
        1.55858         7.04734         3.45762         9.39793 
        1.57081         6.88211          3.3936         9.31061 
        1.58313         6.83479          3.3308         9.20379 
        1.59544         6.69381         3.26963         9.11312 
        1.60767         6.62629         3.21039         9.00393 
        1.61994         6.53112         3.15242         8.92275 
        1.63225         6.43972         3.09576         8.82737 
        1.64452         6.33593         3.04065         8.73565 
        1.65676         6.25275         2.98706         8.64551 
          1.669         6.20679         2.93472         8.55408 
        1.68133         6.06666          2.8833         8.46518 
        1.69363          6.0129         2.83327         8.39168 
        1.70585         5.93072         2.78475          8.3032 
        1.71809         5.86324         2.73726         8.22667 
        1.73038         5.80451         2.69074         8.14915 
        1.74268         5.71983         2.64527         8.07146 
        1.75493         5.63436         2.60105         7.98002 
        1.76714         5.60978         2.55797          7.9172 
        1.77942         5.51841         2.51564         7.83319 
        1.79173         5.44062         2.47416         7.76021 
        1.80402         5.39356         2.43371         7.69134 
         1.8163         5.33509         2.39418         7.62999 
         1.8286         5.24849         2.35547         7.56056 
         1.8409         5.18066         2.31764         7.49816 
        1.85315         5.12279         2.28077         7.41841 
        1.86537         5.08651         2.24478         7.35871 
        1.87765         5.01038         2.20943         7.28998 
        1.88995         4.93065         2.17476         7.23324 
        1.90221         4.89371         2.14095          7.1626 
        1.91445         4.83095         2.10792         7.11787 
        1.92674         4.79486         2.07547         7.04222 
        1.93902         4.73412          2.0437         6.98713 
        1.95124         4.67597         2.01277         6.92024 
         1.9635         4.63778          1.9824         6.87498 
        1.97583         4.58359         1.95247         6.81498 
        1.98812         4.52322         1.92326         6.74922 
        2.00039         4.47518         1.89472         6.70708 
        2.01264         4.43323         1.86678         6.65453 
        2.02492         4.39027         1.83936         6.59723 
        2.03717         4.33657         1.81254          6.5442 
        2.04942         4.27443         1.78629         6.49887 
        2.06171         4.24152         1.76047         6.44516 
        2.07397         4.20438         1.73522          6.3939 
        2.08629         4.16032         1.71036         6.34829 
        2.09857         4.11069         1.68604         6.29758 
        2.11081         4.07049          1.6623         6.25526 
        2.12309         4.02779         1.63896         6.19864 
        2.13538         3.98809         1.61603         6.16163 
        2.14763           3.953         1.59362         6.11304 
        2.15986         3.92161         1.57168         6.06896 
        2.17214         3.87357         1.55007         6.01705 
        2.18443         3.84469         1.52885         5.97647 
        2.19671         3.79427         1.50805         5.93407 
        2.20898         3.76227         1.48766         5.89432 
        2.22126         3.73287         1.46762         5.84912 
        2.23354         3.69081         1.44797         5.80419 
         2.2458         3.66615          1.4287         5.76092 
        2.25807         3.62893         1.40977         5.72622 
        2.27035         3.59324         1.39117          5.6892 
        2.28263          3.5623         1.37291         5.64733 
         2.2949          3.5323         1.35499         5.61287 
        2.30718         3.50019         1.33738         5.58124 
        2.31946         3.47515         1.32008         5.54175 
        2.33169         3.43807         1.30316         5.49913 
        2.34393         3.42219         1.28651         5.46298 
        2.35622          3.3942         1.27009         5.42442 
        2.36847         3.35669         1.25401         5.38928 
        2.38076         3.33818         1.23816         5.35237 
        2.39305         3.29763         1.22259         5.31452 
        2.40534         3.27535         1.20729         5.28174 
        2.41762         3.23552         1.19224         5.25379 
        2.42989         3.22494         1.17748         5.21727 
        2.44216         3.20673         1.16297         5.18624 
         2.4544         3.16847         1.14874         5.15115 
        2.46667         3.15203         1.13471         5.11959 
        2.47897         3.12114         1.12089         5.08655 
        2.49124         3.09343         1.10733         5.05442 
        2.50349         3.08111         1.09402         5.02693 
        2.51578         3.04495         1.08088         4.99286 
        2.52805         3.02996         1.06799         4.96225 
        2.54029         3.01019         1.05533         4.93274 
        2.55257         2.99288         1.04285         4.90491 
        2.56487         2.96709         1.03054         4.87044 
        2.57716         2.95942         1.01845         4.84201 
        2.58942         2.92396         1.00657          4.8145 
        2.60167         2.90875        0.994905         4.78384 
        2.61395         2.88028        0.983402         4.75789 
        2.62624          2.8798        0.972066         4.73188 
        2.63849         2.85049        0.960944         4.70018 
        2.65073         2.83162        0.950007         4.67221 
        2.66302         2.81718        0.939203          4.6463 
         2.6753          2.8063        0.928573         4.61961 
        2.68756         2.77737        0.918129         4.59486 
        2.69983         2.76518        0.907838         4.56537 
        2.71213         2.75881        0.897684         4.53934 
        2.72441         2.74136        0.887703         4.51461 
        2.73665         2.72378        0.877898         4.48857 
         2.7489         2.70325        0.868247         4.46657 
        2.76118         2.69029        0.858711         4.44598 
        2.77349         2.68731        0.849296         4.41673 
        2.78576         2.67144        0.840059         4.39175 
        2.79802         2.66431        0.830964         4.36966 
        2.81031         2.64503        0.821982         4.34456 
        2.82259         2.63299        0.813137         4.32048 
        2.83483         2.62967        0.804456         4.29808 
         2.8471         2.61374        0.795885         4.27486 
         2.8594          2.6066        0.787412         4.25381 
         2.8717         2.59463        0.779065         4.22881 
        2.88396         2.58846        0.770871          4.2049 
        2.89619         2.56622        0.762809         4.18457 
        2.90847          2.5655        0.754833         4.15914 
        2.92072         2.56344        0.746983         4.13923 
        2.93299         2.55607        0.739242          4.1178 
        2.94526         2.55579        0.731603         4.09683 
        2.95753          2.5372        0.724074         4.07569 
        2.96982         2.52932        0.716639         4.05432 
        2.98209         2.53251        0.709323          4.0344 
        2.99436         2.52269        0.702103          4.0133 
        3.00666         2.52941        0.694972         3.99358 
        3.01894         2.51971        0.687953         3.96983 
        3.03119         2.52295        0.681041         3.95061 
        3.04345         2.51566        0.674224         3.93316 
        3.05573          2.5162        0.667486         3.91317 
          3.068         2.51612        0.660848         3.89415 
        3.08026         2.52182        0.654307         3.87405 
        3.09254         2.51815        0.647842         3.85365 
        3.10483          2.5213        0.641463         3.83562 
         3.1171         2.52189        0.635179         3.81807 
        3.12933         2.52842        0.628996         3.79794 
        3.14159         2.52445        0.622883         3.77714 
