# k  (h/Mpc)    Pcb(k)  (Mpc/h)^3    Pcb_linear(k) (Mpc/h)^3    Pcb_NL(k) (Mpc/h)^3   ShotnoiseSubtracted = false
      0.0156606         7534.27          7549.1          7506.3 
      0.0273761         6515.71          6529.8         6498.22 
      0.0384619         4948.67         4920.44         4899.54 
      0.0498308         3858.57         3870.68          3852.1 
      0.0625568         3256.23         3289.83         3271.26 
      0.0751274         2852.98         2795.18         2766.96 
      0.0867833         2240.46         2250.49         2244.13 
      0.0984825         1843.38         1781.01         1793.96 
       0.111151         1553.76         1487.13         1500.53 
       0.123864         1395.74         1340.22         1351.48 
       0.135742          1259.2          1205.2         1216.79 
        0.14762         1076.99         1030.51         1058.77 
       0.160083         895.502         858.992         891.453 
       0.172465         795.545         749.738         789.818 
       0.184281         735.335         691.171         733.315 
       0.196406         672.703         638.296         672.366 
       0.209011         614.297         567.922         605.096 
       0.221538         551.676         496.311         548.243 
       0.233611         506.356          444.07         502.246 
       0.245665         472.945          409.86         462.009 
       0.258103         436.269         381.545         433.436 
       0.270422         403.684         350.596         402.012 
       0.282519         368.674         318.186         372.202 
       0.294636          362.09         289.903         346.811 
       0.306978         320.342         268.209         327.368 
       0.319417         307.185          250.76         307.568 
        0.33169          287.51         234.057         288.892 
       0.343948         274.388         216.868           274.4 
       0.356249         255.268         200.747         261.034 
       0.368458         246.361         187.245         245.091 
        0.38068         233.969         175.953         233.099 
       0.392856         218.411         165.645         222.845 
       0.405069         208.884         155.566         213.292 
       0.417459         198.916         145.807         201.825 
       0.429752         191.433         137.046         193.548 
       0.441978         184.283         129.357         186.889 
       0.454294         171.663         122.375         177.575 
        0.46658         171.875         115.824         171.557 
       0.478753         161.709         109.643         165.149 
       0.490964         156.746         103.838         158.849 
       0.503334         148.997         98.4795         153.478 
       0.515665         145.143         93.5933         149.452 
       0.527909         140.579         89.0826         142.932 
       0.540159         135.855         84.8151         138.706 
        0.55248         131.336         80.7657         133.918 
       0.564743         127.617         77.0162          130.36 
        0.57686         123.585         73.5702         126.051 
       0.589077         118.036         70.3172         122.957 
       0.601441         115.432          67.224         119.613 
        0.61382         113.393         64.3075         115.918 
       0.626067         108.944          61.586         112.934 
       0.638306         105.191         59.0232         110.104 
       0.650632         101.452         56.5951         106.231 
       0.662899         101.089         54.3198         103.795 
       0.675076         97.4348         52.1873         101.255 
       0.687267         95.3062         50.1667          98.797 
       0.699615         92.3532         48.2278         96.7744 
       0.711937         89.5326         46.3949         94.0073 
       0.724148         88.7429         44.6728         92.6813 
       0.736433         85.0809         43.0296         90.1635 
       0.748747         83.5397         41.4667         88.1615 
       0.761037         81.6454         39.9851         86.0668 
       0.773197         79.8687         38.5912          84.994 
       0.785376          77.916         37.2622         82.8125 
       0.797761         77.1682         35.9753         81.5053 
       0.810096         74.4926         34.7542         79.6439 
       0.822371          73.093         33.5957         78.0766 
       0.834626         71.3944         32.4922         76.7639 
       0.846916         70.2945         31.4356         75.3646 
       0.859215         68.7219         30.4257         73.8153 
       0.871383         67.8054         29.4704         72.5718 
        0.88363         65.9415         28.5506         71.5428 
       0.895928          64.568         27.6668         70.2589 
       0.908253         63.0212          26.819         69.0582 
       0.920535         62.6673         26.0097          67.943 
       0.932774         61.3989         25.2368         66.7729 
        0.94508          60.529         24.4915         65.5627 
       0.957324         58.9939         23.7801          64.699 
        0.96953          58.914         23.0993         63.5259 
       0.981769         56.9702         22.4436         62.7683 
       0.994071         56.3017         21.8103         61.8309 
         1.0064         55.0768         21.2005         60.8702 
        1.01868         54.2256         20.6158         60.0438 
        1.03092          53.397          20.056         59.1448 
         1.0432         52.4838          19.515         58.1856 
        1.05553         51.1965         18.9919         57.7236 
        1.06777         50.6982         18.4919         56.8144 
           1.08         49.5091         18.0105         55.9919 
        1.09227          48.932         17.5447         55.2145 
         1.1046         48.2058         17.0938         54.4642 
         1.1169          47.648         16.6595         53.6838 
        1.12915          46.833         16.2426         53.1007 
        1.14142         45.9327         15.8391           52.43 
        1.15365         45.2624         15.4505         51.8227 
        1.16585         44.5768         15.0761         51.0801 
        1.17807         43.8567         14.7136         50.4202 
        1.19037         43.7233         14.3608         49.9692 
        1.20276         42.9578         14.0172         49.3468 
        1.21504         42.3616         13.6875         48.7963 
        1.22728         41.5563         13.3699         48.2158 
        1.23954         41.0924         13.0616         47.5449 
        1.25184         40.3937         12.7625         47.1123 
        1.26414         39.8311         12.4727         46.5023 
        1.27632         39.5086         12.1944         46.0267 
         1.2886         39.0898         11.9228         45.5286 
        1.30093         38.4068         11.6585         44.9422 
        1.31316          37.828         11.4041         44.5737 
        1.32541         37.5696         11.1573         44.0677 
        1.33772         36.8464         10.9165         43.6049 
        1.35005         36.4266         10.6826         43.1768 
        1.36225         35.8433          10.458          42.758 
        1.37447          35.007         10.2394         42.2762 
        1.38676         35.1233         10.0261         41.9048 
        1.39907         34.5557         9.81851         41.5198 
        1.41133         33.8514         9.61772         41.0823 
        1.42358         33.5125         9.42275         40.6535 
        1.43591         33.1093         9.23186         40.3052 
        1.44818         32.7784         9.04732         39.8404 
        1.46037         32.3583         8.86893         39.4785 
        1.47263         32.1225         8.69437         39.1645 
        1.48494         31.5022         8.52385         38.7503 
        1.49724         31.4202         8.35805         38.3909 
        1.50952          30.924         8.19701         38.0817 
        1.52178         30.4708         8.04045         37.7141 
        1.53409         30.2201         7.88736         37.3823 
        1.54637          29.829         7.73858         37.0044 
        1.55858         29.1465         7.59449         36.6885 
        1.57081         29.2359         7.45387         36.4039 
        1.58313          28.871         7.31594         36.0568 
        1.59544         28.3315         7.18159         35.7573 
        1.60767         28.0157         7.05147         35.4031 
        1.61994         27.6768         6.92414         35.1282 
        1.63225         27.5464         6.79968         34.8664 
        1.64452         27.1221         6.67864         34.5732 
        1.65676         26.8439         6.56092         34.2595 
          1.669         26.5844         6.44596         34.0134 
        1.68133         26.2388         6.33303         33.7031 
        1.69363         25.8757         6.22314         33.3748 
        1.70585         25.6695         6.11656         33.1993 
        1.71809         25.2554         6.01226         32.8527 
        1.73038         25.1254         5.91007         32.6473 
        1.74268         24.8154          5.8102          32.319 
        1.75493         24.4975         5.71309         32.0941 
        1.76714         24.3689         5.61846         31.8597 
        1.77942          24.097         5.52548          31.592 
        1.79173         23.6525         5.43438         31.3443 
        1.80402         23.4205         5.34552         31.1797 
         1.8163         23.3244          5.2587         30.8107 
         1.8286         22.9154         5.17367         30.6336 
         1.8409         22.7174         5.09058         30.4039 
        1.85315         22.4959          5.0096         30.1901 
        1.86537         22.1918         4.93054          29.961 
        1.87765         22.0642          4.8529         29.7274 
        1.88995         21.7636         4.77675         29.4658 
        1.90221         21.5514         4.70249          29.256 
        1.91445         21.2851         4.62994         29.0435 
        1.92674         21.0972         4.55867         28.8276 
        1.93902         20.8474          4.4889         28.6442 
        1.95124         20.5414         4.42096          28.483 
         1.9635         20.4207         4.35425         28.2264 
        1.97583         20.2098          4.2885         28.0278 
        1.98812         20.0403         4.22436         27.8452 
        2.00039         19.8257         4.16165         27.6371 
        2.01264         19.5979         4.10028         27.4581 
        2.02492         19.4404         4.04006         27.2275 
        2.03717         19.1479         3.98115         27.0515 
        2.04942         18.9968          3.9235         26.8475 
        2.06171         18.8594         3.86679         26.6718 
        2.07397         18.6702         3.81132         26.4636 
        2.08629         18.4934         3.75671         26.2753 
        2.09857         18.3141          3.7033          26.112 
        2.11081         18.0788         3.65116         25.9298 
        2.12309         17.9524         3.59989         25.7487 
        2.13538         17.7295         3.54953         25.5771 
        2.14763         17.5568          3.5003         25.4065 
        2.15986         17.4494         3.45213         25.2424 
        2.17214         17.2436         3.40466         25.0763 
        2.18443         17.0741         3.35804         24.8894 
        2.19671          16.902         3.31235         24.7134 
        2.20898         16.7398         3.26757          24.551 
        2.22126         16.6113         3.22356         24.4007 
        2.23354         16.5261         3.18039         24.2359 
         2.2458         16.3162         3.13808         24.1014 
        2.25807         16.1125          3.0965          23.897 
        2.27035         15.9898         3.05563         23.7582 
        2.28263         15.8252         3.01553         23.6038 
         2.2949         15.7404         2.97617         23.4621 
        2.30718         15.5978         2.93749         23.3141 
        2.31946         15.4723         2.89949         23.1496 
        2.33169         15.3079         2.86232         23.0004 
        2.34393          15.169         2.82575         22.8724 
        2.35622         14.9676          2.7897         22.7188 
        2.36847         14.8658         2.75438         22.5629 
        2.38076         14.7066         2.71956          22.436 
        2.39305         14.6068         2.68536         22.2896 
        2.40534         14.4595         2.65174         22.1217 
        2.41762         14.3224         2.61871         22.0188 
        2.42989         14.2081         2.58628         21.8572 
        2.44216         14.0763         2.55441         21.7248 
         2.4544         14.0562         2.52315          21.576 
        2.46667         13.8721         2.49234         21.4555 
        2.47897          13.702         2.46197         21.3113 
        2.49124         13.6477         2.43219         21.1809 
        2.50349         13.4892         2.40295         21.0393 
        2.51578         13.3931          2.3741          20.938 
        2.52805         13.2898         2.34578         20.8003 
        2.54029         13.2052         2.31798         20.6719 
        2.55257         13.1131         2.29056         20.5421 
        2.56487         12.9316         2.26352           20.42 
        2.57716         12.8607         2.23696         20.2779 
        2.58942         12.7855         2.21089         20.1785 
        2.60167         12.6314         2.18526          20.055 
        2.61395         12.6231         2.15999         19.9311 
        2.62624         12.5131         2.13509         19.8084 
        2.63849         12.3833         2.11066         19.7074 
        2.65073         12.2899         2.08664         19.5758 
        2.66302         12.2182         2.06291         19.4693 
         2.6753         12.1597         2.03956         19.3442 
        2.68756         12.0608         2.01662         19.2386 
        2.69983          11.963         1.99402         19.1178 
        2.71213         11.8668         1.97172         18.9917 
        2.72441         11.8249         1.94979         18.8911 
        2.73665         11.7508         1.92826         18.7801 
         2.7489         11.6903         1.90706          18.663 
        2.76118         11.5666         1.88611         18.5605 
        2.77349         11.5067         1.86543         18.4516 
        2.78576         11.4139         1.84515         18.3516 
        2.79802         11.3788         1.82517         18.2374 
        2.81031         11.3066         1.80544         18.1282 
        2.82259         11.2613         1.78601         18.0306 
        2.83483         11.1942         1.76694         17.9293 
         2.8471         11.1303         1.74812         17.8198 
         2.8594         11.0953         1.72951         17.7116 
         2.8717         11.0346         1.71118         17.6162 
        2.88396          10.963         1.69318          17.515 
        2.89619         10.9278         1.67547         17.4126 
        2.90847         10.8816         1.65795          17.322 
        2.92072         10.8463         1.64071         17.2076 
        2.93299         10.7609         1.62371         17.1199 
        2.94526         10.7484         1.60693         17.0297 
        2.95753         10.7007         1.59039          16.927 
        2.96982         10.6561         1.57406         16.8304 
        2.98209         10.6506         1.55799         16.7365 
        2.99436         10.6267         1.54213         16.6369 
        3.00666         10.5952         1.52647         16.5451 
        3.01894         10.5716         1.51105         16.4664 
        3.03119         10.5338         1.49587          16.369 
        3.04345           10.47          1.4809         16.2653 
        3.05573         10.4949          1.4661         16.1792 
          3.068         10.4745         1.45152         16.0978 
        3.08026         10.4516         1.43715         15.9953 
        3.09254         10.4549         1.42295         15.9147 
        3.10483         10.4459         1.40894         15.8368 
         3.1171         10.4678         1.39514         15.7441 
        3.12933         10.4417         1.38156         15.6557 
        3.14159         10.4074         1.36813         15.5664 
