# k  (h/Mpc)    Pcb(k)  (Mpc/h)^3    Pcb_linear(k) (Mpc/h)^3    Pcb_NL(k) (Mpc/h)^3   ShotnoiseSubtracted = false
      0.0156606         5037.74         5044.31         5017.72 
      0.0273761         4366.09         4363.91         4347.75 
      0.0384619         3317.42         3288.59         3280.02 
      0.0498308         2592.98         2587.08         2580.35 
      0.0625568         2187.84          2198.9         2191.26 
      0.0751274         1906.51         1868.31         1855.94 
      0.0867833         1503.86         1504.25            1502 
      0.0984825         1228.74         1190.45         1197.22 
       0.111151         1032.42         994.022         1000.81 
       0.123864         927.539         895.826         901.415 
       0.135742         835.117         805.578         811.291 
        0.14762         711.535         688.815         702.307 
       0.160083         590.778          574.17         589.488 
       0.172465         523.122         501.143         519.812 
       0.184281         484.612         461.996         481.799 
       0.196406         442.165         426.653         442.261 
       0.209011         401.251         379.613         396.981 
       0.221538         358.686         331.747         356.025 
       0.233611         326.061         296.828          323.92 
       0.245665         306.061         273.961         298.138 
       0.258103         278.158         255.035         279.119 
       0.270422         259.887         234.348         257.993 
       0.282519         236.342         212.684         237.659 
       0.294636         229.326         193.779          220.13 
       0.306978         202.364         179.278         206.619 
       0.319417         193.639         167.615          193.95 
        0.33169         180.501         156.451         181.892 
       0.343948         172.157         144.961         171.294 
       0.356249         159.127         134.185         162.265 
       0.368458         152.813          125.16         151.688 
        0.38068         144.293         117.612         143.845 
       0.392856         134.547         110.722         137.095 
       0.405069         127.931         103.985         130.155 
       0.417459         121.171         97.4614         123.188 
       0.429752          116.38         91.6057         117.526 
       0.441978         111.386         86.4661         113.067 
       0.454294         103.613          81.799         107.149 
        0.46658         103.599         77.4199         102.893 
       0.478753         96.6195         73.2888         98.7897 
       0.490964         93.6491         69.4083         94.8661 
       0.503334         89.6072         65.8265         91.0504 
       0.515665         86.2007         62.5604         88.3924 
       0.527909         82.9386         59.5453         83.9607 
       0.540159         79.9799         56.6928         81.2384 
        0.55248         75.8404         53.9861         78.1427 
       0.564743         74.2894         51.4798         75.7588 
        0.57686         71.9824         49.1764         73.1462 
       0.589077         68.3147          47.002         71.0517 
       0.601441         66.4794         44.9344         68.8123 
        0.61382         64.6233          42.985         66.3773 
       0.626067         61.9371         41.1659         64.5846 
       0.638306         60.0912         39.4528         62.5482 
       0.650632         58.0851         37.8298         60.4103 
       0.662899         56.8879         36.3089         58.6797 
       0.675076         54.5721         34.8835         57.0736 
       0.687267         53.7821         33.5329         55.4734 
       0.699615         51.8662         32.2369         54.2429 
       0.711937         49.8109         31.0117         52.4179 
       0.724148         49.5508         29.8606          51.497 
       0.736433         46.9015         28.7623         49.9804 
       0.748747         46.2925         27.7175         48.7143 
       0.761037           45.01         26.7272         47.5723 
       0.773197         43.9622         25.7955         46.6504 
       0.785376          42.437         24.9071         45.4423 
       0.797761         41.9319         24.0469          44.524 
       0.810096         40.8426         23.2307         43.4336 
       0.822371         39.9075         22.4563         42.3756 
       0.834626         38.8078         21.7187         41.6538 
       0.846916         37.8871         21.0125         40.7012 
       0.859215         36.7393         20.3374         39.8097 
       0.871383         36.2335         19.6988         39.0885 
        0.88363         35.3139         19.0841         38.3878 
       0.895928         34.5079         18.4933         37.4911 
       0.908253         33.8055         17.9266         36.8925 
       0.920535         33.2296         17.3856         36.1326 
       0.932774         32.6525          16.869          35.448 
        0.94508         31.9751         16.3708         34.7241 
       0.957324         31.2798         15.8953         34.1508 
        0.96953         30.6658         15.4403          33.482 
       0.981769         30.0451         15.0019         32.9926 
       0.994071          29.405         14.5786         32.3898 
         1.0064         28.7566          14.171         31.8457 
        1.01868         28.1734         13.7802         31.3497 
        1.03092         27.9504          13.406         30.7887 
         1.0432          27.223         13.0444         30.2058 
        1.05553         26.7057         12.6948         29.9251 
        1.06777         26.0396         12.3605            29.3 
           1.08         25.4914         12.0387         28.8489 
        1.09227          25.168         11.7274         28.4921 
         1.1046         24.8007          11.426         27.9794 
         1.1169         24.3866         11.1357         27.5707 
        1.12915         24.0961          10.857         27.1852 
        1.14142         23.3898         10.5873         26.7659 
        1.15365         23.1784         10.3276         26.3991 
        1.16585         22.8741         10.0773         26.0499 
        1.17807         22.3514         9.83503         25.5843 
        1.19037         22.1626         9.59917         25.3672 
        1.20276         21.8304         9.36947         24.9671 
        1.21504         21.3913         9.14914         24.6888 
        1.22728         20.9823         8.93682         24.3221 
        1.23954         20.7206         8.73076         23.9705 
        1.25184         20.3286         8.53083         23.6919 
        1.26414         20.0847         8.33709         23.3533 
        1.27632         19.8039         8.15112         23.0552 
         1.2886         19.5894         7.96954         22.7935 
        1.30093         19.1185         7.79286         22.5556 
        1.31316          18.914         7.62284          22.236 
        1.32541         18.6886         7.45787         22.0167 
        1.33772         18.3502         7.29688         21.7403 
        1.35005         18.1125         7.14056         21.5083 
        1.36225         17.8678         6.99041         21.2423 
        1.37447         17.5085         6.84431         20.9765 
        1.38676         17.3219         6.70173         20.7688 
        1.39907          17.059         6.56297          20.531 
        1.41133         16.8016         6.42876         20.2916 
        1.42358         16.6012         6.29844         20.0548 
        1.43591         16.3481         6.17084         19.8812 
        1.44818         16.1294         6.04749         19.6701 
        1.46037         16.0356         5.92825         19.4155 
        1.47263         15.7405         5.81157         19.2641 
        1.48494         15.6158         5.69759         19.0135 
        1.49724         15.3985         5.58676          18.856 
        1.50952         15.1658         5.47912          18.679 
        1.52178         14.9768         5.37447          18.455 
        1.53409         14.7067         5.27214         18.2767 
        1.54637         14.6763         5.17269         18.0591 
        1.55858         14.4199         5.07638         17.9085 
        1.57081         14.2057         4.98238         17.7499 
        1.58313         14.0958         4.89019         17.5733 
        1.59544          13.853         4.80038         17.4206 
        1.60767         13.7207         4.71341         17.2321 
        1.61994         13.4778         4.62829         17.0905 
        1.63225         13.4167         4.54511         16.9532 
        1.64452         13.2324          4.4642         16.8051 
        1.65676         13.0627         4.38551         16.6259 
          1.669         12.9548         4.30867         16.4733 
        1.68133         12.7052         4.23318         16.3216 
        1.69363          12.566         4.15973         16.1466 
        1.70585         12.4209         4.08849          16.056 
        1.71809         12.2949         4.01877         15.9053 
        1.73038         12.1589         3.95046          15.784 
        1.74268         12.0474         3.88371          15.626 
        1.75493         11.8344          3.8188         15.4882 
        1.76714         11.8463         3.75554         15.3691 
        1.77942          11.693         3.69339         15.2172 
        1.79173         11.4574          3.6325          15.113 
        1.80402         11.3916          3.5731         14.9953 
         1.8163         11.2632         3.51507         14.8702 
         1.8286         11.1001         3.45823         14.7546 
         1.8409         10.9937         3.40269         14.6361 
        1.85315         10.8852         3.34856         14.5081 
        1.86537         10.7826         3.29572         14.4027 
        1.87765         10.6903         3.24382         14.2883 
        1.88995         10.5001         3.19292         14.1813 
        1.90221         10.4566         3.14328         14.0493 
        1.91445         10.3253         3.09479         13.9643 
        1.92674          10.214         3.04715          13.845 
        1.93902         10.1192         3.00051         13.7614 
        1.95124         9.99043          2.9551         13.6538 
         1.9635         9.89272         2.91051         13.5418 
        1.97583         9.80861         2.86656         13.4222 
        1.98812         9.73165         2.82368          13.323 
        2.00039         9.64715         2.78177         13.2428 
        2.01264         9.54717         2.74075         13.1522 
        2.02492         9.46608          2.7005         13.0397 
        2.03717         9.32106         2.66112         12.9501 
        2.04942         9.22277         2.62258         12.8576 
        2.06171         9.19509         2.58467         12.7693 
        2.07397         9.07976          2.5476         12.6848 
        2.08629          9.0006          2.5111         12.6028 
        2.09857         8.91972          2.4754         12.5048 
        2.11081          8.8407         2.44054         12.4345 
        2.12309           8.724         2.40627         12.3233 
        2.13538         8.64679         2.37261         12.2466 
        2.14763          8.5656          2.3397         12.1667 
        2.15986         8.52834          2.3075         12.0927 
        2.17214         8.44438         2.27577         11.9899 
        2.18443         8.33311         2.24461         11.9231 
        2.19671         8.30935         2.21407         11.8429 
        2.20898         8.18825         2.18414          11.768 
        2.22126         8.09931         2.15472         11.6855 
        2.23354          8.0677         2.12586         11.5999 
         2.2458         7.97163         2.09758          11.538 
        2.25807         7.90617         2.06979         11.4507 
        2.27035         7.84758         2.04248         11.3817 
        2.28263         7.78127         2.01567         11.3041 
         2.2949          7.6914         1.98936         11.2382 
        2.30718         7.63629         1.96351         11.1801 
        2.31946         7.57854          1.9381         11.1041 
        2.33169         7.51255         1.91326         11.0358 
        2.34393         7.45912         1.88881         10.9601 
        2.35622         7.40688         1.86472          10.896 
        2.36847         7.33824         1.84111         10.8257 
        2.38076         7.27827         1.81783         10.7608 
        2.39305         7.18523         1.79497         10.6839 
        2.40534         7.14875          1.7725         10.6151 
        2.41762         7.09864         1.75042         10.5678 
        2.42989         7.05566         1.72875         10.5041 
        2.44216         6.99361         1.70744         10.4323 
         2.4544         6.92994         1.68655         10.3719 
        2.46667         6.91806         1.66595         10.3107 
        2.47897         6.85745         1.64565         10.2392 
        2.49124         6.77594         1.62575         10.1805 
        2.50349         6.74174          1.6062         10.1305 
        2.51578         6.68531         1.58692         10.0739 
        2.52805         6.64853         1.56798         10.0151 
        2.54029         6.58373         1.54941         9.95796 
        2.55257         6.57056         1.53107          9.8988 
        2.56487         6.49513         1.51301         9.83175 
        2.57716         6.45625         1.49525         9.78358 
        2.58942         6.43418         1.47782         9.72908 
        2.60167         6.38438         1.46069         9.67051 
        2.61395          6.3257          1.4438         9.61832 
        2.62624         6.30269         1.42716         9.56272 
        2.63849         6.28029         1.41083         9.51099 
        2.65073         6.22529         1.39477         9.45128 
        2.66302         6.18492         1.37891         9.39593 
         2.6753         6.14719          1.3633         9.34467 
        2.68756         6.11816         1.34797         9.30164 
        2.69983         6.07604         1.33286         9.24046 
        2.71213         6.04017         1.31795         9.18923 
        2.72441         6.00134          1.3033         9.14137 
        2.73665         5.98985          1.2889         9.08644 
         2.7489         5.96601         1.27473         9.03921 
        2.76118         5.90897         1.26073         8.99874 
        2.77349         5.88595         1.24691         8.94375 
        2.78576         5.86981         1.23335         8.89631 
        2.79802         5.82644            1.22         8.84834 
        2.81031         5.81001         1.20681         8.80449 
        2.82259         5.77179         1.19382         8.75731 
        2.83483         5.75516         1.18108         8.70814 
         2.8471         5.73972         1.16849         8.66627 
         2.8594         5.73269         1.15605         8.62153 
         2.8717         5.68601          1.1438         8.56864 
        2.88396         5.66475         1.13177         8.52641 
        2.89619          5.6301         1.11993         8.48805 
        2.90847         5.62866         1.10822         8.43695 
        2.92072         5.63077          1.0967         8.39201 
        2.93299         5.61685         1.08533          8.3551 
        2.94526         5.59564         1.07412         8.30805 
        2.95753         5.57719         1.06306         8.26297 
        2.96982         5.55559         1.05215         8.22329 
        2.98209         5.54895         1.04141         8.17555 
        2.99436         5.54394         1.03081         8.13531 
        3.00666         5.55189         1.02034         8.09839 
        3.01894         5.52027         1.01003         8.05197 
        3.03119         5.52555        0.999883          8.0122 
        3.04345         5.52201        0.989875         7.97308 
        3.05573         5.51181        0.979982         7.92975 
          3.068         5.50759        0.970236         7.89348 
        3.08026         5.53276        0.960632         7.85591 
        3.09254         5.52361        0.951141         7.81393 
        3.10483         5.51176        0.941776         7.77761 
         3.1171         5.52384         0.93255         7.74156 
        3.12933         5.52941        0.923472         7.69852 
        3.14159         5.51635        0.914496         7.66129 
