# k  (h/Mpc)    Pcb(k)  (Mpc/h)^3    Pcb_linear(k) (Mpc/h)^3    Pcb_NL(k) (Mpc/h)^3   ShotnoiseSubtracted = false
      0.0156606         2788.12         2790.14         2776.37 
      0.0273761         2422.23         2414.34         2407.57 
      0.0384619         1840.65          1819.6         1817.27 
      0.0498308         1442.66         1431.52         1430.31 
      0.0625568         1217.21         1216.77         1214.59 
      0.0751274         1053.59         1033.86         1029.82 
      0.0867833         835.633         832.406         831.883 
      0.0984825         677.421         658.764         661.375 
       0.111151         567.493          550.07         552.606 
       0.123864          509.77         495.733          497.65 
       0.135742          458.06         445.793         447.691 
        0.14762         389.254         381.179         385.693 
       0.160083         323.225         317.737         322.888 
       0.172465         284.871         277.325         283.508 
       0.184281          264.09         255.662         262.227 
       0.196406         240.868         236.104         241.153 
       0.209011         217.117         210.073         215.806 
       0.221538          192.87         183.585         191.608 
       0.233611         173.872         164.261         173.175 
       0.245665         163.287         151.607         159.533 
       0.258103         147.206         141.133         149.026 
       0.270422         138.179         129.685         137.348 
       0.282519         125.379         117.697         125.881 
       0.294636         119.542         107.235         115.866 
       0.306978         105.768         99.2106          108.13 
       0.319417         100.918         92.7563         101.382 
        0.33169         93.8143         86.5781         94.9132 
       0.343948         89.0503         80.2197         88.6954 
       0.356249         81.7271         74.2566         83.5376 
       0.368458         77.9816         69.2621         77.8206 
        0.38068         73.1139         65.0852         73.5724 
       0.392856         68.3388         61.2724         69.8329 
       0.405069         64.6627         57.5441         65.8566 
       0.417459         60.5399         53.9342         62.3069 
       0.429752         57.9751         50.6937         59.0718 
       0.441978         55.2026         47.8495         56.5409 
       0.454294         51.3642         45.2668         53.5098 
        0.46658         50.9111         42.8435         51.0477 
       0.478753         47.3444         40.5573         48.7833 
       0.490964         45.7308         38.4099         46.7686 
       0.503334         43.8125         36.4278         44.5532 
       0.515665         41.6188         34.6204         43.0422 
       0.527909         39.8243         32.9518         40.7814 
       0.540159         38.1667         31.3733         39.2112 
        0.55248         35.6889         29.8754          37.554 
       0.564743         35.1994         28.4885         36.3056 
        0.57686         34.0134         27.2138         34.9136 
       0.589077         32.0321         26.0105         33.7748 
       0.601441          30.907         24.8663         32.5388 
        0.61382         29.8297         23.7875         31.2471 
       0.626067         28.6253         22.7808         30.2733 
       0.638306          27.676         21.8328         29.1592 
       0.650632         26.9063         20.9347         28.2242 
       0.662899         25.7615          20.093         27.2392 
       0.675076         24.5853         19.3042         26.3641 
       0.687267         24.2207         18.5568         25.4992 
       0.699615          23.388         17.8396         24.7817 
       0.711937         22.2083         17.1616         23.9694 
       0.724148         22.0862         16.5246         23.3516 
       0.736433         20.8037         15.9168         22.6021 
       0.748747         20.4257         15.3386         21.9775 
       0.761037         19.9125         14.7906         21.3964 
       0.773197         19.2161          14.275         20.8377 
       0.785376         18.4871         13.7834         20.2706 
       0.797761         18.0802         13.3073          19.723 
       0.810096         17.6585         12.8557         19.2446 
       0.822371         17.1694         12.4271         18.6784 
       0.834626         16.6255         12.0189         18.2722 
       0.846916         16.1157         11.6281         17.7948 
       0.859215         15.5311         11.2545         17.3741 
       0.871383         15.2446         10.9012         16.9995 
        0.88363         14.8442         10.5609         16.5876 
       0.895928         14.5527          10.234         16.1619 
       0.908253         14.1746         9.92041         15.8299 
       0.920535         13.7495         9.62105          15.452 
       0.932774         13.5312         9.33514         15.0596 
        0.94508         13.0845         9.05947         14.7749 
       0.957324          12.841         8.79633         14.4839 
        0.96953         12.3923          8.5445         14.1548 
       0.981769         12.2865         8.30194         13.8617 
       0.994071         11.9482         8.06769         13.5674 
         1.0064         11.5746         7.84211         13.3055 
        1.01868         11.3527         7.62586          13.046 
        1.03092         11.1715         7.41876         12.7702 
         1.0432         10.7649         7.21865         12.5136 
        1.05553         10.5952         7.02517          12.318 
        1.06777         10.2852         6.84021         12.0513 
           1.08         10.1022         6.66213          11.837 
        1.09227         9.89778         6.48985         11.6215 
         1.1046         9.71489         6.32303          11.386 
         1.1169         9.41407          6.1624         11.1816 
        1.12915         9.38971         6.00817          11.028 
        1.14142         9.02662         5.85891         10.8039 
        1.15365          8.9266         5.71519         10.6144 
        1.16585         8.81121         5.57668         10.4608 
        1.17807         8.54978         5.44262         10.2505 
        1.19037         8.40397          5.3121         10.0933 
        1.20276         8.20247         5.18498          9.9155 
        1.21504         8.08672         5.06305         9.77201 
        1.22728         7.87806         4.94556         9.59649 
        1.23954         7.75936         4.83153         9.46643 
        1.25184         7.59656         4.72089         9.31021 
        1.26414         7.50011         4.61367          9.1478 
        1.27632         7.29042         4.51076         9.01782 
         1.2886         7.20667         4.41027         8.88385 
        1.30093         7.06137          4.3125         8.77863 
        1.31316         6.90601         4.21841         8.62627 
        1.32541         6.80443         4.12712          8.5227 
        1.33772         6.67293         4.03803         8.37661 
        1.35005         6.58753         3.95152         8.26885 
        1.36225         6.45464         3.86843          8.1353 
        1.37447         6.34207         3.78758           8.038 
        1.38676         6.22431         3.70868         7.92994 
        1.39907         6.11006         3.63189         7.82022 
        1.41133         6.02259         3.55762         7.71251 
        1.42358         5.90142          3.4855         7.60356 
        1.43591         5.83797         3.41489         7.51926 
        1.44818         5.69607         3.34663         7.41595 
        1.46037         5.60322         3.28064         7.31511 
        1.47263           5.523         3.21607         7.23055 
        1.48494         5.46317         3.15299         7.12888 
        1.49724         5.35657         3.09166         7.04417 
        1.50952         5.32708          3.0321         6.96031 
        1.52178         5.20282         2.97418         6.87299 
        1.53409          5.1031         2.91756         6.77961 
        1.54637         5.04513         2.86252         6.69839 
        1.55858         4.98023         2.80922          6.6136 
        1.57081         4.87249         2.75721         6.55359 
        1.58313         4.81825         2.70619         6.46886 
        1.59544         4.72792         2.65649         6.40167 
        1.60767         4.67781         2.60836         6.31918 
        1.61994          4.6013         2.56126         6.25815 
        1.63225         4.52245         2.51522         6.18358 
        1.64452         4.44723         2.47045         6.11146 
        1.65676         4.38526          2.4269         6.04669 
          1.669         4.34752         2.38438         5.98082 
        1.68133         4.23787         2.34261         5.91496 
        1.69363         4.21688         2.30196         5.85888 
        1.70585         4.15235         2.26253         5.78788 
        1.71809         4.10677         2.22395         5.73343 
        1.73038         4.04843         2.18615         5.67013 
        1.74268         3.98285         2.14921         5.61348 
        1.75493         3.93106         2.11329          5.5507 
        1.76714         3.90022         2.07828         5.49518 
        1.77942         3.83516         2.04389         5.43893 
        1.79173         3.78298         2.01019         5.37994 
        1.80402         3.73651         1.97732         5.32964 
         1.8163         3.70469         1.94521          5.2835 
         1.8286         3.64199         1.91375         5.23412 
         1.8409         3.58364         1.88302         5.18501 
        1.85315         3.54693         1.85306         5.12283 
        1.86537         3.51656         1.82382         5.08295 
        1.87765         3.45459          1.7951         5.02989 
        1.88995         3.40794         1.76693         4.98789 
        1.90221         3.36865         1.73947         4.93779 
        1.91445         3.33267         1.71263         4.90377 
        1.92674         3.30712         1.68627         4.84672 
        1.93902         3.24925         1.66046         4.80014 
        1.95124         3.20946         1.63532         4.75974 
         1.9635         3.19002         1.61065         4.72034 
        1.97583         3.13499         1.58633         4.67955 
        1.98812         3.09444          1.5626          4.6347 
        2.00039         3.06323         1.53941         4.59508 
        2.01264         3.02488         1.51671         4.56225 
        2.02492         2.99469         1.49443         4.52077 
        2.03717         2.95648         1.47264         4.47913 
        2.04942         2.91872         1.45131         4.44319 
        2.06171         2.88513         1.43033         4.40301 
        2.07397         2.85933         1.40982          4.3665 
        2.08629         2.83244         1.38962         4.33544 
        2.09857         2.79786         1.36986         4.29664 
        2.11081          2.7606         1.35057         4.26219 
        2.12309         2.73943         1.33161         4.22715 
        2.13538         2.70437         1.31298         4.19672 
        2.14763         2.68718         1.29477         4.16026 
        2.15986         2.65975         1.27695         4.13065 
        2.17214         2.61619         1.25939         4.09068 
        2.18443           2.604         1.24215         4.06046 
        2.19671         2.56686         1.22525         4.02979 
        2.20898         2.54385         1.20868         4.00171 
        2.22126         2.52354         1.19241         3.97063 
        2.23354         2.49136         1.17643         3.93905 
         2.2458         2.47871         1.16078         3.90499 
        2.25807         2.44482          1.1454         3.88001 
        2.27035         2.41872         1.13029         3.85339 
        2.28263         2.39367         1.11545         3.82361 
         2.2949         2.37814         1.10089         3.79734 
        2.30718         2.35333         1.08659         3.77235 
        2.31946         2.32783         1.07253         3.74427 
        2.33169         2.30839         1.05878         3.71555 
        2.34393         2.29679         1.04525         3.68906 
        2.35622         2.27106         1.03192         3.66223 
        2.36847         2.24516         1.01885         3.63516 
        2.38076         2.22836         1.00597         3.60888 
        2.39305         2.20469        0.993322         3.58159 
        2.40534         2.18603        0.980887         3.56001 
        2.41762         2.16062        0.968666         3.53833 
        2.42989         2.14841        0.956673         3.51126 
        2.44216         2.13441        0.944883          3.4893 
         2.4544         2.11279         0.93332         3.46678 
        2.46667         2.09548        0.921923         3.44315 
        2.47897         2.07938         0.91069         3.41899 
        2.49124         2.05806        0.899674           3.397 
        2.50349         2.04598        0.888858         3.37403 
        2.51578         2.02456        0.878186         3.34897 
        2.52805          2.0066        0.867709         3.32874 
        2.54029         1.99706        0.857428         3.30736 
        2.55257         1.97829        0.847283         3.28617 
        2.56487          1.9643        0.837284         3.26419 
        2.57716          1.9569        0.827459         3.24347 
        2.58942         1.93589        0.817814         3.22334 
        2.60167         1.92357        0.808333         3.20149 
        2.61395         1.90031        0.798987         3.18423 
        2.62624         1.89643        0.789776         3.16394 
        2.63849         1.88216         0.78074         3.14226 
        2.65073         1.86612        0.771855         3.12304 
        2.66302         1.85257        0.763076         3.10513 
         2.6753         1.85187         0.75444         3.08606 
        2.68756         1.82811        0.745954         3.06763 
        2.69983         1.81696        0.737594         3.04759 
        2.71213         1.81091        0.729343         3.02955 
        2.72441         1.79829        0.721234         3.01163 
        2.73665         1.78355        0.713268          2.9953 
         2.7489         1.77291        0.705426         2.97948 
        2.76118         1.76352        0.697679         2.96158 
        2.77349         1.76042        0.690029         2.94372 
        2.78576         1.75007        0.682524         2.92598 
        2.79802         1.74173        0.675135         2.90895 
        2.81031         1.72583        0.667838          2.8913 
        2.82259         1.71889        0.660651         2.87434 
        2.83483         1.71452        0.653598         2.85925 
         2.8471         1.70532        0.646634         2.84287 
         2.8594         1.69623         0.63975         2.82749 
         2.8717         1.68884        0.632969         2.81168 
        2.88396         1.68557        0.626311         2.79501 
        2.89619         1.67174        0.619761         2.77912 
        2.90847          1.6683         0.61328         2.76266 
        2.92072         1.66308        0.606903         2.74874 
        2.93299         1.66192        0.600613         2.73377 
        2.94526         1.65461        0.594407         2.71934 
        2.95753         1.64569         0.58829         2.70438 
        2.96982           1.644        0.582249         2.68926 
        2.98209         1.64345        0.576305         2.67586 
        2.99436         1.63619        0.570439         2.66154 
        3.00666         1.63928        0.564645          2.6476 
        3.01894         1.63205        0.558942         2.63193 
        3.03119         1.63235        0.553327         2.61825 
        3.04345         1.62917        0.547788         2.60588 
        3.05573         1.62738        0.542314         2.59266 
          3.068         1.62795         0.53692         2.57902 
        3.08026          1.6242        0.531606         2.56436 
        3.09254         1.62881        0.526353         2.55069 
        3.10483         1.62898         0.52117         2.53853 
         3.1171         1.62885        0.516065         2.52604 
        3.12933         1.62977        0.511041         2.51233 
        3.14159         1.62992        0.506074         2.49879 
