# k  (h/Mpc)    Pcb(k)  (Mpc/h)^3    Pcb_linear(k) (Mpc/h)^3    Pcb_NL(k) (Mpc/h)^3   ShotnoiseSubtracted = false
      0.0156606         3531.04         3534.25         3516.44 
      0.0273761         3064.97         3057.95         3048.53 
      0.0384619         2329.07         2304.57         2300.68 
      0.0498308         1823.66         1813.02         1810.52 
      0.0625568         1538.65         1541.02         1537.48 
      0.0751274         1335.15         1309.35         1303.17 
      0.0867833          1056.8         1054.21          1053.3 
      0.0984825          859.14         834.299         838.088 
       0.111151         720.441          696.64         700.363 
       0.123864         647.218         627.823         630.752 
       0.135742         581.961         564.576         567.523 
        0.14762         494.879         482.744         489.678 
       0.160083         410.844         402.398         410.273 
       0.172465         362.737         351.219         360.722 
       0.184281         336.266         323.783         333.885 
       0.196406          306.65         299.014         306.849 
       0.209011         277.064         266.047         274.882 
       0.221538         246.703         232.501         244.854 
       0.233611         222.996         208.028         221.772 
       0.245665         209.523         192.002          204.24 
       0.258103         189.205         178.738         190.928 
       0.270422         177.467          164.24          176.12 
       0.282519         161.115         149.057         161.691 
       0.294636         154.642         135.808         149.136 
       0.306978         136.584         125.645         139.439 
       0.319417         130.481         117.471         130.793 
        0.33169          121.38         109.646         122.522 
       0.343948         115.483         101.594         114.766 
       0.356249         106.232          94.042         108.325 
       0.368458          101.62         87.7167         101.007 
        0.38068         95.5166         82.4268         95.5923 
       0.392856         89.1624         77.5981         90.8658 
       0.405069         84.4801         72.8765         85.8556 
       0.417459         79.4767         68.3047         81.2587 
       0.429752         76.2057         64.2008         77.2006 
       0.441978         72.6713         60.5988         74.0325 
       0.454294         67.5968         57.3279         70.0848 
        0.46658         67.2784         54.2589         67.0032 
       0.478753         62.5729         51.3636         64.1443 
       0.490964         60.5378          48.644         61.5374 
       0.503334         58.0268         46.1338         58.7604 
       0.515665          55.356         43.8448         56.8775 
       0.527909         53.0326         41.7317         53.9042 
       0.540159         50.9763         39.7325         51.9499 
        0.55248         47.8114         37.8356         49.8308 
       0.564743         47.0909         36.0791         48.2144 
        0.57686         45.5824         34.4647         46.4424 
       0.589077         43.0348         32.9408         44.9872 
       0.601441          41.655         31.4918         43.4155 
        0.61382         40.2835         30.1256         41.7506 
       0.626067         38.6468         28.8506         40.5275 
       0.638306         37.4369         27.6501         39.0919 
       0.650632         36.3362         26.5126         37.8251 
       0.662899         35.0368         25.4467         36.5765 
       0.675076         33.4851         24.4477         35.4597 
       0.687267         33.0658         23.5012         34.3606 
       0.699615         31.8917         22.5929         33.4724 
       0.711937         30.3856         21.7342         32.3499 
       0.724148         30.2464         20.9275         31.6123 
       0.736433         28.5034         20.1577         30.6344 
       0.748747         28.0833         19.4255          29.802 
       0.761037         27.3366         18.7315         29.0649 
       0.773197          26.529         18.0785         28.3521 
       0.785376         25.5081         17.4559         27.6092 
       0.797761         25.0533          16.853         26.9309 
       0.810096          24.488          16.281         26.2685 
       0.822371         23.8309         15.7383         25.5404 
       0.834626         23.1047         15.2213         25.0387 
       0.846916         22.4535         14.7264          24.402 
       0.859215         21.6752         14.2532         23.8453 
       0.871383         21.3297         13.8057         23.3656 
        0.88363         20.7793         13.3749         22.8484 
       0.895928         20.3528         12.9608         22.2735 
       0.908253         19.8877         12.5636          21.864 
       0.920535         19.3601         12.1845          21.366 
       0.932774          19.055         11.8224         20.8704 
        0.94508         18.5014         11.4733         20.4668 
       0.957324         18.1599         11.1401           20.08 
        0.96953         17.5864         10.8211         19.6478 
       0.981769         17.4271         10.5139         19.2935 
       0.994071         16.9368         10.2173         18.8903 
         1.0064         16.4832          9.9316         18.5508 
        1.01868          16.163         9.65772         18.2176 
        1.03092          15.979         9.39545         17.8537 
         1.0432         15.4281         9.14202         17.5026 
        1.05553         15.1847         8.89699         17.2697 
        1.06777         14.7461         8.66275         16.8878 
           1.08         14.4812         8.43722         16.6149 
        1.09227          14.215         8.21903         16.3493 
         1.1046         13.9927         8.00777         16.0289 
         1.1169         13.6297         7.80434         15.7552 
        1.12915         13.5644         7.60901         15.5436 
        1.14142         13.0562         7.41998         15.2564 
        1.15365         12.9599         7.23797         15.0071 
        1.16585         12.8003         7.06256         14.8025 
        1.17807         12.4194         6.89277         14.5155 
        1.19037         12.2595         6.72748         14.3295 
        1.20276         12.0033         6.56649         14.0884 
        1.21504         11.8339         6.41208         13.8976 
        1.22728         11.5376         6.26328          13.667 
        1.23954         11.3786         6.11886         13.4801 
        1.25184         11.1621         5.97874         13.2836 
        1.26414         11.0113         5.84296         13.0658 
        1.27632         10.7553         5.71263         12.8835 
         1.2886         10.6436         5.58536         12.7126 
        1.30093         10.4183         5.46154         12.5776 
        1.31316         10.2492         5.34238         12.3646 
        1.32541         10.0953         5.22677         12.2346 
        1.33772         9.90234         5.11394         12.0399 
        1.35005         9.78958         5.00438         11.8959 
        1.36225         9.60644         4.89915         11.7177 
        1.37447         9.44657         4.79676         11.5794 
        1.38676         9.29751         4.69683         11.4409 
        1.39907         9.13491         4.59959          11.287 
        1.41133         9.00879         4.50553         11.1486 
        1.42358         8.83839         4.41419         10.9972 
        1.43591         8.74399         4.32477         10.8883 
        1.44818         8.56267         4.23832          10.751 
        1.46037         8.46656         4.15475         10.6073 
        1.47263         8.32593         4.07297         10.5021 
        1.48494         8.25114         3.99309         10.3515 
        1.49724         8.08922         3.91542         10.2508 
        1.50952         8.04921         3.83998          10.136 
        1.52178         7.88073         3.76664         10.0105 
        1.53409         7.73888         3.69492         9.89239 
        1.54637         7.67628         3.62523         9.76945 
        1.55858         7.59024         3.55772         9.67003 
        1.57081         7.41139         3.49185         9.58018 
        1.58313         7.36349         3.42724         9.47027 
        1.59544         7.21196          3.3643         9.37697 
        1.60767         7.13955         3.30334         9.26462 
        1.61994         7.03656         3.24369         9.18109 
        1.63225         6.94424         3.18539         9.08295 
        1.64452         6.83544         3.12868         8.98858 
        1.65676         6.74503         3.07354         8.89582 
          1.669         6.69608         3.01968         8.80175 
        1.68133         6.54756         2.96678         8.71027 
        1.69363         6.48671          2.9153         8.63464 
        1.70585         6.39998         2.86537         8.54361 
        1.71809         6.32722         2.81651         8.46486 
        1.73038         6.26646         2.76864         8.38509 
        1.74268         6.17675         2.72185         8.30515 
        1.75493         6.08298         2.67636         8.21106 
        1.76714         6.06037         2.63203         8.14643 
        1.77942         5.96284         2.58848         8.05998 
        1.79173         5.87721          2.5458         7.98489 
        1.80402         5.82995         2.50417         7.91403 
         1.8163         5.76414          2.4635          7.8509 
         1.8286          5.6708         2.42366         7.77946 
         1.8409         5.60155         2.38474         7.71526 
        1.85315         5.53787          2.3468         7.63319 
        1.86537         5.49882         2.30977         7.57176 
        1.87765         5.42125          2.2734         7.50104 
        1.88995         5.33209         2.23772         7.44266 
        1.90221          5.2959         2.20294         7.36998 
        1.91445          5.2264         2.16895         7.32395 
        1.92674         5.18591         2.13556         7.24611 
        1.93902         5.12571         2.10287         7.18943 
        1.95124         5.06147         2.07105          7.1206 
         1.9635         5.01856          2.0398         7.07403 
        1.97583         4.96515           2.009         7.01229 
        1.98812         4.90101         1.97895         6.94463 
        2.00039         4.84693         1.94957         6.90126 
        2.01264         4.80374         1.92082          6.8472 
        2.02492         4.75708         1.89261         6.78823 
        2.03717         4.69996         1.86502         6.73366 
        2.04942         4.63187         1.83801         6.68703 
        2.06171         4.60015         1.81144         6.63176 
        2.07397         4.55796         1.78546         6.57902 
        2.08629         4.50965         1.75987         6.53209 
        2.09857         4.45702         1.73486         6.47991 
        2.11081         4.41687         1.71043         6.43636 
        2.12309         4.36849         1.68641         6.37811 
        2.13538         4.32656         1.66282         6.34002 
        2.14763         4.28626         1.63976         6.29003 
        2.15986         4.25382         1.61719         6.24467 
        2.17214         4.20494         1.59495         6.19126 
        2.18443         4.17104         1.57311          6.1495 
        2.19671         4.11906         1.55171         6.10587 
        2.20898         4.08272         1.53073         6.06497 
        2.22126         4.05125         1.51012         6.01846 
        2.23354         4.00788         1.48989         5.97223 
         2.2458         3.97784         1.47007         5.92771 
        2.25807         3.94051         1.45059         5.89201 
        2.27035          3.9025         1.43145         5.85392 
        2.28263         3.86976         1.41266         5.81083 
         2.2949         3.83611         1.39422         5.77538 
        2.30718         3.80198          1.3761         5.74283 
        2.31946         3.77643          1.3583         5.70219 
        2.33169         3.73526         1.34089         5.65833 
        2.34393         3.71866         1.32375         5.62114 
        2.35622          3.6889         1.30687         5.58147 
        2.36847         3.64888         1.29032         5.54531 
        2.38076         3.62854         1.27401         5.50733 
        2.39305         3.58448         1.25799         5.46838 
        2.40534         3.56126         1.24224         5.43466 
        2.41762         3.51827         1.22676          5.4059 
        2.42989         3.50734         1.21157         5.36832 
        2.44216         3.48745         1.19664         5.33639 
         2.4544         3.44644           1.182         5.30028 
        2.46667         3.42968         1.16756         5.26781 
        2.47897         3.39494         1.15334         5.23382 
        2.49124         3.36554         1.13939         5.20075 
        2.50349          3.3526         1.12569         5.17247 
        2.51578         3.31263         1.11217         5.13741 
        2.52805         3.29801         1.09891         5.10591 
        2.54029         3.27606         1.08589         5.07555 
        2.55257         3.25949         1.07304         5.04691 
        2.56487         3.22968         1.06037         5.01144 
        2.57716         3.22099         1.04793          4.9822 
        2.58942         3.18351         1.03572         4.95389 
        2.60167          3.1673         1.02371         4.92234 
        2.61395         3.13607         1.01187         4.89564 
        2.62624         3.13721         1.00021         4.86888 
        2.63849         3.10507        0.988764         4.83626 
        2.65073         3.08474        0.977511         4.80747 
        2.66302         3.07048        0.966394         4.78082 
         2.6753          3.0558        0.955456         4.75335 
        2.68756         3.02678         0.94471         4.72789 
        2.69983         3.01434        0.934121         4.69754 
        2.71213         3.00539        0.923673         4.67076 
        2.72441         2.98701        0.913403         4.64531 
        2.73665         2.96988        0.903315         4.61852 
         2.7489         2.94686        0.893383         4.59588 
        2.76118         2.93195        0.883571          4.5747 
        2.77349         2.92971        0.873884          4.5446 
        2.78576         2.91257        0.864379          4.5189 
        2.79802         2.90479        0.855021         4.49617 
        2.81031         2.88401         0.84578         4.47034 
        2.82259         2.87045        0.836678         4.44556 
        2.83483         2.86866        0.827745         4.42251 
         2.8471         2.85159        0.818926         4.39862 
         2.8594          2.8445        0.810208         4.37696 
         2.8717         2.83033         0.80162         4.35124 
        2.88396         2.82408        0.793188         4.32664 
        2.89619         2.79959        0.784893         4.30572 
        2.90847         2.79888        0.776685         4.27955 
        2.92072         2.79845        0.768609         4.25906 
        2.93299         2.78968        0.760643         4.23701 
        2.94526         2.78992        0.752783         4.21543 
        2.95753         2.77034        0.745037         4.19368 
        2.96982         2.75968        0.737386         4.17169 
        2.98209         2.76433        0.729858          4.1512 
        2.99436         2.75404        0.722429         4.12948 
        3.00666         2.76097        0.715091          4.1092 
        3.01894         2.75171         0.70787         4.08476 
        3.03119         2.75408        0.700758         4.06498 
        3.04345         2.74626        0.693743         4.04702 
        3.05573         2.74817         0.68681         4.02645 
          3.068         2.74591         0.67998         4.00689 
        3.08026         2.75348        0.673249         3.98621 
        3.09254         2.75001        0.666597         3.96522 
        3.10483         2.75393        0.660033         3.94666 
         3.1171         2.75517        0.653567          3.9286 
        3.12933         2.76302        0.647206         3.90789 
        3.14159         2.75791        0.640915         3.88649 
