# k  (h/Mpc)    P(k)  (Mpc/h)^3    P_linear(k)  (Mpc/h)^3     P_NL(k)  ShotnoiseSubtracted = false
      0.0156606           23993         24138.5         23938.8 
      0.0273761         20504.6         20833.6         20585.8 
      0.0384619         15475.5         15680.7         15457.8 
      0.0498308         11928.5         12326.4         12101.2 
      0.0625568         10075.2         10471.3         10272.5 
      0.0751274         8984.98         8893.98         8615.94 
      0.0867833         6948.58          7159.3         7072.24 
      0.0984825          5892.4          5664.9         5738.66 
       0.111151         5050.99         4729.56         4824.47 
       0.123864         4521.63         4261.93         4338.36 
       0.135742         4130.08          3832.3         3908.57 
        0.14762         3602.15         3276.65         3477.19 
       0.160083         3074.88         2731.16         2980.54 
       0.172465         2741.93          2383.7         2701.71 
       0.184281         2477.15         2197.43         2514.65 
       0.196406         2350.55         2029.28         2319.96 
       0.209011         2205.94          1805.5         2105.73 
       0.221538         1983.08         1577.81         1972.32 
       0.233611         1910.31         1411.71         1853.31 
       0.245665         1728.67         1302.94          1714.2 
       0.258103            1722         1212.91         1620.34 
       0.270422         1535.41         1114.51         1525.14 
       0.282519         1456.41         1011.47         1449.23 
       0.294636         1423.85         921.557         1375.39 
       0.306978         1307.77          852.59         1320.54 
       0.319417         1287.17         797.118         1245.94 
        0.33169         1207.94          744.02         1182.38 
       0.343948         1163.31         689.374         1147.39 
       0.356249          1106.4         638.127         1106.68 
       0.368458         1057.87         595.203         1060.99 
        0.38068         1045.99          559.31         1022.64 
       0.392856         995.647         526.542         989.065 
       0.405069         941.567           494.5         955.982 
       0.417459         905.488         463.478         926.157 
       0.429752         906.564          435.63         894.335 
       0.441978         874.588         411.187         872.793 
       0.454294         837.767         388.992         838.604 
        0.46658         814.381         368.166         822.252 
       0.478753          800.66         348.519          798.65 
       0.490964         770.716         330.064         775.016 
       0.503334         738.939         313.032          759.11 
       0.515665           735.3           297.5         741.681 
       0.527909         703.888         283.162         727.738 
       0.540159         688.275         269.596         710.653 
        0.55248         673.679         256.724          692.87 
       0.564743         667.085         244.806          681.23 
        0.57686         647.406         233.852          663.98 
       0.589077         639.128         223.512         650.076 
       0.601441         621.038          213.68         638.129 
        0.61382         602.841         204.409         626.775 
       0.626067          597.17         195.758         616.004 
       0.638306         575.716         187.612         603.436 
       0.650632         570.203         179.894         590.407 
       0.662899         565.475         172.661         582.907 
       0.675076         549.299         165.883         575.777 
       0.687267         532.775          159.46         562.658 
       0.699615         532.878         153.297         553.767 
       0.711937         519.392         147.471          543.21 
       0.724148         503.529         141.997         536.579 
       0.736433         492.155         136.774         527.457 
       0.748747         485.843         131.806         518.473 
       0.761037         477.457         127.096         512.578 
       0.773197         468.712         122.666         503.718 
       0.785376         464.092         118.441         496.712 
       0.797761         450.214         114.351         490.132 
       0.810096         442.998         110.469         483.664 
       0.822371         433.106         106.787         476.048 
       0.834626         427.935         103.279         470.893 
       0.846916          422.83         99.9207         463.584 
       0.859215         415.893         96.7105         456.732 
       0.871383         407.237          93.674         450.895 
        0.88363         400.948         90.7505         446.396 
       0.895928         396.409         87.9412         439.642 
       0.908253         386.896         85.2462         432.316 
       0.920535         377.158         82.6738         428.175 
       0.932774         372.499          80.217         421.508 
        0.94508          366.83         77.8481          417.54 
       0.957324         361.289          75.587         411.996 
        0.96953         356.701         73.4229         407.004 
       0.981769         348.557         71.3386         402.467 
       0.994071         347.279         69.3256         397.697 
         1.0064         340.949         67.3872         391.956 
        1.01868         336.498          65.529         387.123 
        1.03092         326.918         63.7494         383.778 
         1.0432         323.587         62.0298         379.156 
        1.05553         320.416         60.3672         373.906 
        1.06777         315.225         58.7779         369.548 
           1.08         308.244         57.2476         365.514 
        1.09227         307.921         55.7672         361.191 
         1.1046         301.036         54.3337         357.944 
         1.1169         295.409         52.9534         353.275 
        1.12915         290.568         51.6281          349.47 
        1.14142         284.793         50.3455         345.521 
        1.15365         281.238         49.1105         341.922 
        1.16585         276.998         47.9203         338.164 
        1.17807         274.092         46.7683         334.255 
        1.19037         268.193         45.6467         331.407 
        1.20276         265.708         44.5544         327.149 
        1.21504         260.404         43.5067         323.456 
        1.22728         256.358         42.4971         320.335 
        1.23954         254.572         41.5172         316.701 
        1.25184         248.753         40.5664         313.437 
        1.26414         244.146         39.6451         310.484 
        1.27632         241.103         38.7608         307.554 
         1.2886          238.32         37.8973         304.162 
        1.30093          233.56         37.0572         300.197 
        1.31316         228.773         36.2487         297.607 
        1.32541         227.455         35.4642         294.178 
        1.33772          223.03         34.6987         291.652 
        1.35005           220.2         33.9553         288.341 
        1.36225         216.157         33.2413         285.661 
        1.37447         212.506         32.5465         282.327 
        1.38676         210.383         31.8685         280.298 
        1.39907         207.205         31.2087         276.833 
        1.41133         203.274         30.5705         273.906 
        1.42358          200.53         29.9508         271.356 
        1.43591         197.612          29.344         268.991 
        1.44818         193.804         28.7574         266.048 
        1.46037         192.153         28.1904         263.226 
        1.47263         188.604         27.6356         260.549 
        1.48494         187.132         27.0935         257.529 
        1.49724          183.31         26.5665         255.977 
        1.50952         180.445         26.0547          252.78 
        1.52178         177.646          25.557         250.583 
        1.53409         174.902         25.0704         248.104 
        1.54637         171.923         24.5975         246.069 
        1.55858         169.992         24.1395          243.53 
        1.57081         167.002         23.6926         241.004 
        1.58313         165.026         23.2541         238.587 
        1.59544         161.828         22.8271         236.478 
        1.60767         160.418         22.4135         234.402 
        1.61994         157.509         22.0088         231.943 
        1.63225         154.912         21.6132         229.607 
        1.64452         152.375         21.2284         227.583 
        1.65676         150.522         20.8543         225.681 
          1.669         148.666         20.4888         223.312 
        1.68133         145.615         20.1299          221.27 
        1.69363         143.205         19.7806         219.501 
        1.70585         141.002         19.4418         217.363 
        1.71809         139.039         19.1103         215.086 
        1.73038         136.888         18.7855         213.227 
        1.74268         135.675          18.468          211.16 
        1.75493         133.069         18.1594         209.478 
        1.76714          131.95         17.8586         207.603 
        1.77942          129.37         17.5631         205.777 
        1.79173         127.691         17.2735         203.713 
        1.80402         125.626          16.991         201.914 
         1.8163         123.566         16.7151         200.327 
         1.8286         121.645         16.4448          198.37 
         1.8409         119.998         16.1807         196.532 
        1.85315         117.837         15.9233         194.898 
        1.86537         116.459          15.672         193.226 
        1.87765         114.974         15.4252         191.565 
        1.88995         113.076         15.1831         189.745 
        1.90221         111.579         14.9471         188.264 
        1.91445         109.794         14.7165         186.512 
        1.92674         107.888           14.49         184.806 
        1.93902         106.674         14.2682         183.143 
        1.95124         105.059         14.0522         181.622 
         1.9635         103.427         13.8402         180.047 
        1.97583         101.875         13.6312         178.409 
        1.98812         100.316         13.4273         177.202 
        2.00039           99.22          13.228         175.471 
        2.01264           97.93          13.033         174.017 
        2.02492          96.194         12.8416         172.423 
        2.03717         94.9104         12.6543         171.083 
        2.04942         93.6284          12.471         169.575 
        2.06171         92.1056         12.2908         168.037 
        2.07397         90.7624         12.1145         166.799 
        2.08629         89.4058         11.9409         165.358 
        2.09857         88.3279         11.7711         164.036 
        2.11081         86.9511         11.6054         162.531 
        2.12309         85.7758         11.4424         161.253 
        2.13538         84.3914         11.2824         159.887 
        2.14763         83.0948         11.1259         158.559 
        2.15986         82.2676         10.9728         157.141 
        2.17214         81.0303         10.8219         156.003 
        2.18443         80.1469         10.6737          154.81 
        2.19671         79.0996         10.5285         153.453 
        2.20898         77.8344         10.3861         152.078 
        2.22126         76.8137         10.2463         150.963 
        2.23354         75.7535          10.109         149.806 
         2.2458         74.2454         9.97453         148.489 
        2.25807         73.7094         9.84237         147.322 
        2.27035         72.6433         9.71249         146.157 
        2.28263         71.6863         9.58502         145.039 
         2.2949         70.4899          9.4599         143.893 
        2.30718         69.3833         9.33698         142.706 
        2.31946         68.5987         9.21618         141.487 
        2.33169         67.5696         9.09804         140.432 
        2.34393         66.7652         8.98179         139.466 
        2.35622         65.8383          8.8672         138.244 
        2.36847         64.9423         8.75493         137.266 
        2.38076         63.8405         8.64427         136.124 
        2.39305         63.2864         8.53555         135.141 
        2.40534          62.238          8.4287         134.022 
        2.41762         61.6805         8.32369         132.981 
        2.42989         60.5912         8.22062         131.987 
        2.44216         60.0699         8.11932         130.908 
         2.4544         59.3329         8.01996         129.977 
        2.46667         58.2604         7.92203          128.99 
        2.47897         57.8684          7.8255           127.9 
        2.49124         57.0455         7.73084         126.941 
        2.50349          56.027          7.6379         126.018 
        2.51578         55.6129         7.54619         125.131 
        2.52805         54.6674         7.45616         124.126 
        2.54029         54.1687         7.36782         123.199 
        2.55257         53.4876         7.28065         122.322 
        2.56487         52.9924         7.19472         121.417 
        2.57716         52.3678          7.1103           120.5 
        2.58942         51.6347         7.02742         119.625 
        2.60167         50.9574         6.94595         118.773 
        2.61395         50.5288         6.86564         117.862 
        2.62624         49.8287          6.7865         116.942 
        2.63849         49.2126         6.70885         116.147 
        2.65073         48.5316          6.6325         115.259 
        2.66302         48.1003         6.55706         114.464 
         2.6753         47.4202         6.48285         113.642 
        2.68756         47.0619         6.40993         112.791 
        2.69983         46.5417         6.33809         111.978 
        2.71213         46.0339          6.2672         111.179 
        2.72441         45.5477         6.19752         110.362 
        2.73665         45.0032         6.12906         109.601 
         2.7489         44.5719         6.06168         108.835 
        2.76118         44.1522         5.99511          108.03 
        2.77349         43.7025         5.92937         107.284 
        2.78576         43.2418         5.86488         106.512 
        2.79802         42.8722         5.80139         105.814 
        2.81031         42.4062         5.73868          105.06 
        2.82259         41.9641         5.67693         104.271 
        2.83483         41.5176         5.61632         103.588 
         2.8471          41.056         5.55648         102.846 
         2.8594            40.7         5.49733         102.131 
         2.8717         40.3897         5.43906         101.464 
        2.88396         39.9431         5.38185         100.763 
        2.89619         39.7239         5.32556         100.038 
        2.90847         39.3261         5.26987         99.3054 
        2.92072         38.9691         5.21507         98.6985 
        2.93299         38.7249         5.16103         98.0352 
        2.94526         38.4156          5.1077         97.3335 
        2.95753         38.1743         5.05513         96.6777 
        2.96982         37.7319         5.00322         96.0495 
        2.98209         37.4995         4.95215         95.3866 
        2.99436          37.363         4.90174         94.7211 
        3.00666         37.1301         4.85195         94.0863 
        3.01894         36.8704         4.80295         93.4629 
        3.03119         36.6312          4.7547          92.869 
        3.04345          36.393          4.7071         92.2661 
        3.05573         36.3702         4.66006         91.6435 
          3.068          36.054         4.61372         91.0439 
        3.08026         35.8502         4.56805         90.4412 
        3.09254         35.8758         4.52291         89.8528 
        3.10483         35.6633         4.47838         89.2665 
         3.1171          35.559         4.43451         88.6718 
        3.12933         35.4076         4.39134         88.0858 
        3.14159          35.321         4.34866           87.51 
