# k  (h/Mpc)    Pcb(k)  (Mpc/h)^3    Pcb_linear(k) (Mpc/h)^3    Pcb_NL(k) (Mpc/h)^3   ShotnoiseSubtracted = false
      0.0156606         20538.2         20645.7         20486.3 
      0.0273761         17614.3         17849.9         17663.4 
      0.0384619         13325.6         13447.6         13283.6 
      0.0498308         10298.3         10577.2         10412.7 
      0.0625568         8701.07         8989.22         8842.29 
      0.0751274         7744.07         7637.24         7430.41 
      0.0867833         6003.18         6148.79         6085.24 
      0.0984825         5066.27         4865.95         4924.11 
       0.111151         4330.45         4062.97         4134.42 
       0.123864         3881.05         3661.54         3719.49 
       0.135742         3536.21         3292.63         3350.86 
        0.14762         3076.22         2815.36         2969.98 
       0.160083         2609.23         2346.76         2536.79 
       0.172465         2327.51         2048.27         2290.04 
       0.184281          2112.9         1888.26         2131.26 
       0.196406         1988.72          1743.8         1962.09 
       0.209011         1858.74         1551.53         1777.92 
       0.221538         1674.84         1355.89         1658.36 
       0.233611         1602.41         1213.17         1552.84 
       0.245665         1454.12         1119.71         1433.53 
       0.258103         1435.61         1042.35         1353.22 
       0.270422         1281.81         957.802         1270.67 
       0.282519         1208.63         869.259         1201.65 
       0.294636         1189.26         791.991         1137.69 
       0.306978         1084.23         732.724         1089.73 
       0.319417         1061.32         685.055         1027.29 
        0.33169         998.546         639.425         972.392 
       0.343948         957.468         592.464         942.141 
       0.356249         906.777         548.424         906.872 
       0.368458         872.996         511.536         865.756 
        0.38068         857.071         480.687         832.407 
       0.392856         813.176         452.527         802.953 
       0.405069         772.941         424.992         777.451 
       0.417459         743.641         398.331         748.892 
       0.429752         737.778         374.398         722.702 
       0.441978         712.167         353.392         704.161 
       0.454294          680.28         334.317         675.288 
        0.46658         661.582         316.419         661.236 
       0.478753         648.376         299.535         640.955 
       0.490964         623.506         283.675         621.274 
       0.503334         595.985         269.036         607.155 
       0.515665         594.406         255.688         593.694 
       0.527909         570.443         243.365         580.662 
       0.540159         556.357         231.706         565.673 
        0.55248           545.6         220.644         550.935 
       0.564743         541.464           210.4         541.564 
        0.57686         522.495         200.986         527.117 
       0.589077         511.404         192.099         515.423 
       0.601441         501.718         183.649         505.182 
        0.61382         488.559         175.682         496.402 
       0.626067         483.193         168.247         486.881 
       0.638306         465.266         161.245         477.171 
       0.650632         460.852         154.612         465.383 
       0.662899         457.044         148.396         459.891 
       0.675076         441.374          142.57         453.207 
       0.687267         429.524          137.05         442.419 
       0.699615         426.908         131.753         435.443 
       0.711937         419.478         126.746         427.391 
       0.724148         405.639         122.042         421.481 
       0.736433         396.262         117.552         413.843 
       0.748747         391.384         113.283         406.459 
       0.761037         384.336         109.235         401.345 
       0.773197         379.384         105.427         395.005 
       0.785376         374.057         101.796         389.171 
       0.797761         363.409         98.2806         383.141 
       0.810096         360.483         94.9447         378.356 
       0.822371         349.726         91.7799         372.164 
       0.834626         347.235         88.7652         367.616 
       0.846916          340.86         85.8787         361.915 
       0.859215         338.779         83.1197         356.703 
       0.871383         330.664         80.5099         351.906 
        0.88363         328.173         77.9973          348.32 
       0.895928         322.522         75.5828         342.839 
       0.908253         314.523         73.2666         337.305 
       0.920535         310.246         71.0557         333.375 
       0.932774         304.369         68.9441         328.481 
        0.94508         300.219         66.9082         325.107 
       0.957324         298.342         64.9648         320.715 
        0.96953           294.3         63.1049         316.771 
       0.981769         286.782         61.3134         313.347 
       0.994071         285.865         59.5834         309.476 
         1.0064         280.143         57.9174         304.965 
        1.01868         277.142         56.3203         301.072 
        1.03092         269.149         54.7908         298.383 
         1.0432         266.294         53.3129         294.769 
        1.05553         263.237         51.8839          290.77 
        1.06777         261.032          50.518         287.608 
           1.08         255.004         49.2028         284.358 
        1.09227         253.505         47.9303          280.95 
         1.1046         249.182         46.6983         278.227 
         1.1169          243.59          45.512         274.483 
        1.12915         240.548         44.3729         271.873 
        1.14142         236.145         43.2706         268.542 
        1.15365         233.444         42.2091          265.71 
        1.16585         229.436         41.1862         262.613 
        1.17807         227.159         40.1961         260.052 
        1.19037         224.152         39.2321         257.773 
        1.20276         221.112         38.2934         254.411 
        1.21504         216.461         37.3928           251.6 
        1.22728         213.223         36.5251         248.583 
        1.23954         212.264         35.6829         246.463 
        1.25184         207.763         34.8658         243.791 
        1.26414         203.794          34.074         241.426 
        1.27632         202.791         33.3139         239.359 
         1.2886         201.325         32.5718         236.514 
        1.30093          196.05         31.8497         233.651 
        1.31316         192.292         31.1548         231.197 
        1.32541         191.222         30.4806         229.017 
        1.33772         188.632         29.8226          226.79 
        1.35005         186.114         29.1837         224.242 
        1.36225         182.789           28.57         222.154 
        1.37447         180.238         27.9729         219.427 
        1.38676         178.389         27.3902         217.803 
        1.39907         175.729         26.8231         215.258 
        1.41133         172.707         26.2746         213.113 
        1.42358          170.73         25.7419         211.104 
        1.43591         168.767         25.2204         209.077 
        1.44818         165.746         24.7163         206.997 
        1.46037         164.157         24.2289         204.795 
        1.47263         161.378         23.7521          203.03 
        1.48494         159.537         23.2862         200.538 
        1.49724         157.248         22.8333         199.157 
        1.50952         154.366         22.3933         197.035 
        1.52178         153.446         21.9656         194.906 
        1.53409         150.334         21.5474         193.248 
        1.54637         148.474          21.141         191.652 
        1.55858         146.472         20.7473         189.564 
        1.57081         144.191         20.3632         187.864 
        1.58313           142.3         19.9864         185.948 
        1.59544         139.806         19.6193         184.291 
        1.60767         138.749         19.2639          182.63 
        1.61994         136.304          18.916         180.956 
        1.63225         134.495          18.576         179.039 
        1.64452         132.235         18.2453         177.439 
        1.65676         130.438         17.9237         175.912 
          1.669         129.306         17.6097         174.305 
        1.68133         126.742         17.3012         172.714 
        1.69363         124.734         17.0009         171.196 
        1.70585         122.746         16.7098         169.671 
        1.71809         121.288         16.4249          167.84 
        1.73038         120.267         16.1457         166.492 
        1.74268         119.104         15.8728         164.879 
        1.75493         115.987         15.6075         163.503 
        1.76714         115.524          15.349         162.129 
        1.77942         113.387          15.095         160.521 
        1.79173         111.637         14.8461         159.143 
        1.80402         110.636         14.6034          157.73 
         1.8163         108.348         14.3662         156.394 
         1.8286         107.062         14.1339          154.92 
         1.8409         106.256         13.9069         153.479 
        1.85315         104.043         13.6857         152.235 
        1.86537         103.227         13.4697         150.973 
        1.87765         101.988         13.2576         149.684 
        1.88995         100.195         13.0496         148.295 
        1.90221         98.9565         12.8467         147.101 
        1.91445         97.7129         12.6485         145.689 
        1.92674         96.1949         12.4538         144.446 
        1.93902         94.9171         12.2632         143.148 
        1.95124         93.8152         12.0776         141.944 
         1.9635          92.273         11.8953         140.692 
        1.97583         90.9156         11.7157         139.521 
        1.98812         89.7777         11.5405         138.454 
        2.00039          88.747         11.3692         137.163 
        2.01264         87.6498         11.2015         136.036 
        2.02492         86.7385          11.037         134.812 
        2.03717         85.2483         10.8761         133.728 
        2.04942          84.565         10.7186         132.645 
        2.06171          82.752         10.5636         131.491 
        2.07397         81.9405         10.4121         130.452 
        2.08629         80.9149         10.2629         129.318 
        2.09857         79.8037          10.117         128.276 
        2.11081         78.4653         9.97456         127.092 
        2.12309         77.4132          9.8345         126.171 
        2.13538         76.4297         9.69692         125.058 
        2.14763          75.475         9.56244          124.06 
        2.15986         74.4125         9.43083         122.965 
        2.17214         73.6014         9.30116         121.982 
        2.18443         72.6348          9.1738          121.15 
        2.19671          71.551         9.04898         120.107 
        2.20898         70.8466         8.92664         119.044 
        2.22126         69.8059         8.80643         118.137 
        2.23354         69.0415         8.68847         117.198 
         2.2458         67.7601         8.57288         116.255 
        2.25807         67.0428         8.45929         115.301 
        2.27035          66.119         8.34766         114.359 
        2.28263         65.2673          8.2381         113.475 
         2.2949         64.2767         8.13056         112.584 
        2.30718         63.3463         8.02491         111.698 
        2.31946          62.923         7.92109          110.74 
        2.33169         61.8051         7.81955         109.902 
        2.34393         61.3488         7.71964         109.108 
        2.35622         60.1908         7.62115         108.217 
        2.36847         59.7695         7.52466         107.479 
        2.38076         58.7639         7.42955         106.501 
        2.39305         58.1495         7.33611         105.783 
        2.40534         57.3826         7.24427         104.908 
        2.41762         56.7154         7.15402         104.055 
        2.42989         55.8504         7.06544         103.317 
        2.44216          55.295         6.97837         102.455 
         2.4544          54.449         6.89297         101.703 
        2.46667         53.8515          6.8088         100.919 
        2.47897          53.262         6.72583         100.109 
        2.49124         52.7072         6.64448         99.3861 
        2.50349         52.1874          6.5646         98.6246 
        2.51578         51.3787         6.48578         97.9716 
        2.52805         50.8022          6.4084         97.1455 
        2.54029          50.295         6.33247         96.3843 
        2.55257         49.6384         6.25755         95.7249 
        2.56487         49.3544          6.1837         95.0382 
        2.57716         48.5847         6.11114         94.3198 
        2.58942         47.9223         6.03991         93.6156 
        2.60167         47.3852         5.96988         92.9328 
        2.61395         46.9042         5.90086         92.2465 
        2.62624         46.2682         5.83284         91.5102 
        2.63849         45.7613          5.7661         90.8593 
        2.65073         45.3277         5.70048         90.1984 
        2.66302         44.7881         5.63564         89.5132 
         2.6753         44.3561         5.57186         88.8963 
        2.68756         43.9018         5.50919         88.2229 
        2.69983          43.335         5.44744         87.6154 
        2.71213         42.9277         5.38651         86.9864 
        2.72441          42.487         5.32662         86.3473 
        2.73665         41.9657         5.26779         85.7498 
         2.7489         41.5452         5.20988         85.1434 
        2.76118         41.1638         5.15266         84.5222 
        2.77349         40.7051         5.09616         83.9252 
        2.78576          40.332         5.04073         83.2974 
        2.79802         39.9898         4.98616         82.7854 
        2.81031         39.4398         4.93227         82.1776 
        2.82259         39.2568         4.87919         81.5673 
        2.83483         38.7446          4.8271         81.0445 
         2.8471         38.4342         4.77567          80.456 
         2.8594         38.0751         4.72483         79.8744 
         2.8717         37.8951         4.67474         79.3553 
        2.88396         37.4578         4.62558         78.7951 
        2.89619         37.2442          4.5772         78.2029 
        2.90847         36.8357         4.52934         77.6418 
        2.92072         36.6232         4.48224         77.1585 
        2.93299         36.4663         4.43578         76.6475 
        2.94526         36.0474         4.38995         76.1125 
        2.95753         35.8227         4.34477         75.5755 
        2.96982         35.5054         4.30016           75.07 
        2.98209         35.2907         4.25626         74.5751 
        2.99436         35.0113         4.21294         74.0333 
        3.00666         34.9744         4.17014         73.5385 
        3.01894         34.5952         4.12803          73.042 
        3.03119         34.5625         4.08655         72.5717 
        3.04345          34.391         4.04565         72.1016 
        3.05573         34.0473         4.00522         71.6113 
          3.068         33.9797         3.96538         71.1343 
        3.08026          33.802         3.92613         70.6549 
        3.09254         33.7327         3.88734         70.1956 
        3.10483         33.6919         3.84907         69.7387 
         3.1171         33.5139         3.81136         69.2727 
        3.12933          33.379         3.77426         68.8095 
        3.14159         33.2523         3.73757         68.3422 
