# k  (h/Mpc)    Pcb(k)  (Mpc/h)^3    Pcb_linear(k) (Mpc/h)^3    Pcb_NL(k) (Mpc/h)^3   ShotnoiseSubtracted = false
      0.0156606         14816.2         14873.1         14772.4 
      0.0273761         12748.5           12861         12759.2 
      0.0384619          9662.8         9689.81         9606.12 
      0.0498308          7491.9         7621.89            7540 
      0.0625568         6325.86         6477.77         6402.76 
      0.0751274         5600.05         5503.61         5396.11 
      0.0867833         4359.84         4431.04         4400.32 
      0.0984825         3642.88         3506.61         3542.14 
       0.111151         3095.73         2927.97          2968.2 
       0.123864          2777.3         2638.69         2671.93 
       0.135742         2519.26         2372.84         2406.72 
        0.14762         2177.62          2028.9         2117.64 
       0.160083         1827.49         1691.21         1797.32 
       0.172465         1629.56          1476.1         1609.93 
       0.184281         1491.21         1360.79         1497.68 
       0.196406         1383.79         1256.69          1374.6 
       0.209011         1281.67         1118.13         1242.27 
       0.221538         1156.25          977.14         1147.33 
       0.233611         1088.92         874.287         1065.74 
       0.245665         997.647         806.934         981.363 
       0.258103         961.718         751.186         924.204 
       0.270422         866.267         690.253         863.717 
       0.282519         805.838         626.443          809.31 
       0.294636         798.119         570.759         762.083 
       0.306978         717.283         528.048         726.364 
       0.319417         694.579         493.694         683.685 
        0.33169          654.51         460.811          644.58 
       0.343948         624.041         426.968         621.332 
       0.356249         586.658         395.229         595.555 
       0.368458         568.916         368.646         564.253 
        0.38068         549.422         346.414         540.161 
       0.392856          517.75          326.12         518.871 
       0.405069          495.86         306.277         502.541 
       0.417459         475.346         287.063         478.911 
       0.429752         462.892         269.815         461.538 
       0.441978         447.694         254.677         448.184 
       0.454294         423.154         240.931         428.539 
        0.46658          415.88         228.033         417.893 
       0.478753         402.478         215.865         403.759 
       0.490964         387.977         204.435         390.312 
       0.503334         366.675         193.885          379.85 
       0.515665          365.14         184.265         371.525 
       0.527909         352.305         175.385         360.648 
       0.540159         343.317         166.983         350.444 
        0.55248         336.602          159.01         340.678 
       0.564743          330.92         151.628         334.073 
        0.57686         318.182         144.844         324.201 
       0.589077         306.895         138.439         317.097 
       0.601441           303.5          132.35         309.781 
        0.61382         298.575         126.608         303.464 
       0.626067         293.076          121.25         296.704 
       0.638306         279.969         116.204         291.023 
       0.650632         274.744         111.424         282.421 
       0.662899         272.926         106.944         278.609 
       0.675076         262.471         102.746         273.021 
       0.687267         255.916         98.7675          266.81 
       0.699615          251.83         94.9502         262.022 
       0.711937         247.426         91.3416         257.251 
       0.724148         240.572         87.9512         253.373 
       0.736433         235.384         84.7161         248.044 
       0.748747         231.176         81.6389         243.247 
       0.761037         227.263          78.722         239.097 
       0.773197         223.827         75.9778         236.044 
       0.785376         220.931         73.3613         231.479 
       0.797761         215.647         70.8275         228.252 
       0.810096         212.538         68.4235         224.677 
       0.822371         204.531         66.1427         220.943 
       0.834626         203.783         63.9701         217.475 
       0.846916         199.941         61.8899         214.317 
       0.859215         199.377         59.9016         211.143 
       0.871383         194.121         58.0208          207.76 
        0.88363         192.195           56.21         205.571 
       0.895928         187.802           54.47         202.443 
       0.908253         182.626         52.8008         198.981 
       0.920535         182.044         51.2074         196.323 
       0.932774         175.963         49.6857           193.5 
        0.94508         174.467         48.2185          191.43 
       0.957324          173.97         46.8179         188.524 
        0.96953         171.708         45.4776         185.691 
       0.981769         166.367         44.1865         184.023 
       0.994071         165.586         42.9397         181.566 
         1.0064         161.649         41.7391         178.797 
        1.01868         159.558         40.5881         176.829 
        1.03092         156.923         39.4859         174.865 
         1.0432         153.873         38.4208         172.658 
        1.05553         151.287          37.391         170.667 
        1.06777           151.1         36.4066         168.917 
           1.08         147.453         35.4588         166.672 
        1.09227         145.831         34.5418         165.005 
         1.1046         143.432         33.6539         163.076 
         1.1169         141.478          32.799         160.865 
        1.12915         139.223         31.9781         159.274 
        1.14142         137.036         31.1837         157.205 
        1.15365         135.205         30.4187          155.55 
        1.16585         133.285         29.6815         153.543 
        1.17807         131.348          28.968         152.446 
        1.19037         130.669         28.2733          150.83 
        1.20276         128.027         27.5967         148.993 
        1.21504         126.408         26.9478         147.376 
        1.22728         123.888         26.3224         145.625 
        1.23954         123.182         25.7155         144.374 
        1.25184         120.638         25.1266         142.774 
        1.26414         119.009          24.556         141.292 
        1.27632           118.4         24.0082         140.555 
         1.2886         116.174         23.4734         138.497 
        1.30093         113.353          22.953         137.022 
        1.31316         113.003         22.4522         135.627 
        1.32541          111.31         21.9663          134.58 
        1.33772         110.126         21.4922         133.136 
        1.35005          108.71         21.0317         131.674 
        1.36225         107.365         20.5895         130.495 
        1.37447         105.265         20.1591         129.068 
        1.38676          104.66         19.7392         127.706 
        1.39907         102.304         19.3305          126.62 
        1.41133         100.944         18.9352         125.592 
        1.42358         99.6069         18.5513         124.322 
        1.43591         98.9487         18.1755         122.954 
        1.44818         97.8623         17.8122         121.942 
        1.46037         96.0093          17.461         120.741 
        1.47263         94.6976         17.1173         119.823 
        1.48494          93.857         16.7816         118.543 
        1.49724         92.3371         16.4552         117.308 
        1.50952         90.8635         16.1381         116.291 
        1.52178         90.0816         15.8299         115.249 
        1.53409         89.0398         15.5285         114.242 
        1.54637         87.2406         15.2356         113.199 
        1.55858         86.2399         14.9519          112.12 
        1.57081         85.0067         14.6751         111.157 
        1.58313         83.9851         14.4035         110.151 
        1.59544         83.0783          14.139         109.159 
        1.60767         81.8263         13.8828         108.137 
        1.61994         80.7235         13.6321         107.446 
        1.63225         79.5273         13.3871         106.144 
        1.64452         78.4417         13.1488         105.316 
        1.65676         77.3495          12.917         104.414 
          1.669         76.7989         12.6907         103.573 
        1.68133          75.776         12.4684         102.596 
        1.69363         74.8123          12.252           101.8 
        1.70585           73.86         12.0422         100.843 
        1.71809         72.5879         11.8368         100.081 
        1.73038         71.8316         11.6356         99.1113 
        1.74268          70.691          11.439         98.3086 
        1.75493         70.1206         11.2478         97.4208 
        1.76714         68.9329         11.0615         96.6155 
        1.77942         68.4859         10.8785         95.7678 
        1.79173         67.2955         10.6991         94.9561 
        1.80402         66.5708         10.5242         94.2404 
         1.8163         65.7157         10.3532         93.2907 
         1.8286           64.76         10.1858         92.6479 
         1.8409         63.8674         10.0222         91.8235 
        1.85315         62.9432         9.86281         91.1675 
        1.86537         62.3145         9.70717         90.3494 
        1.87765         61.5847         9.55431          89.484 
        1.88995         60.7178         9.40438         88.8491 
        1.90221          60.054         9.25819         88.0948 
        1.91445         58.9545         9.11535         87.4036 
        1.92674         58.4374         8.97503         86.6952 
        1.93902         57.7051         8.83766          85.922 
        1.95124         57.2647          8.7039         85.3477 
         1.9635          56.178         8.57257         84.5052 
        1.97583         55.6414         8.44312         83.9551 
        1.98812         54.9501         8.31684         83.2027 
        2.00039         54.1378         8.19339         82.5413 
        2.01264          53.532         8.07257         81.8699 
        2.02492         52.7979         7.95401         81.2476 
        2.03717         52.0861         7.83803         80.5249 
        2.04942         51.4548         7.72451         79.9755 
        2.06171         50.7465         7.61286         79.2731 
        2.07397         50.1238         7.50366         78.7135 
        2.08629          49.607         7.39615          78.022 
        2.09857         49.0598           7.291         77.4544 
        2.11081         47.9874         7.18833         76.7732 
        2.12309         47.7187         7.08739         76.2275 
        2.13538         47.0893         6.98825         75.6185 
        2.14763         46.5892         6.89133         75.0387 
        2.15986         45.9005         6.79648         74.4394 
        2.17214         45.2832         6.70303         73.9129 
        2.18443         44.9797         6.61125         73.3222 
        2.19671         44.1332          6.5213         72.7104 
        2.20898         43.8394         6.43313         72.1555 
        2.22126         43.2306          6.3465         71.5767 
        2.23354         42.6455         6.26149         71.0824 
         2.2458         42.2304         6.17819         70.5511 
        2.25807         41.8177         6.09633         69.9592 
        2.27035         41.2296         6.01588         69.4344 
        2.28263         40.6512         5.93692         68.8965 
         2.2949         40.1508         5.85942         68.3947 
        2.30718           39.72         5.78329         67.8981 
        2.31946         39.1442         5.70846         67.4075 
        2.33169         38.7167         5.63529         66.8776 
        2.34393         38.1116         5.56329          66.369 
        2.35622         37.8433         5.49231         65.8712 
        2.36847         37.3596         5.42277         65.3921 
        2.38076         37.0211         5.35423          64.904 
        2.39305         36.5336         5.28689         64.4322 
        2.40534         36.1592          5.2207         63.8944 
        2.41762         35.7469         5.15566         63.4161 
        2.42989         35.1759         5.09182         63.0033 
        2.44216         34.9546         5.02908         62.5195 
         2.4544         34.5878         4.96753         62.0692 
        2.46667          34.054         4.90687         61.5736 
        2.47897         33.7296         4.84708         61.1462 
        2.49124         33.2846         4.78846         60.7016 
        2.50349         32.8682         4.73088         60.2685 
        2.51578         32.5274         4.67408         59.8534 
        2.52805         32.4055         4.61832         59.3948 
        2.54029         31.9548          4.5636         58.9667 
        2.55257         31.5232         4.50961         58.5565 
        2.56487         31.2008         4.45639         58.1445 
        2.57716          30.878         4.40409         57.7571 
        2.58942         30.4982         4.35276         57.3204 
        2.60167         30.0958         4.30229          56.882 
        2.61395         29.8743         4.25255         56.4988 
        2.62624         29.6381         4.20353         56.0966 
        2.63849         29.3283         4.15544         55.7038 
        2.65073         28.9908         4.10814         55.2829 
        2.66302         28.7073         4.06142         54.9158 
         2.6753         28.3685         4.01545         54.5332 
        2.68756         28.0159         3.97029         54.1335 
        2.69983         27.7983         3.92579         53.7724 
        2.71213         27.4624         3.88188         53.4129 
        2.72441         27.3374         3.83872         53.0157 
        2.73665         27.0501         3.79632         52.6466 
         2.7489         26.8521         3.75458         52.2903 
        2.76118         26.5339         3.71335         51.9188 
        2.77349         26.3353         3.67263         51.5789 
        2.78576         26.1486         3.63269         51.2089 
        2.79802          25.826         3.59336          50.863 
        2.81031         25.6073         3.55452         50.5272 
        2.82259         25.3872         3.51627         50.1627 
        2.83483         25.1477         3.47873          49.819 
         2.8471          24.916         3.44166         49.4902 
         2.8594         24.7329         3.40503          49.172 
         2.8717         24.4608         3.36893         48.8292 
        2.88396         24.3518          3.3335         48.4796 
        2.89619         24.1577         3.29864         48.1574 
        2.90847          23.956         3.26414         47.8377 
        2.92072         23.8612          3.2302         47.5191 
        2.93299         23.7304         3.19672         47.1894 
        2.94526          23.497         3.16369         46.8898 
        2.95753         23.3406         3.13113         46.5938 
        2.96982         23.3128         3.09898          46.279 
        2.98209         23.0967         3.06734         45.9733 
        2.99436         22.9089         3.03612         45.6652 
        3.00666         22.8869         3.00528         45.3646 
        3.01894         22.7468         2.97493         45.0487 
        3.03119          22.585         2.94504          44.754 
        3.04345         22.4919         2.91556         44.4757 
        3.05573         22.4256         2.88643         44.1889 
          3.068         22.3589         2.85772         43.8966 
        3.08026         22.2667         2.82943         43.6073 
        3.09254          22.158         2.80148          43.331 
        3.10483          22.176         2.77389         43.0562 
         3.1171         22.0739         2.74672         42.7767 
        3.12933         22.0915         2.71998         42.5008 
        3.14159         21.9936         2.69355         42.2239 
