# k  (h/Mpc)    Pcb(k)  (Mpc/h)^3    Pcb_linear(k) (Mpc/h)^3    Pcb_NL(k) (Mpc/h)^3   ShotnoiseSubtracted = false
      0.0156606         7544.61         7559.48         7516.63 
      0.0273761         6524.59         6538.78         6507.16 
      0.0384619          4955.4          4927.2         4906.27 
      0.0498308         3863.78         3875.99          3857.4 
      0.0625568         3260.63         3294.35         3275.75 
      0.0751274         2856.88         2799.02         2770.76 
      0.0867833         2243.49         2253.58         2247.22 
      0.0984825         1845.92         1783.45         1796.42 
       0.111151         1555.92         1489.17         1502.59 
       0.123864         1397.67         1342.06         1353.34 
       0.135742         1260.96         1206.85         1218.46 
        0.14762          1078.5         1031.92         1060.23 
       0.160083          896.77         860.171         892.677 
       0.172465          796.68         750.768         790.903 
       0.184281         736.374         692.121         734.322 
       0.196406         673.663         639.173         673.289 
       0.209011         615.187         568.702         605.927 
       0.221538         552.483         496.993         548.996 
       0.233611         507.116          444.68         502.936 
       0.245665         473.643         410.423         462.643 
       0.258103         436.941         382.069         434.031 
       0.270422         404.288         351.077         402.564 
       0.282519         369.233         318.623         372.713 
       0.294636         362.652         290.301         347.287 
       0.306978         320.844         268.577         327.817 
       0.319417         307.668         251.104         307.991 
        0.33169         287.967         234.379         289.289 
       0.343948         274.823         217.166         274.776 
       0.356249         255.678         201.023         261.393 
       0.368458         246.761         187.502         245.427 
        0.38068         234.354         176.194          233.42 
       0.392856         218.772         165.873         223.151 
       0.405069         209.233          155.78         213.585 
       0.417459         199.251         146.007         202.102 
       0.429752         191.757         137.235         193.813 
       0.441978         184.598         129.535         187.145 
       0.454294         171.958         122.543         177.819 
        0.46658         172.169         115.983         171.793 
       0.478753         161.992         109.794         165.376 
       0.490964          157.02         103.981         159.067 
       0.503334         149.253         98.6148         153.689 
       0.515665         145.399         93.7218         149.657 
       0.527909         140.829         89.2049         143.129 
       0.540159         136.098         84.9315         138.897 
        0.55248         131.579         80.8766         134.102 
       0.564743         127.851          77.122         130.539 
        0.57686         123.811         73.6712         126.224 
       0.589077         118.253         70.4137         123.126 
       0.601441         115.646         67.3163         119.778 
        0.61382         113.608         64.3958         116.077 
       0.626067         109.152         61.6706         113.089 
       0.638306         105.389         59.1043         110.256 
       0.650632         101.643         56.6728         106.377 
       0.662899         101.284         54.3944         103.937 
       0.675076         97.6232          52.259         101.394 
       0.687267         95.4883         50.2356         98.9326 
       0.699615         92.5321         48.2941         96.9073 
       0.711937          89.708         46.4587         94.1364 
       0.724148         88.9149         44.7342         92.8085 
       0.736433         85.2507         43.0887         90.2873 
       0.748747          83.704         41.5236         88.2826 
       0.761037         81.8084           40.04          86.185 
       0.773197         80.0279         38.6442         85.1107 
       0.785376         78.0743         37.3134         82.9263 
       0.797761         77.3238         36.0247         81.6173 
       0.810096         74.6419         34.8019         79.7533 
       0.822371          73.239         33.6418         78.1838 
       0.834626          71.538         32.5368         76.8693 
       0.846916         70.4382         31.4788         75.4681 
       0.859215          68.864         30.4675         73.9167 
       0.871383         67.9454         29.5108         72.6715 
        0.88363         66.0773         28.5898          71.641 
       0.895928         64.7021         27.7048         70.3554 
       0.908253         63.1508         26.8558         69.1531 
       0.920535         62.7973         26.0454         68.0363 
       0.932774         61.5253         25.2714         66.8646 
        0.94508         60.6546         24.5251         65.6527 
       0.957324         59.1166         23.8128         64.7879 
        0.96953         59.0387          23.131         63.6131 
       0.981769         57.0898         22.4744         62.8545 
       0.994071         56.4206         21.8402         61.9158 
         1.0064         55.1929         21.2296         60.9538 
        1.01868         54.3417         20.6442         60.1262 
        1.03092         53.5095         20.0835          59.226 
         1.0432         52.5946         19.5418         58.2655 
        1.05553         51.3036          19.018         57.8028 
        1.06777         50.8073         18.5173         56.8924 
           1.08          49.616         18.0352         56.0688 
        1.09227         49.0365         17.5688         55.2903 
         1.1046         48.3086         17.1172          54.539 
         1.1169         47.7498         16.6824         53.7575 
        1.12915         46.9334         16.2649         53.1737 
        1.14142         46.0316         15.8608          52.502 
        1.15365         45.3589         15.4717         51.8939 
        1.16585         44.6719         15.0968         51.1502 
        1.17807         43.9505         14.7339         50.4894 
        1.19037         43.8173         14.3805         50.0378 
        1.20276         43.0492         14.0364         49.4145 
        1.21504         42.4539         13.7063         48.8633 
        1.22728         41.6457         13.3883         48.2821 
        1.23954         41.1808         13.0796         47.6102 
        1.25184          40.481           12.78          47.177 
        1.26414         39.9163         12.4898         46.5662 
        1.27632         39.5932         12.2112         46.0899 
         1.2886         39.1737         11.9392         45.5911 
        1.30093         38.4903         11.6745         45.0039 
        1.31316         37.9096         11.4198          44.635 
        1.32541         37.6511         11.1726         44.1282 
        1.33772         36.9263         10.9315         43.6648 
        1.35005         36.5059         10.6973         43.2361 
        1.36225         35.9207         10.4723         42.8167 
        1.37447         35.0823         10.2535         42.3342 
        1.38676         35.1996         10.0399         41.9623 
        1.39907         34.6309         9.83199         41.5768 
        1.41133         33.9244         9.63093         41.1387 
        1.42358         33.5844         9.43569         40.7093 
        1.43591         33.1814         9.24453         40.3606 
        1.44818         32.8492         9.05974         39.8951 
        1.46037         32.4277         8.88111         39.5327 
        1.47263         32.1918         8.70631         39.2182 
        1.48494         31.5693         8.53555         38.8035 
        1.49724         31.4866         8.36953         38.4436 
        1.50952         30.9908         8.20826          38.134 
        1.52178          30.536         8.05149         37.7659 
        1.53409         30.2853         7.89819         37.4337 
        1.54637         29.8923         7.74921         37.0552 
        1.55858         29.2085         7.60492         36.7389 
        1.57081         29.2981         7.46411         36.4539 
        1.58313         28.9324         7.32599         36.1063 
        1.59544         28.3918         7.19145         35.8064 
        1.60767         28.0749         7.06116         35.4517 
        1.61994         27.7355         6.93364         35.1765 
        1.63225         27.6043         6.80902         34.9142 
        1.64452         27.1799         6.68781         34.6207 
        1.65676         26.9006         6.56993         34.3065 
          1.669         26.6403         6.45481         34.0601 
        1.68133         26.2949         6.34173         33.7494 
        1.69363         25.9301         6.23168         33.4206 
        1.70585         25.7238         6.12496         33.2449 
        1.71809         25.3084         6.02052         32.8978 
        1.73038         25.1783         5.91819         32.6921 
        1.74268         24.8668         5.81818         32.3634 
        1.75493         24.5489         5.72094         32.1382 
        1.76714         24.4194         5.62617         31.9034 
        1.77942         24.1467         5.53307         31.6354 
        1.79173         23.7024         5.44184         31.3874 
        1.80402         23.4696         5.35286         31.2226 
         1.8163          23.373         5.26592         30.8531 
         1.8286         22.9627         5.18077         30.6756 
         1.8409         22.7645         5.09757         30.4456 
        1.85315          22.542         5.01648         30.2316 
        1.86537         22.2375         4.93732         30.0021 
        1.87765         22.1098         4.85957         29.7682 
        1.88995         21.8083         4.78331         29.5063 
        1.90221         21.5952         4.70895         29.2962 
        1.91445         21.3281          4.6363         29.0833 
        1.92674         21.1399         4.56493         28.8672 
        1.93902         20.8897         4.49506         28.6835 
        1.95124         20.5825         4.42703         28.5221 
         1.9635         20.4619         4.36023         28.2652 
        1.97583         20.2504         4.29439         28.0662 
        1.98812         20.0807         4.23016         27.8834 
        2.00039         19.8652         4.16737         27.6751 
        2.01264         19.6368         4.10592         27.4958 
        2.02492         19.4793         4.04561         27.2649 
        2.03717         19.1857         3.98662         27.0887 
        2.04942         19.0344         3.92888         26.8843 
        2.06171         18.8968          3.8721         26.7085 
        2.07397          18.707         3.81655         26.4999 
        2.08629         18.5295         3.76187         26.3114 
        2.09857         18.3496         3.70839         26.1478 
        2.11081          18.114         3.65617         25.9654 
        2.12309         17.9878         3.60483          25.784 
        2.13538          17.764          3.5544         25.6123 
        2.14763         17.5913         3.50511         25.4414 
        2.15986         17.4824         3.45687         25.2771 
        2.17214         17.2766         3.40934         25.1107 
        2.18443         17.1071         3.36265         24.9236 
        2.19671          16.934          3.3169         24.7474 
        2.20898         16.7716         3.27206         24.5847 
        2.22126         16.6432         3.22799         24.4342 
        2.23354         16.5574         3.18475         24.2692 
         2.2458         16.3473         3.14238         24.1345 
        2.25807         16.1429         3.10075         23.9299 
        2.27035         16.0195         3.05983         23.7908 
        2.28263          15.855         3.01967         23.6362 
         2.2949         15.7698         2.98025         23.4943 
        2.30718         15.6265         2.94153         23.3461 
        2.31946         15.5013         2.90347         23.1814 
        2.33169         15.3363         2.86625          23.032 
        2.34393         15.1969         2.82963         22.9038 
        2.35622         14.9956         2.79353           22.75 
        2.36847          14.893         2.75816         22.5939 
        2.38076         14.7336          2.7233         22.4668 
        2.39305          14.634         2.68905         22.3202 
        2.40534         14.4857         2.65538         22.1521 
        2.41762         14.3482          2.6223          22.049 
        2.42989         14.2338         2.58983         21.8872 
        2.44216         14.1015         2.55792         21.7546 
         2.4544         14.0817         2.52661         21.6056 
        2.46667         13.8968         2.49576         21.4849 
        2.47897         13.7263         2.46535         21.3406 
        2.49124         13.6721         2.43553           21.21 
        2.50349          13.513         2.40625         21.0682 
        2.51578         13.4168         2.37736         20.9668 
        2.52805         13.3132           2.349         20.8288 
        2.54029         13.2281         2.32117         20.7003 
        2.55257         13.1357          2.2937         20.5703 
        2.56487         12.9542         2.26663         20.4481 
        2.57716         12.8828         2.24004         20.3057 
        2.58942         12.8078         2.21393         20.2063 
        2.60167         12.6527         2.18826         20.0825 
        2.61395         12.6444         2.16296         19.9585 
        2.62624         12.5347         2.13802         19.8356 
        2.63849         12.4043         2.11356         19.7345 
        2.65073         12.3107         2.08951         19.6027 
        2.66302         12.2388         2.06574          19.496 
         2.6753         12.1804         2.04236         19.3708 
        2.68756         12.0809         2.01939          19.265 
        2.69983         11.9829         1.99676         19.1441 
        2.71213         11.8862         1.97442         19.0178 
        2.72441         11.8445         1.95247          18.917 
        2.73665         11.7697         1.93091         18.8059 
         2.7489         11.7097         1.90968         18.6886 
        2.76118         11.5855          1.8887          18.586 
        2.77349         11.5254           1.868         18.4769 
        2.78576         11.4322         1.84768         18.3768 
        2.79802         11.3972         1.82767         18.2624 
        2.81031         11.3247         1.80792         18.1531 
        2.82259         11.2787         1.78847         18.0553 
        2.83483         11.2121         1.76937          17.954 
         2.8471         11.1483         1.75052         17.8442 
         2.8594         11.1127         1.73188         17.7359 
         2.8717         11.0518         1.71353         17.6404 
        2.88396           10.98          1.6955          17.539 
        2.89619         10.9451         1.67777         17.4365 
        2.90847         10.8988         1.66023         17.3458 
        2.92072         10.8631         1.64296         17.2312 
        2.93299         10.7773         1.62593         17.1434 
        2.94526         10.7648         1.60913         17.0531 
        2.95753          10.717         1.59257         16.9502 
        2.96982         10.6723         1.57622         16.8536 
        2.98209         10.6669         1.56013         16.7595 
        2.99436         10.6426         1.54425         16.6598 
        3.00666         10.6113         1.52856         16.5679 
        3.01894         10.5875         1.51313          16.489 
        3.03119         10.5496         1.49792         16.3915 
        3.04345         10.4858         1.48293         16.2876 
        3.05573         10.5104         1.46811         16.2014 
          3.068         10.4899         1.45351         16.1199 
        3.08026          10.467         1.43912         16.0173 
        3.09254         10.4703          1.4249         15.9365 
        3.10483         10.4612         1.41087         15.8586 
         3.1171         10.4832         1.39705         15.7657 
        3.12933         10.4567         1.38345         15.6772 
        3.14159         10.4225         1.37001         15.5878 
