# k  (h/Mpc)    Pcb(k)  (Mpc/h)^3    Pcb_linear(k) (Mpc/h)^3    Pcb_NL(k) (Mpc/h)^3   ShotnoiseSubtracted = false
      0.0156606         22450.4         22578.2         22397.4 
      0.0273761         19233.6         19519.8         19301.3 
      0.0384619         14538.9         14705.3         14510.5 
      0.0498308         11222.4         11566.4         11370.1 
      0.0625568         9481.71         9829.75         9655.54 
      0.0751274         8449.22         8351.31         8106.96 
      0.0867833         6541.35         6723.66         6647.72 
      0.0984825         5534.75         5320.88         5387.36 
       0.111151          4738.1         4442.81          4526.5 
       0.123864         4243.47         4003.85         4071.44 
       0.135742         3871.54         3600.45         3668.11 
        0.14762          3372.7         3078.55         3257.59 
       0.160083         2869.99         2566.14         2787.62 
       0.172465         2559.55         2239.75         2521.92 
       0.184281         2317.11         2064.78         2347.23 
       0.196406         2190.32         1906.81         2163.25 
       0.209011         2051.45         1696.58         1961.88 
       0.221538         1846.11         1482.65         1834.11 
       0.233611         1772.95         1326.58         1720.69 
       0.245665         1605.86         1224.38            1590 
       0.258103         1593.49         1139.79         1501.97 
       0.270422         1420.88         1047.34         1412.12 
       0.282519         1344.19         950.518         1338.82 
       0.294636            1318         866.027         1269.19 
       0.306978         1206.37          801.22         1217.21 
       0.319417         1184.25         749.094         1147.98 
        0.33169         1112.53         699.199         1088.07 
       0.343948         1069.07         647.848         1055.15 
       0.356249         1014.48          599.69         1016.72 
       0.368458         973.018         559.354         972.814 
        0.38068         959.092         525.622         936.523 
       0.392856         911.453         494.829         904.614 
       0.405069          863.74          464.72         875.134 
       0.417459          830.73         435.567         845.576 
       0.429752          828.36         409.396          816.27 
       0.441978         799.178         386.427         796.023 
       0.454294         764.544         365.569         764.087 
        0.46658         742.921         345.998         748.773 
       0.478753         729.311         327.535         726.565 
       0.490964         701.197         310.193         704.685 
       0.503334         671.713         294.186         689.496 
       0.515665         668.985         279.589         673.931 
       0.527909         640.959         266.114          660.31 
       0.540159         625.611         253.366         644.036 
        0.55248         612.914         241.269         627.553 
       0.564743         607.652         230.069         616.991 
        0.57686         588.007         219.774         600.984 
       0.589077         578.202         210.057         587.958 
       0.601441         564.039         200.816         576.768 
        0.61382         548.088         192.104         566.697 
       0.626067         542.368         183.974          556.42 
       0.638306         522.673         176.319         545.133 
       0.650632         517.791         169.065         532.554 
       0.662899         513.531         162.268         526.065 
       0.675076          497.25         155.898         519.129 
       0.687267         482.829         149.862         506.963 
       0.699615         481.556          144.07          498.99 
       0.711937         471.149         138.594         489.588 
       0.724148         455.983          133.45         483.212 
       0.736433         445.322         128.541         474.771 
       0.748747         439.643         123.872         466.495 
       0.761037         431.862         119.446          460.97 
       0.773197         425.067         115.282         453.311 
       0.785376         419.771         111.312         446.873 
       0.797761          407.17         107.468         440.387 
       0.810096         402.459          103.82         434.784 
       0.822371         391.983         100.359         427.782 
       0.834626         387.998         97.0629           422.9 
       0.846916           382.2         93.9066         416.285 
       0.859215         377.435         90.8897         410.199 
       0.871383         369.029         88.0359         404.864 
        0.88363         364.586         85.2884         400.791 
       0.895928         359.509         82.6482         394.596 
       0.908253         350.597         80.1155         388.116 
       0.920535         343.486         77.6979         384.029 
       0.932774         338.453         75.3889         378.183 
        0.94508         333.225         73.1627         374.436 
       0.957324         329.644         71.0376         369.463 
        0.96953         325.414         69.0039         365.012 
       0.981769         317.579          67.045         360.955 
       0.994071          316.33         65.1532          356.59 
         1.0064         310.358         63.3315         351.417 
        1.01868         306.732          61.585         346.968 
        1.03092         297.563         59.9126         343.953 
         1.0432         294.729         58.2965         339.798 
        1.05553         291.602          56.734         335.117 
        1.06777          287.56         55.2403         331.328 
           1.08         280.969         53.8022         327.686 
        1.09227         280.271         52.4108         323.756 
         1.1046         274.632         51.0637         320.711 
         1.1169         268.747         49.7664         316.469 
        1.12915         264.979         48.5209         313.251 
        1.14142         259.588         47.3155         309.573 
        1.15365         256.648         46.1548          306.33 
        1.16585         252.189         45.0363         302.913 
        1.17807         249.719         43.9536         299.628 
        1.19037         245.279         42.8995         297.098 
        1.20276         242.252          41.873         293.221 
        1.21504         237.195         40.8883         289.934 
        1.22728         233.701         39.9394         286.788 
        1.23954         232.304         39.0185         283.916 
        1.25184         226.936          38.125         280.925 
        1.26414         222.381         37.2592         278.273 
        1.27632         220.499         36.4281         275.719 
         1.2886         218.466         35.6165         272.595 
        1.30093         213.499          34.827         269.139 
        1.31316         208.956         34.0671         266.571 
        1.32541         207.836         33.3299         263.739 
        1.33772         204.132         32.6104         261.351 
        1.35005         201.696         31.9118         258.399 
        1.36225         197.777         31.2407         255.985 
        1.37447         194.645         30.5878         252.885 
        1.38676         192.761         29.9506         251.106 
        1.39907         189.921         29.3305         248.039 
        1.41133          186.23         28.7307         245.449 
        1.42358         183.963         28.1482         243.142 
        1.43591         181.518          27.578         240.967 
        1.44818         178.007         27.0267         238.427 
        1.46037          176.51         26.4938         235.868 
        1.47263         173.008         25.9724         233.642 
        1.48494         171.537          25.463         230.841 
        1.49724         168.494         24.9677         229.395 
        1.50952         165.475         24.4866         226.736 
        1.52178         163.662         24.0189         224.476 
        1.53409         160.696         23.5616         222.433 
        1.54637         158.207         23.1172         220.595 
        1.55858         156.468         22.6868         218.248 
        1.57081         153.688         22.2667         216.137 
        1.58313         151.692         21.8547          213.94 
        1.59544         148.884         21.4533         212.035 
        1.60767          147.48         21.0646         210.153 
        1.61994         144.961         20.6842         208.045 
        1.63225         142.634         20.3125         205.935 
        1.64452         140.341         19.9509         204.111 
        1.65676         138.552         19.5992         202.361 
          1.669         136.937         19.2558         200.348 
        1.68133         134.231         18.9184          198.52 
        1.69363         131.901         18.5902          196.87 
        1.70585         129.834         18.2718         195.037 
        1.71809         128.132         17.9602         192.948 
        1.73038         126.506          17.655         191.341 
        1.74268          125.33         17.3566         189.468 
        1.75493          122.42         17.0665         187.938 
        1.76714         121.808         16.7838         186.296 
        1.77942          119.23         16.5061         184.557 
        1.79173         117.446         16.2339         182.824 
        1.80402         115.883         15.9685         181.197 
         1.8163         113.781         15.7091         179.754 
         1.8286         112.265         15.4551         177.989 
         1.8409         110.916         15.2069         176.339 
        1.85315         108.687          14.965         174.893 
        1.86537         107.649         14.7288         173.418 
        1.87765         106.279         14.4969         171.933 
        1.88995         104.316         14.2694         170.289 
        1.90221         103.043         14.0476         168.966 
        1.91445         101.478         13.8309          167.34 
        1.92674         99.8444          13.618         165.864 
        1.93902         98.6387         13.4095         164.369 
        1.95124         97.2543         13.2066         162.988 
         1.9635         95.6406         13.0073          161.57 
        1.97583         94.1714         12.8109         160.143 
        1.98812         92.8077         12.6193         159.007 
        2.00039         91.7609          12.432         157.472 
        2.01264         90.6157         12.2486         156.177 
        2.02492         89.3426         12.0687         154.744 
        2.03717         87.9667         11.8928         153.534 
        2.04942         86.8383         11.7205         152.218 
        2.06171         85.2988         11.5511         150.865 
        2.07397          84.298         11.3854         149.721 
        2.08629         82.9963         11.2223         148.412 
        2.09857         82.0046         11.0628         147.228 
        2.11081         80.6641          10.907         145.868 
        2.12309         79.6506         10.7538         144.757 
        2.13538         78.3373         10.6034         143.491 
        2.14763         77.2691         10.4563         142.327 
        2.15986         76.4002         10.3124         141.056 
        2.17214         75.3026         10.1706         139.973 
        2.18443         74.3687         10.0314         138.974 
        2.19671         73.4173         9.89487         137.761 
        2.20898         72.4503         9.76109         136.523 
        2.22126         71.3802         9.62964         135.525 
        2.23354         70.4998         9.50066         134.444 
         2.2458         69.1279         9.37426         133.306 
        2.25807         68.4415         9.25005         132.243 
        2.27035         67.4502         9.12799         131.168 
        2.28263          66.621         9.00819         130.171 
         2.2949         65.3271          8.8906         129.143 
        2.30718         64.4495         8.77507         128.082 
        2.31946         63.8607         8.66154         126.987 
        2.33169         62.8451         8.55052         126.037 
        2.34393         62.3212         8.44126         125.152 
        2.35622         61.2226         8.33357         124.082 
        2.36847         60.6123         8.22805         123.224 
        2.38076         59.5212         8.12405         122.139 
        2.39305         58.9537         8.02188         121.297 
        2.40534         58.0639         7.92146         120.285 
        2.41762          57.443         7.82277         119.327 
        2.42989         56.5298         7.72591          118.46 
        2.44216         56.0194          7.6307         117.471 
         2.4544         55.1248         7.53732         116.625 
        2.46667         54.3473         7.44528         115.735 
        2.47897         53.8365         7.35456         114.777 
        2.49124         53.2086          7.2656         113.923 
        2.50349         52.3131         7.17825          113.08 
        2.51578         51.9379         7.09206         112.311 
        2.52805         51.1231         7.00745         111.373 
        2.54029         50.6143         6.92443         110.526 
        2.55257         49.9524          6.8425         109.761 
        2.56487         49.6275         6.76174         108.942 
        2.57716         49.0548          6.6824          108.13 
        2.58942         48.2522         6.60451         107.334 
        2.60167          47.724         6.52794         106.556 
        2.61395         47.3759         6.45247         105.748 
        2.62624         46.5772         6.37808          104.91 
        2.63849         46.0845         6.30511          104.18 
        2.65073         45.4671         6.23335         103.415 
        2.66302         45.0846         6.16246         102.655 
         2.6753         44.4955         6.09271         101.935 
        2.68756         44.1746         6.02418          101.16 
        2.69983         43.6206         5.95667         100.439 
        2.71213         43.1262         5.89004         99.7239 
        2.72441         42.7344         5.82455         98.9904 
        2.73665         42.2611         5.76022         98.3135 
         2.7489         41.8032         5.69689         97.6242 
        2.76118         41.4121         5.63432         96.8952 
        2.77349           40.96         5.57254         96.2265 
        2.78576         40.5769         5.51194         95.5205 
        2.79802         40.2247         5.45226         94.9099 
        2.81031         39.6865         5.39333         94.2169 
        2.82259         39.3097          5.3353         93.5172 
        2.83483         38.8856         5.27833          92.909 
         2.8471         38.5171         5.22209         92.2339 
         2.8594         38.1236          5.1665         91.5805 
         2.8717         37.8604         5.11174         90.9904 
        2.88396         37.5428         5.05797         90.3548 
        2.89619         37.2343         5.00507         89.6832 
        2.90847         36.8741         4.95273         89.0304 
        2.92072         36.5909         4.90123          88.483 
        2.93299         36.4444         4.85044         87.8957 
        2.94526         36.0732         4.80032          87.273 
        2.95753          35.838         4.75092         86.6646 
        2.96982         35.4636         4.70213         86.0908 
        2.98209         35.3386         4.65413         85.5125 
        2.99436         35.0491         4.60676          84.901 
        3.00666          34.912         4.55996         84.3334 
        3.01894         34.6861         4.51391          83.777 
        3.03119         34.4506         4.46856         83.2393 
        3.04345          34.248         4.42383         82.6914 
        3.05573          34.151         4.37962         82.1284 
          3.068         33.9377         4.33606         81.5875 
        3.08026          33.747         4.29314         81.0423 
        3.09254         33.6769         4.25073         80.5144 
        3.10483         33.6751         4.20887         79.9876 
         3.1171         33.4943         4.16764          79.452 
        3.12933         33.2622         4.12707         78.9243 
        3.14159          33.269         4.08696         78.3985 
