# k  (h/Mpc)    Pcb(k)  (Mpc/h)^3    Pcb_linear(k) (Mpc/h)^3    Pcb_NL(k) (Mpc/h)^3   ShotnoiseSubtracted = false
      0.0156606         9761.45         9786.37         9727.97 
      0.0273761          8427.4         8463.98         8415.88 
      0.0384619         6397.07         6377.55         6342.73 
      0.0498308         4978.24         5016.76         4984.47 
      0.0625568         4201.72         4263.83          4232.8 
      0.0751274         3695.32         3622.69         3576.69 
      0.0867833         2892.77         2916.72         2905.31 
      0.0984825         2392.58         2308.24         2327.17 
       0.111151         2021.93         1927.36         1947.41 
       0.123864         1815.69         1736.95          1753.8 
       0.135742         1640.83         1561.96         1579.29 
        0.14762         1408.25         1335.56         1378.88 
       0.160083         1173.44         1113.27         1163.58 
       0.172465         1044.31          971.67         1034.26 
       0.184281         962.654         895.766         961.071 
       0.196406         883.784         827.239         881.005 
       0.209011         810.953         736.032         793.997 
       0.221538         730.084         643.224         723.964 
       0.233611         675.776         575.519         666.129 
       0.245665         627.437         531.182         612.742 
       0.258103         587.155         494.485         575.567 
       0.270422         538.184         454.375         535.083 
       0.282519         494.003         412.371         497.095 
       0.294636         488.071         375.716         464.825 
       0.306978         433.539           347.6         440.215 
       0.319417         416.723         324.986         413.813 
        0.33169         391.282          303.34         389.073 
       0.343948         373.115         281.062         371.505 
       0.356249         348.528         260.169         354.258 
       0.368458         337.454          242.67         333.539 
        0.38068         321.914         228.036         317.844 
       0.392856         301.244         214.677         304.327 
       0.405069         289.012         201.614         292.708 
       0.417459          275.85         188.966         277.173 
       0.429752         266.004         177.613          266.41 
       0.441978         256.958         167.648         257.754 
       0.454294         240.121         158.599          245.41 
        0.46658          239.63         150.108         237.887 
       0.478753         227.603         142.098         229.246 
       0.490964         220.314         134.575         220.826 
       0.503334         208.323          127.63         213.984 
       0.515665         204.843         121.297         208.725 
       0.527909         198.699         115.451         200.647 
       0.540159         192.522         109.921          194.83 
        0.55248         187.994         104.673         188.549 
       0.564743         182.587         99.8133          184.03 
        0.57686         176.457         95.3472         178.076 
       0.589077         169.074         91.1313         174.053 
       0.601441         165.925         87.1225         169.623 
        0.61382             164         83.3428         164.918 
       0.626067         158.639         79.8157         160.812 
       0.638306         152.024         76.4944         157.264 
       0.650632         147.231         73.3475         151.953 
       0.662899         147.338         70.3986         148.911 
       0.675076          142.07          67.635         145.419 
       0.687267         138.497         65.0163          142.15 
       0.699615         135.108         62.5035          139.23 
       0.711937         131.477          60.128         135.907 
       0.724148         129.695         57.8962         133.978 
       0.736433         125.785         55.7666         130.628 
       0.748747          123.02         53.7409         127.867 
       0.761037         120.883         51.8208         124.983 
       0.773197         118.243         50.0144         123.589 
       0.785376          116.29          48.292         120.569 
       0.797761          114.49         46.6241         118.921 
       0.810096         110.901         45.0415         116.369 
       0.822371         108.214         43.5402         114.317 
       0.834626         106.225           42.11         112.347 
       0.846916         105.126         40.7407         110.527 
       0.859215         103.255         39.4318          108.47 
       0.871383         101.617         38.1937         106.651 
        0.88363         99.1322         37.0017         105.274 
       0.895928         97.2748         35.8563         103.678 
       0.908253         94.7388         34.7575         101.786 
       0.920535         94.2788         33.7086         100.406 
       0.932774         91.9734         32.7069          98.619 
        0.94508         91.0098         31.7411         97.1211 
       0.957324         89.2283         30.8191         95.8509 
        0.96953          89.231         29.9368         94.2063 
       0.981769         86.2681         29.0869         93.2432 
       0.994071         85.4301         28.2662         91.8699 
         1.0064         83.5052         27.4759         90.5318 
        1.01868         82.7158         26.7182         89.3965 
        1.03092         81.1092         25.9926         88.1842 
         1.0432         79.7425         25.2915         86.9342 
        1.05553         77.6645         24.6136         86.1636 
        1.06777         77.5154         23.9656          85.024 
           1.08         75.9361         23.3417         83.8778 
        1.09227         74.7618          22.738         82.6836 
         1.1046         73.5377         22.1536         81.6935 
         1.1169         72.6906         21.5908          80.522 
        1.12915         71.7459         21.0504         79.7119 
        1.14142         70.3615         20.5275         78.7353 
        1.15365         69.0459         20.0239         77.8343 
        1.16585         68.1793         19.5387         76.8345 
        1.17807         67.1372         19.0689         76.0109 
        1.19037         67.0375         18.6116         75.2565 
        1.20276         65.6311         18.1663         74.3828 
        1.21504         65.1508         17.7391         73.4846 
        1.22728         63.7342         17.3274         72.7437 
        1.23954         63.0945         16.9279         71.8153 
        1.25184         62.0175         16.5403         71.1957 
        1.26414         61.0189         16.1646         70.3667 
        1.27632         60.4748          15.804         69.7394 
         1.2886         59.7415          15.452         68.8714 
        1.30093         58.9334         15.1094         68.0208 
        1.31316         58.0857         14.7798         67.5714 
        1.32541          57.702         14.4599         66.8103 
        1.33772         56.7023         14.1478         66.1135 
        1.35005         56.1522         13.8447         65.4922 
        1.36225         55.1859         13.5536         64.8213 
        1.37447         53.9138         13.2703         64.1456 
        1.38676         54.0578         12.9938         63.5054 
        1.39907          53.167         12.7248         63.0101 
        1.41133         52.1357         12.4646         62.4853 
        1.42358         51.5223         12.2119         61.7256 
        1.43591         51.1386         11.9645         61.2343 
        1.44818         50.4302         11.7253         60.5158 
        1.46037         49.8435         11.4942         60.0826 
        1.47263         49.2901         11.2679         59.5953 
        1.48494         48.4406         11.0469         58.9606 
        1.49724         47.9543         10.8321         58.4158 
        1.50952         47.6022         10.6233          57.874 
        1.52178          46.888         10.4204         57.4202 
        1.53409         46.4633          10.222         56.9128 
        1.54637         45.5621         10.0292         56.3639 
        1.55858         44.8047         9.84248          55.821 
        1.57081         44.6766         9.66024         55.4495 
        1.58313         44.1108         9.48149         54.9862 
        1.59544          43.404         9.30736         54.4476 
        1.60767         42.8665         9.13873         53.9791 
        1.61994          42.252          8.9737         53.5449 
        1.63225         41.9506         8.81241         53.0499 
        1.64452         41.4868         8.65554         52.6556 
        1.65676         40.8861         8.50298         52.1687 
          1.669         40.5661         8.35399         51.8157 
        1.68133         40.1961         8.20763         51.3115 
        1.69363          39.506         8.06521         50.9213 
        1.70585         39.2655         7.92708         50.5757 
        1.71809         38.5383         7.79191         50.0615 
        1.73038          38.326         7.65947         49.7479 
        1.74268          37.687         7.53003         49.2546 
        1.75493         37.3295         7.40418         48.8936 
        1.76714         36.8786         7.28154         48.5239 
        1.77942          36.605         7.16105         48.1445 
        1.79173         36.0966         7.04298         47.7291 
        1.80402         35.6887         6.92781         47.4518 
         1.8163         35.3381          6.8153         46.9444 
         1.8286         34.8358         6.70509         46.6726 
         1.8409         34.4654         6.59741         46.2436 
        1.85315         34.1106         6.49246          45.975 
        1.86537         33.6721            6.39         45.6236 
        1.87765          33.451         6.28938         45.2411 
        1.88995         32.9252         6.19068         44.8273 
        1.90221         32.6743         6.09445          44.503 
        1.91445         32.1349         6.00042         44.2175 
        1.92674         31.8729         5.90805         43.8442 
        1.93902         31.5309         5.81762         43.5357 
        1.95124         31.0346         5.72957         43.2587 
         1.9635         30.7491         5.64312         42.9016 
        1.97583         30.4379         5.55791         42.6308 
        1.98812         30.0752         5.47478         42.2895 
        2.00039          29.718         5.39352         41.9701 
        2.01264         29.3521         5.31398         41.7029 
        2.02492         29.1078         5.23594         41.3789 
        2.03717         28.7295         5.15959          41.065 
        2.04942         28.4489         5.08486         40.7515 
        2.06171         28.1483         5.01137         40.4768 
        2.07397         27.8718         4.93948         40.1709 
        2.08629         27.5384         4.86871         39.8802 
        2.09857         27.2436         4.79949          39.613 
        2.11081          26.916         4.73191          39.318 
        2.12309         26.7063         4.66546          39.028 
        2.13538         26.2325          4.6002         38.7999 
        2.14763         26.1123          4.5364         38.5004 
        2.15986         25.8032         4.47397         38.2076 
        2.17214         25.5167         4.41245         37.9776 
        2.18443         25.2314         4.35203         37.6615 
        2.19671         24.9072         4.29282         37.4148 
        2.20898         24.6552         4.23478         37.1355 
        2.22126         24.5518         4.17775          36.878 
        2.23354         24.2272         4.12179         36.6682 
         2.2458         23.9845         4.06696         36.4004 
        2.25807         23.6371         4.01307         36.1237 
        2.27035         23.3897         3.96011          35.902 
        2.28263         23.2083         3.90814         35.6642 
         2.2949         22.9635         3.85712         35.4183 
        2.30718         22.7605           3.807         35.1516 
        2.31946         22.5686         3.75775         34.9185 
        2.33169         22.2839         3.70958         34.6846 
        2.34393         22.0358         3.66218         34.4482 
        2.35622          21.832         3.61546         34.2447 
        2.36847         21.5892         3.56968         33.9773 
        2.38076          21.429         3.52456         33.7884 
        2.39305         21.1336         3.48023         33.5706 
        2.40534          20.972         3.43667         33.2966 
        2.41762         20.7313         3.39385          33.126 
        2.42989         20.6356         3.35183         32.8588 
        2.44216         20.3084         3.31052         32.6726 
         2.4544          20.219         3.27001         32.4486 
        2.46667         19.9935         3.23008         32.2395 
        2.47897          19.744         3.19072         32.0172 
        2.49124         19.6427         3.15213          31.812 
        2.50349         19.3757         3.11423         31.6037 
        2.51578         19.2192         3.07684         31.4115 
        2.52805         19.0261         3.04013         31.1974 
        2.54029         18.8723         3.00411         30.9929 
        2.55257         18.7419         2.96857         30.7841 
        2.56487         18.4851         2.93353         30.5985 
        2.57716         18.4027         2.89911         30.3787 
        2.58942         18.2314         2.86532          30.212 
        2.60167         18.0181          2.8321         30.0111 
        2.61395         17.8722         2.79936         29.8153 
        2.62624         17.7943         2.76709         29.6197 
        2.63849         17.5847         2.73543         29.4509 
        2.65073         17.3873         2.70429         29.2487 
        2.66302         17.2408         2.67354         29.0776 
         2.6753         17.1691         2.64328         28.8904 
        2.68756         17.0445         2.61355         28.7265 
        2.69983         16.8585         2.58426         28.5137 
        2.71213         16.6854         2.55535         28.3345 
        2.72441         16.5678         2.52694         28.1539 
        2.73665         16.4597         2.49903         27.9773 
         2.7489         16.3263         2.47155         27.8091 
        2.76118          16.224         2.44441         27.6306 
        2.77349         16.1037         2.41761         27.4675 
        2.78576         15.9642         2.39131         27.3104 
        2.79802         15.8588         2.36542         27.1268 
        2.81031         15.7561         2.33986         26.9581 
        2.82259         15.6341         2.31468         26.8077 
        2.83483         15.5686         2.28997         26.6358 
         2.8471         15.4834         2.26557         26.4541 
         2.8594         15.3317         2.24145         26.2888 
         2.8717         15.2742         2.21769         26.1343 
        2.88396         15.1633         2.19436         25.9705 
        2.89619         15.1106         2.17141         25.8145 
        2.90847         14.9997         2.14871         25.6702 
        2.92072         14.9121         2.12636         25.4938 
        2.93299          14.837         2.10433         25.3606 
        2.94526         14.7848         2.08258         25.2136 
        2.95753         14.7467         2.06115         25.0475 
        2.96982         14.6331         2.03999         24.8996 
        2.98209         14.5518         2.01916         24.7559 
        2.99436         14.5303         1.99861         24.6008 
        3.00666         14.4784         1.97831         24.4473 
        3.01894         14.4159         1.95833         24.3117 
        3.03119         14.3754         1.93865         24.1668 
        3.04345         14.3198         1.91925         24.0174 
        3.05573         14.3233         1.90007         23.8772 
          3.068         14.2269         1.88117         23.7357 
        3.08026         14.2181         1.86255         23.5852 
        3.09254         14.1327         1.84415           23.45 
        3.10483         14.1602         1.82599         23.3194 
         3.1171         14.2143          1.8081         23.1841 
        3.12933         14.1528          1.7905          23.048 
        3.14159         14.0745          1.7731         22.9022 
