# k  (h/Mpc)    Pcb(k)  (Mpc/h)^3    Pcb_linear(k) (Mpc/h)^3    Pcb_NL(k) (Mpc/h)^3   ShotnoiseSubtracted = false
      0.0156606         4251.95         4256.61         4234.68 
      0.0273761         3687.91          3682.7         3670.26 
      0.0384619         2802.34         2775.32         2769.41 
      0.0498308         2192.31         2183.33         2179.05 
      0.0625568         1849.72         1855.75         1850.45 
      0.0751274         1608.51         1576.76         1567.89 
      0.0867833         1270.95         1269.51         1268.05 
      0.0984825         1035.84         1004.68         1009.83 
       0.111151         869.443          838.91         844.017 
       0.123864          781.11         756.039         760.167 
       0.135742         702.804         679.874         684.068 
        0.14762         598.155         581.331         591.188 
       0.160083         496.569         484.576         495.757 
       0.172465         439.083         422.944         436.505 
       0.184281         406.939         389.906         404.313 
       0.196406         371.147         360.078         371.343 
       0.209011          336.06         320.379         332.997 
       0.221538         299.837         279.981         297.619 
       0.233611         271.752         250.511         270.164 
       0.245665         255.281         231.213         248.731 
       0.258103         231.142         215.239         232.693 
       0.270422         216.466          197.78         214.854 
       0.282519         196.663         179.497         197.587 
       0.294636         189.819         163.542         182.629 
       0.306978         167.523         151.304         171.084 
       0.319417          160.18          141.46         160.538 
        0.33169         149.141         132.038         150.473 
       0.343948         142.104         122.341         141.315 
       0.356249         131.026         113.247         133.639 
       0.368458         125.588          105.63         124.759 
        0.38068         118.317         99.2598         118.191 
       0.392856         110.368         93.4449         112.502 
       0.405069         104.738         87.7591         106.538 
       0.417459         98.8972         82.2537         100.844 
       0.429752         94.9135         77.3116         96.0104 
       0.441978         90.6663         72.9741         92.2278 
       0.454294         84.3284         69.0352         87.3479 
        0.46658         84.1574         65.3394         83.6931 
       0.478753         78.3481         61.8529         80.2483 
       0.490964         75.8824          58.578         77.0267 
       0.503334         72.7009         55.5551         73.7379 
       0.515665         69.6368         52.7986           71.49 
       0.527909         66.8382          50.254         67.8095 
       0.540159         64.3689         47.8466          65.492 
        0.55248         60.6594         45.5622         62.9114 
       0.564743         59.6064          43.447         60.9264 
        0.57686         57.7394          41.503         58.7664 
       0.589077         54.6492         39.6679         57.0028 
       0.601441         53.0469         37.9229         55.1088 
        0.61382         51.4142         36.2777         53.0761 
       0.626067         49.2962         34.7424         51.5945 
       0.638306         47.8122         33.2967         49.8589 
       0.650632         46.3118         31.9269         48.2027 
       0.662899         44.9998         30.6433         46.7144 
       0.675076         43.0792         29.4404         45.3651 
       0.687267         42.5312         28.3005         44.0303 
       0.699615         41.0032         27.2067         42.9824 
       0.711937         39.2157         26.1727         41.5247 
       0.724148         39.0335         25.2012         40.6947 
       0.736433         36.8471         24.2742         39.4708 
       0.748747         36.3628         23.3925         38.4291 
       0.761037          35.358         22.5567         37.5168 
       0.773197         34.4496         21.7704         36.6838 
       0.785376         33.1637         21.0207         35.7359 
       0.797761         32.6784         20.2947          34.941 
       0.810096         31.9133         19.6058         34.0776 
       0.822371         31.1109         18.9523         33.1909 
       0.834626         30.2033         18.3298          32.592 
       0.846916         29.4204         17.7337         31.7991 
       0.859215         28.4512          17.164         31.0918 
       0.871383         28.0391         16.6251         30.5018 
        0.88363         27.3299         16.1062         29.8937 
       0.895928         26.7321         15.6076         29.1613 
       0.908253         26.1701         15.1293         28.6728 
       0.920535         25.5884         14.6728         28.0495 
       0.932774         25.1671         14.2368         27.4627 
        0.94508         24.5436         13.8164          26.913 
       0.957324         24.0618          13.415         26.4325 
        0.96953         23.4238          13.031          25.893 
       0.981769         23.1045         12.6611         25.4787 
       0.994071         22.5099         12.3038         24.9732 
         1.0064         21.9797         11.9598         24.5446 
        1.01868         21.5338           11.63         24.1353 
        1.03092         21.3542         11.3142         23.6784 
         1.0432         20.6948          11.009         23.2213 
        1.05553         20.3406         10.7139          22.964 
        1.06777         19.7769         10.4318         22.4607 
           1.08         19.3982         10.1602         22.1134 
        1.09227         19.0933         9.89749         21.8074 
         1.1046         18.8138         9.64308         21.3958 
         1.1169         18.4198         9.39811         21.0577 
        1.12915         18.2703         9.16289         20.7658 
        1.14142          17.648         8.93526         20.4162 
        1.15365         17.5194         8.71607         20.1117 
        1.16585         17.3018         8.50485         19.8466 
        1.17807         16.8299         8.30039         19.4729 
        1.19037         16.6565         8.10133         19.2735 
        1.20276         16.3711         7.90748         18.9575 
        1.21504         16.0894         7.72152         18.7246 
        1.22728         15.7267         7.54234         18.4326 
        1.23954         15.5203         7.36843         18.1739 
        1.25184         15.2362         7.19969         17.9383 
        1.26414         15.0325         7.03619         17.6639 
        1.27632         14.7619         6.87924         17.4263 
         1.2886          14.604         6.72598         17.2153 
        1.30093         14.2658         6.57688         17.0407 
        1.31316         14.0915         6.43338         16.7693 
        1.32541         13.8963         6.29416         16.6054 
        1.33772         13.6382         6.15829         16.3694 
        1.35005         13.4752         6.02636          16.185 
        1.36225         13.2646         5.89964         15.9627 
        1.37447          13.019         5.77634         15.7698 
        1.38676         12.8421           5.656         15.5969 
        1.39907          12.632          5.5389         15.4025 
        1.41133         12.4563         5.42563         15.2249 
        1.42358          12.267         5.31564         15.0294 
        1.43591          12.107         5.20795          14.895 
        1.44818         11.8981         5.10385          14.725 
        1.46037          11.816         5.00321         14.5279 
        1.47263         11.5943         4.90474         14.4036 
        1.48494         11.5045         4.80855         14.2009 
        1.49724         11.2913         4.71501         14.0817 
        1.50952         11.1947         4.62417         13.9342 
        1.52178         11.0091         4.53585         13.7648 
        1.53409         10.8036         4.44948         13.6202 
        1.54637         10.7619         4.36555         13.4493 
        1.55858         10.6188         4.28427         13.3315 
        1.57081         10.3905         4.20494         13.2097 
        1.58313         10.3269         4.12713         13.0727 
        1.59544         10.1351         4.05134         12.9502 
        1.60767         10.0339         3.97794         12.8053 
        1.61994         9.86827          3.9061         12.6941 
        1.63225         9.78877         3.83589         12.5763 
        1.64452         9.65715         3.76761         12.4592 
        1.65676         9.52325          3.7012         12.3283 
          1.669         9.45137         3.63635         12.2034 
        1.68133         9.25856         3.57264         12.0859 
        1.69363          9.1552         3.51065         11.9712 
        1.70585          9.0455         3.45053         11.8772 
        1.71809         8.94659         3.39169         11.7654 
        1.73038         8.86421         3.33404         11.6685 
        1.74268         8.75313          3.2777         11.5569 
        1.75493         8.60929         3.22292         11.4355 
        1.76714         8.60463         3.16953         11.3531 
        1.77942         8.48025         3.11708         11.2344 
        1.79173         8.33119         3.06569         11.1468 
        1.80402         8.28598         3.01556         11.0528 
         1.8163         8.17876         2.96658         10.9646 
         1.8286         8.05029         2.91861         10.8714 
         1.8409           7.976         2.87174          10.785 
        1.85315         7.88296         2.82606         10.6823 
        1.86537         7.82159         2.78146         10.5995 
        1.87765         7.74027         2.73766         10.5116 
        1.88995         7.59626          2.6947         10.4315 
        1.90221          7.5686         2.65281         10.3294 
        1.91445         7.46527         2.61188         10.2695 
        1.92674         7.38597         2.57168         10.1712 
        1.93902         7.33182         2.53232         10.1041 
        1.95124         7.23292         2.49399         10.0093 
         1.9635         7.16617         2.45636         9.94218 
        1.97583         7.10799         2.41927         9.85328 
        1.98812         7.03476         2.38308         9.76553 
        2.00039         6.95375         2.34771         9.71406 
        2.01264         6.89165         2.31309         9.63989 
        2.02492         6.83013         2.27912         9.55757 
        2.03717         6.73943         2.24588         9.48816 
        2.04942         6.65259         2.21336         9.42379 
        2.06171         6.63031         2.18136         9.35446 
        2.07397         6.54805         2.15007         9.28617 
        2.08629         6.48188         2.11927         9.22216 
        2.09857         6.41683         2.08914          9.1503 
        2.11081         6.37185         2.05972         9.09716 
        2.12309         6.29089          2.0308         9.01196 
        2.13538         6.23887         2.00239          8.9604 
        2.14763          6.1674         1.97462         8.89674 
        2.15986         6.13235         1.94744         8.83525 
        2.17214         6.07482         1.92067         8.76244 
        2.18443         6.00903         1.89437         8.71012 
        2.19671         5.96314         1.86859         8.65219 
        2.20898         5.88745         1.84333          8.5937 
        2.22126         5.84209          1.8185         8.53052 
        2.23354         5.80046         1.79415         8.46691 
         2.2458         5.73544         1.77028         8.41344 
        2.25807         5.69599         1.74682         8.35791 
        2.27035         5.64459         1.72377         8.30585 
        2.28263         5.60229         1.70115         8.24791 
         2.2949         5.54599         1.67894         8.19947 
        2.30718         5.49896         1.65712         8.15657 
        2.31946          5.4649         1.63569         8.10047 
        2.33169          5.4072         1.61472         8.04412 
        2.34393         5.37995         1.59409         7.99127 
        2.35622         5.33835         1.57375         7.94015 
        2.36847         5.29121         1.55382         7.88972 
        2.38076         5.24944         1.53418         7.84022 
        2.39305         5.18836         1.51489         7.78348 
        2.40534         5.16095         1.49592         7.73474 
        2.41762         5.10859         1.47729         7.69713 
        2.42989           5.089           1.459         7.65223 
        2.44216         5.05548         1.44102         7.60173 
         2.4544         4.99784         1.42338          7.5524 
        2.46667         4.98681           1.406         7.50769 
        2.47897         4.93909         1.38887         7.45776 
        2.49124         4.88975         1.37207         7.41318 
        2.50349         4.87031         1.35557         7.37817 
        2.51578         4.81345          1.3393         7.33343 
        2.52805         4.79327         1.32332         7.28889 
        2.54029         4.75592         1.30764         7.24643 
        2.55257         4.74617         1.29217         7.20677 
        2.56487         4.69656         1.27692         7.15633 
        2.57716         4.66974         1.26194         7.11795 
        2.58942         4.63646         1.24723          7.0776 
        2.60167         4.60863         1.23277         7.03458 
        2.61395         4.55891         1.21851         6.99731 
        2.62624         4.56354         1.20447         6.95905 
        2.63849         4.53323         1.19069          6.9166 
        2.65073          4.4949         1.17713         6.87431 
        2.66302         4.47826         1.16375         6.83535 
         2.6753         4.44258         1.15058         6.79828 
        2.68756         4.41704         1.13763         6.76497 
        2.69983         4.39707         1.12488         6.72147 
        2.71213         4.36965          1.1123         6.68426 
        2.72441         4.34507         1.09993         6.64935 
        2.73665         4.32917         1.08779         6.60986 
         2.7489         4.30132         1.07583         6.57723 
        2.76118         4.27281         1.06401         6.54886 
        2.77349         4.26462         1.05234         6.50571 
        2.78576         4.24442          1.0409         6.47093 
        2.79802         4.22766         1.02963         6.43846 
        2.81031         4.20079          1.0185         6.40532 
        2.82259         4.18571         1.00754         6.37105 
        2.83483         4.17947        0.996784         6.33647 
         2.8471         4.15906        0.986164         6.30417 
         2.8594         4.14726        0.975665          6.2726 
         2.8717         4.11893        0.965323          6.2353 
        2.88396         4.11538         0.95517         6.20317 
        2.89619         4.08251        0.945181         6.17501 
        2.90847         4.08075        0.935297         6.13792 
        2.92072         4.08191        0.925571         6.10703 
        2.93299         4.07616        0.915979         6.07783 
        2.94526         4.06593        0.906513         6.04494 
        2.95753         4.04906        0.897185         6.01352 
        2.96982         4.02597        0.887972         5.98438 
        2.98209         4.02807        0.878907         5.95232 
        2.99436         4.02113        0.869961          5.9223 
        3.00666         4.03028        0.861124          5.8946 
        3.01894         4.01796        0.852428         5.85966 
        3.03119         4.01941        0.843863         5.83226 
        3.04345         4.00826        0.835416          5.8053 
        3.05573         4.01038        0.827067         5.77376 
          3.068         3.99742        0.818842         5.74833 
        3.08026         4.01507        0.810737         5.72099 
        3.09254         4.01561        0.802727         5.69121 
        3.10483         4.01846        0.794823         5.66505 
         3.1171         4.02439        0.787036         5.63899 
        3.12933         4.03472        0.779375         5.60834 
        3.14159         4.02687          0.7718         5.57945 
