# k  (h/Mpc)    P(k)  (Mpc/h)^3    P_linear(k)  (Mpc/h)^3     P_NL(k)  ShotnoiseSubtracted = false
      0.0156606         15600.9         15766.6         15657.3 
      0.0273761         13395.8         13610.9         13497.1 
      0.0384619           10142         10245.9           10151 
      0.0498308         7855.63         8055.04         7961.64 
      0.0625568         6631.32         6843.36         6758.32 
      0.0751274         5874.57         5812.85          5691.5 
      0.0867833         4569.64         4679.31         4644.03 
      0.0984825         3824.04         3702.68         3741.42 
       0.111151          3252.5         3091.41          3135.9 
       0.123864          2917.5         2785.81         2822.42 
       0.135742         2648.11         2505.02         2542.25 
        0.14762         2291.47         2141.84         2239.88 
       0.160083         1925.98         1785.29         1903.14 
       0.172465         1717.65         1558.18         1707.11 
       0.184281         1569.91         1436.43         1588.23 
       0.196406          1459.9         1326.52         1458.34 
       0.209011         1354.24         1180.24         1318.53 
       0.221538          1221.8         1031.41         1220.22 
       0.233611         1153.77         922.834         1135.25 
       0.245665          1055.1         851.733         1045.74 
       0.258103         1021.55         792.885         985.245 
       0.270422         918.363         728.564         921.589 
       0.282519         856.263         661.208         864.975 
       0.294636         847.661         602.431          815.39 
       0.306978         763.482         557.347          777.94 
       0.319417         740.539         521.086         732.423 
        0.33169         697.897         486.376         690.957 
       0.343948          665.81         450.653          666.86 
       0.356249         626.628         417.153         639.734 
       0.368458          607.36         389.093         606.881 
        0.38068         588.058          365.63         581.435 
       0.392856         554.833         344.209         558.896 
       0.405069         530.876         323.263          541.53 
       0.417459         509.342         302.984         516.991 
       0.429752         497.297          284.78          498.38 
       0.441978         480.858         268.801         484.257 
       0.454294         455.417         254.292         463.306 
        0.46658         446.532         240.678         452.198 
       0.478753         433.241         227.835         437.136 
       0.490964         417.462          215.77         422.814 
       0.503334         395.083         204.636         411.781 
       0.515665         393.844         194.483         402.826 
       0.527909         379.636         185.109         391.615 
       0.540159         370.087         176.241         380.627 
        0.55248          362.88         167.826         370.206 
       0.564743         357.621         160.036         363.265 
        0.57686         343.793         152.875         352.729 
       0.589077         332.216         146.115         344.934 
       0.601441         328.616         139.687         337.149 
        0.61382         322.652         133.627         330.605 
       0.626067         317.282         127.972           323.4 
       0.638306         303.487         122.647         317.231 
       0.650632         298.409         117.601         308.088 
       0.662899         296.177         112.873         304.173 
       0.675076         284.806         108.442         298.357 
       0.687267         277.765         104.243         291.458 
       0.699615          273.62         100.214         286.417 
       0.711937         269.218         96.4055         281.261 
       0.724148         261.239          92.827         277.025 
       0.736433         255.625         89.4125         271.356 
       0.748747         251.429         86.1648          266.19 
       0.761037         247.005         83.0861         261.913 
       0.773197         243.652         80.1897          258.43 
       0.785376          240.28         77.4282         253.706 
       0.797761          234.51         74.7539         249.998 
       0.810096         231.561         72.2165         246.338 
       0.822371         222.839         69.8093          242.25 
       0.834626          222.25         67.5163         238.598 
       0.846916         217.718         65.3208         235.119 
       0.859215         217.526         63.2222         231.699 
       0.871383         211.706         61.2371         228.094 
        0.88363             210         59.3259         225.723 
       0.895928         205.161         57.4895         222.208 
       0.908253         199.571         55.7277         218.512 
       0.920535         198.906          54.046         215.573 
       0.932774         192.422         52.4399         212.565 
        0.94508         190.702         50.8914         210.333 
       0.957324         190.272         49.4132         207.171 
        0.96953         187.691         47.9985          204.16 
       0.981769         181.878         46.6359         202.285 
       0.994071          181.06           45.32         199.627 
         1.0064         176.903         44.0528         196.593 
        1.01868         174.547          42.838         194.375 
        1.03092         171.512         41.6747         192.296 
         1.0432         168.188         40.5505           189.9 
        1.05553         165.608         39.4637         187.612 
        1.06777         165.447         38.4247         185.713 
           1.08         161.385         37.4243         183.291 
        1.09227         159.516         36.4565         181.412 
         1.1046         157.031         35.5194         179.385 
         1.1169         154.668         34.6171         176.938 
        1.12915         152.311         33.7507         175.256 
        1.14142         149.907         32.9122         172.968 
        1.15365         147.966         32.1049         171.154 
        1.16585         145.908         31.3268         168.922 
        1.17807         143.899         30.5737         167.704 
        1.19037         142.979         29.8405         165.963 
        1.20276         140.324         29.1265         163.924 
        1.21504         138.262         28.4415         162.162 
        1.22728         135.565         27.7815         160.158 
        1.23954         134.949         27.1409         158.907 
        1.25184         132.298         26.5194         157.101 
        1.26414          130.38         25.9171         155.452 
        1.27632         129.871          25.339         154.599 
         1.2886         127.552         24.7745         152.398 
        1.30093          124.18         24.2253         150.772 
        1.31316          123.71         23.6967         149.143 
        1.32541         121.926         23.1839         148.026 
        1.33772         120.741         22.6835         146.423 
        1.35005         119.109         22.1975         144.791 
        1.36225         117.672         21.7307         143.502 
        1.37447          115.54         21.2766         141.896 
        1.38676         114.601         20.8333          140.47 
        1.39907         112.161          20.402         139.183 
        1.41133         110.691         19.9848         138.034 
        1.42358         109.138         19.5796         136.701 
        1.43591          108.32          19.183         135.163 
        1.44818         107.279         18.7995         134.054 
        1.46037         105.181         18.4288         132.688 
        1.47263         104.008         18.0661         131.689 
        1.48494         102.789         17.7118         130.226 
        1.49724         101.263         17.3673         128.924 
        1.50952          99.507         17.0326         127.793 
        1.52178         98.8685         16.7073         126.577 
        1.53409         97.4498         16.3892         125.494 
        1.54637         95.8109         16.0801         124.376 
        1.55858          94.503         15.7807         123.153 
        1.57081         93.1813         15.4885         122.093 
        1.58313         92.1342         15.2019         120.947 
        1.59544          91.136         14.9227         119.885 
        1.60767         89.7773         14.6523          118.73 
        1.61994         88.4639         14.3877         117.956 
        1.63225         87.2354         14.1291         116.524 
        1.64452         85.9254         13.8776         115.565 
        1.65676         84.7879          13.633         114.611 
          1.669         84.2023         13.3941         113.686 
        1.68133         82.9308         13.1595         112.606 
        1.69363         82.0005         12.9311         111.692 
        1.70585         80.7724         12.7097         110.654 
        1.71809         79.5656         12.4929         109.731 
        1.73038          78.833         12.2806         108.721 
        1.74268         77.5631         12.0731         107.795 
        1.75493         76.8497         11.8713         106.824 
        1.76714         75.5755         11.6746         105.957 
        1.77942          74.994         11.4815         104.982 
        1.79173         73.7104         11.2922         104.132 
        1.80402         73.0131         11.1075          103.31 
         1.8163         71.9678         10.9271         102.261 
         1.8286         70.9442         10.7504         101.502 
         1.8409         70.1429         10.5778         100.621 
        1.85315         69.0495         10.4095         99.8544 
        1.86537         68.3438         10.2452           98.98 
        1.87765         67.6379         10.0839         98.0451 
        1.88995         66.5925         9.92565         97.3343 
        1.90221         65.7962         9.77135         96.4938 
        1.91445         64.5839          9.6206         95.7004 
        1.92674         63.9749          9.4725         94.9304 
        1.93902         63.1652         9.32752         94.0763 
        1.95124          62.702         9.18635         93.4167 
         1.9635         61.5849         9.04773         92.4824 
        1.97583         60.9391         8.91111         91.8742 
        1.98812         60.2094         8.77783         91.0597 
        2.00039         59.2244         8.64754         90.3218 
        2.01264         58.7145         8.52002         89.5655 
        2.02492         57.8498         8.39489         88.8661 
        2.03717           57.03         8.27248         88.0771 
        2.04942         56.4634         8.15267         87.4676 
        2.06171         55.5479         8.03483         86.7058 
        2.07397         54.9626         7.91957         86.0683 
        2.08629           54.45          7.8061         85.3162 
        2.09857         53.7116         7.69513         84.6647 
        2.11081         52.6095         7.58677         83.9136 
        2.12309         52.3507         7.48023         83.3317 
        2.13538         51.5792         7.37559          82.643 
        2.14763         51.0147         7.27331         81.9969 
        2.15986         50.1201          7.1732         81.3364 
        2.17214         49.6141         7.07457         80.7143 
        2.18443         49.1776          6.9777         80.1186 
        2.19671         48.2844         6.88276          79.436 
        2.20898          48.059         6.78971         78.8218 
        2.22126         47.3041         6.69827         78.1738 
        2.23354         46.6691         6.60855         77.6137 
         2.2458         46.1794         6.52063         77.0397 
        2.25807         45.7328         6.43423         76.3826 
        2.27035         45.1239         6.34933         75.7964 
        2.28263         44.4136         6.26599         75.1968 
         2.2949         43.9924          6.1842         74.6358 
        2.30718          43.385         6.10384          74.093 
        2.31946          42.804         6.02487         73.5473 
        2.33169         42.3135         5.94764         72.9702 
        2.34393         41.6172         5.87165         72.4151 
        2.35622         41.3865         5.79674         71.8564 
        2.36847         40.8584         5.72334         71.3484 
        2.38076         40.3932           5.651         70.7762 
        2.39305         39.8646         5.57993         70.2684 
        2.40534         39.4814         5.51008         69.6892 
        2.41762         39.0737         5.44143         69.1462 
        2.42989          38.435         5.37405         68.6921 
        2.44216         38.1767         5.30783         68.1599 
         2.4544           37.73         5.24287         67.6501 
        2.46667         37.2787         5.17885          67.115 
        2.47897         36.8487         5.11575           66.64 
        2.49124         36.3571         5.05387         66.1554 
        2.50349         35.8659         4.99311         65.6576 
        2.51578         35.4783         4.93316         65.2171 
        2.52805         35.3693          4.8743          64.715 
        2.54029         34.8314         4.81655         64.2249 
        2.55257         34.3341         4.75957         63.7765 
        2.56487          34.059         4.70339          63.333 
        2.57716         33.6471          4.6482         62.8989 
        2.58942         33.2538         4.59403         62.4165 
        2.60167         32.7836         4.54076         61.9497 
        2.61395         32.5427         4.48826         61.5169 
        2.62624         32.2853         4.43652         61.0686 
        2.63849         31.9653         4.38576         60.6449 
        2.65073         31.6198         4.33585           60.18 
        2.66302         31.2767         4.28654         59.7625 
         2.6753         30.8924         4.23802         59.3465 
        2.68756         30.4637         4.19035         58.8987 
        2.69983         30.2641         4.14339         58.5133 
        2.71213         29.9695         4.09704         58.1186 
        2.72441          29.764         4.05149         57.6867 
        2.73665         29.4665         4.00674          57.275 
         2.7489         29.2528         3.96269          56.881 
        2.76118         28.8445         3.91917         56.4864 
        2.77349         28.7005          3.8762         56.1007 
        2.78576         28.5001         3.83404         55.6911 
        2.79802         28.1133         3.79253         55.3251 
        2.81031         27.8711         3.75154          54.948 
        2.82259         27.6528         3.71117         54.5466 
        2.83483         27.3809         3.67155         54.1731 
         2.8471         27.0676         3.63243         53.8119 
         2.8594         26.9416         3.59376         53.4571 
         2.8717         26.6416         3.55567         53.0849 
        2.88396         26.4714         3.51827         52.7002 
        2.89619         26.2365         3.48147         52.3427 
        2.90847         26.0583         3.44507         52.0019 
        2.92072         25.9161         3.40924         51.6401 
        2.93299          25.776         3.37391         51.2837 
        2.94526         25.5035         3.33905         50.9576 
        2.95753         25.3673         3.30469         50.6254 
        2.96982         25.3145         3.27075         50.2814 
        2.98209          25.071         3.23736         49.9497 
        2.99436         24.8563         3.20441         49.6052 
        3.00666           24.85         3.17186         49.2793 
        3.01894         24.6484         3.13983         48.9318 
        3.03119         24.5311         3.10828         48.6145 
        3.04345         24.4263         3.07717          48.314 
        3.05573         24.3676         3.04642         47.9968 
          3.068         24.2512         3.01612         47.6779 
        3.08026         24.1067         2.98626         47.3603 
        3.09254         24.0395         2.95676         47.0541 
        3.10483         24.0365         2.92765         46.7535 
         3.1171         23.9803         2.89897         46.4494 
        3.12933         23.9251         2.87075         46.1455 
        3.14159         23.7965         2.84284         45.8439 
