# k  (h/Mpc)    Pcb(k)  (Mpc/h)^3    Pcb_linear(k) (Mpc/h)^3    Pcb_NL(k) (Mpc/h)^3   ShotnoiseSubtracted = false
      0.0156606         6805.92            6818         6780.31 
      0.0273761         5889.28         5897.63         5871.47 
      0.0384619          4473.5         4444.14         4427.83 
      0.0498308         3490.36         3496.03         3481.96 
      0.0625568          2945.3         2971.41         2956.92 
      0.0751274         2576.81         2524.65         2502.26 
      0.0867833         2025.96         2032.68         2027.94 
      0.0984825         1663.68         1608.63         1619.52 
       0.111151         1401.02          1343.2         1354.35 
       0.123864         1258.58         1210.51         1219.85 
       0.135742         1134.81         1088.56         1098.16 
        0.14762         969.467         930.775         953.898 
       0.160083         805.638         775.858         802.287 
       0.172465          715.14         677.178         709.677 
       0.184281         661.507          624.28         658.569 
       0.196406         604.581         576.522         603.999 
       0.209011         551.123         512.958         543.133 
       0.221538         494.371         448.278         490.457 
       0.233611         452.465         401.093          448.29 
       0.245665         423.339         370.194         412.427 
       0.258103         388.711         344.619         386.663 
       0.270422         360.759         316.665          358.21 
       0.282519         329.002         287.392         331.089 
       0.294636         322.187         261.846         307.913 
       0.306978         284.739         242.252         290.126 
       0.319417         272.856         226.491         272.502 
        0.33169         255.074         211.405         255.827 
       0.343948         243.452          195.88         242.307 
       0.356249         226.103         181.319         230.207 
       0.368458         217.924         169.123         215.832 
        0.38068         206.641         158.924         205.071 
       0.392856         192.793         149.614         195.872 
       0.405069         184.083          140.51         186.971 
       0.417459         175.108         131.696         176.915 
       0.429752         168.425         123.783         169.403 
       0.441978         161.881         116.838         163.394 
       0.454294         150.697         110.532         155.099 
        0.46658         150.914         104.614         149.559 
       0.478753         141.572         99.0322         143.875 
       0.490964         137.257         93.7887         138.299 
       0.503334         130.741         88.9487         133.365 
       0.515665         126.916         84.5354         129.746 
       0.527909         122.739         80.4612         123.769 
       0.540159         118.541         76.6067         120.037 
        0.55248         114.025         72.9492         115.753 
       0.564743         110.973         69.5626         112.517 
        0.57686         107.504         66.4501         108.761 
       0.589077         102.528         63.5119         105.951 
       0.601441          100.15         60.7181          102.94 
        0.61382          98.081         58.0839         99.6036 
       0.626067          94.101         55.6258         97.0064 
       0.638306         91.0599          53.311         94.3823 
       0.650632         87.8067         51.1179         91.0494 
       0.662899         87.1692         49.0627         88.8092 
       0.675076         83.9398         47.1367         86.5737 
       0.687267         82.2647         45.3116         84.3683 
       0.699615         79.5632         43.5604         82.6309 
       0.711937         76.9759         41.9049         80.0829 
       0.724148         76.3953         40.3494         78.9119 
       0.736433         72.9325         38.8653         76.6932 
       0.748747         71.7486         37.4535         74.9241 
       0.761037         69.9799         36.1153         73.1416 
       0.773197         68.4555         34.8564         72.1071 
       0.785376         66.5742          33.656         70.2337 
       0.797761         65.9718         32.4936         69.0349 
       0.810096          63.786         31.3907         67.4179 
       0.822371         62.5757         30.3443         65.9932 
       0.834626         61.0473         29.3476         64.8983 
       0.846916         59.9475         28.3933         63.6244 
       0.859215         58.4883         27.4811         62.2744 
       0.871383         57.7185         26.6182         61.2108 
        0.88363          56.153         25.7875         60.2883 
       0.895928         54.9163         24.9892         59.0938 
       0.908253          53.671         24.2234         58.1229 
       0.920535         53.2632         23.4925         57.0918 
       0.932774         52.2324         22.7944         56.1163 
        0.94508         51.4226         22.1212         55.0268 
       0.957324         50.1155         21.4787         54.2609 
        0.96953          49.858         20.8638          53.252 
       0.981769         48.3036         20.2715         52.5707 
       0.994071         47.6634         19.6995         51.7551 
         1.0064         46.6324         19.1487         50.9188 
        1.01868         45.8083         18.6207         50.2029 
        1.03092         45.2189          18.115          49.408 
         1.0432         44.4019         17.6263         48.5484 
        1.05553         43.3662         17.1539         48.1694 
        1.06777         42.7469         16.7023         47.3291 
           1.08         41.7331         16.2675         46.6162 
        1.09227         41.2954         15.8468         46.0202 
         1.1046         40.6877         15.4394          45.321 
         1.1169          40.185         15.0472         44.6852 
        1.12915         39.4863         14.6706         44.1477 
        1.14142         38.6774         14.3062         43.5619 
        1.15365         38.1684         13.9552         43.0379 
        1.16585         37.5899          13.617         42.4225 
        1.17807          36.956         13.2897          41.807 
        1.19037         36.7974          12.971         41.4597 
        1.20276         36.2009         12.6606         40.9003 
        1.21504         35.5676         12.3629         40.4647 
        1.22728          34.945          12.076         39.9358 
        1.23954         34.5542         11.7975         39.3604 
        1.25184         33.9303         11.5274         38.9775 
        1.26414         33.4985         11.2656         38.4618 
        1.27632         33.2016         11.0143         38.0384 
         1.2886         32.8399         10.7689          37.633 
        1.30093         32.1865         10.5302         37.1704 
        1.31316         31.7414         10.3004         36.8014 
        1.32541         31.4842         10.0775         36.3996 
        1.33772         30.8914         9.85998         36.0079 
        1.35005         30.5093         9.64874          35.645 
        1.36225         30.0591         9.44585         35.2909 
        1.37447         29.3797         9.24843         34.8643 
        1.38676         29.3963         9.05577          34.566 
        1.39907         28.9126         8.86828         34.2239 
        1.41133         28.3627         8.68692         33.8275 
        1.42358         28.0873         8.51082         33.4854 
        1.43591          27.689          8.3384          33.189 
        1.44818         27.4313         8.17172         32.8268 
        1.46037         27.1213          8.0106         32.4815 
        1.47263          26.858         7.85293         32.2279 
        1.48494         26.4248         7.69892         31.8798 
        1.49724         26.3471         7.54916          31.585 
        1.50952         25.8441         7.40371         31.3362 
        1.52178         25.5121          7.2623         30.9987 
        1.53409         25.2496         7.12403         30.7268 
        1.54637         24.9834         6.98964         30.4032 
        1.55858         24.4223          6.8595         30.1538 
        1.57081         24.4486         6.73249         29.9008 
        1.58313         24.1522         6.60791         29.6031 
        1.59544         23.6992         6.48656         29.3711 
        1.60767         23.4576         6.36904         29.0655 
        1.61994         23.1429         6.25402         28.8459 
        1.63225         23.0588         6.14161         28.6429 
        1.64452         22.6665         6.03228         28.3926 
        1.65676         22.4565         5.92596         28.1217 
          1.669         22.2497         5.82213         27.9083 
        1.68133         21.8975         5.72013          27.661 
        1.69363         21.6484         5.62087         27.3593 
        1.70585         21.4429          5.5246         27.2284 
        1.71809         21.1298          5.4304         26.9616 
        1.73038         20.9849          5.3381         26.7768 
        1.74268         20.7765         5.24789         26.5077 
        1.75493         20.4587         5.16018          26.322 
        1.76714         20.3952         5.07471         26.1163 
        1.77942         20.1689         4.99073         25.8895 
        1.79173         19.7476         4.90845         25.6985 
        1.80402         19.5619         4.82819         25.5515 
         1.8163          19.487         4.74977         25.2717 
         1.8286         19.1751         4.67296         25.1175 
         1.8409         18.9815         4.59792         24.9302 
        1.85315         18.8231         4.52477         24.7402 
        1.86537         18.5635         4.45337         24.5539 
        1.87765         18.4435         4.38324         24.3619 
        1.88995         18.1897         4.31446          24.163 
        1.90221         18.0364         4.24739         23.9833 
        1.91445         17.8343         4.18186         23.8011 
        1.92674         17.6583         4.11749         23.6293 
        1.93902         17.4473         4.05446         23.4863 
        1.95124         17.2071          3.9931         23.3575 
         1.9635         17.0816         3.93285         23.1353 
        1.97583         16.9136         3.87346         22.9537 
        1.98812         16.7553         3.81553         22.8221 
        2.00039         16.6103         3.75889         22.6503 
        2.01264         16.4299         3.70346          22.507 
        2.02492         16.2695         3.64907         22.3129 
        2.03717         16.0626         3.59586         22.1688 
        2.04942         15.9177         3.54378         22.0039 
        2.06171         15.7963         3.49256         21.8529 
        2.07397         15.6509         3.44246         21.7001 
        2.08629         15.5077         3.39314         21.5534 
        2.09857         15.3657          3.3449         21.4104 
        2.11081         15.1695          3.2978         21.2711 
        2.12309         15.0251         3.25149         21.1157 
        2.13538         14.8563         3.20601         20.9662 
        2.14763         14.7155         3.16155          20.837 
        2.15986         14.6769         3.11803         20.7153 
        2.17214         14.4861         3.07516         20.5644 
        2.18443         14.3131         3.03305         20.4252 
        2.19671          14.209         2.99179         20.2772 
        2.20898         14.0644         2.95134         20.1562 
        2.22126         13.9335         2.91159         20.0275 
        2.23354         13.8783         2.87259         19.8829 
         2.2458         13.6939         2.83437         19.7879 
        2.25807         13.5456         2.79682         19.6168 
        2.27035          13.454         2.75991         19.5028 
        2.28263         13.3135         2.72369         19.3742 
         2.2949         13.2348         2.68814         19.2655 
        2.30718         13.1289         2.65321         19.1552 
        2.31946         12.9914         2.61888         19.0186 
        2.33169         12.8678         2.58531         18.8988 
        2.34393         12.7599         2.55228         18.7898 
        2.35622         12.5953         2.51971         18.6692 
        2.36847         12.5261         2.48781         18.5476 
        2.38076         12.3873         2.45637          18.436 
        2.39305         12.2723         2.42547         18.3145 
        2.40534         12.1883         2.39511         18.1847 
        2.41762         12.0843         2.36527         18.1004 
        2.42989         11.9961         2.33598         17.9795 
        2.44216         11.8823          2.3072         17.8596 
         2.4544         11.8253         2.27896         17.7478 
        2.46667         11.7077         2.25113         17.6526 
        2.47897           11.58          2.2237          17.532 
        2.49124         11.5059         2.19681         17.4295 
        2.50349         11.3997         2.17039         17.3196 
        2.51578         11.3125         2.14434         17.2349 
        2.52805          11.229         2.11875         17.1276 
        2.54029         11.1616         2.09365         17.0264 
        2.55257         11.0969         2.06888         16.9201 
        2.56487          10.923         2.04446         16.8161 
        2.57716         10.8765         2.02047         16.7078 
        2.58942         10.8128         1.99692         16.6287 
        2.60167         10.7216         1.97377         16.5325 
        2.61395         10.6856         1.95095         16.4294 
        2.62624         10.5767         1.92846         16.3368 
        2.63849         10.4898         1.90639         16.2518 
        2.65073          10.423          1.8847         16.1455 
        2.66302         10.3519         1.86326         16.0556 
         2.6753         10.3004         1.84217          15.958 
        2.68756         10.2374         1.82145         15.8791 
        2.69983         10.1483         1.80104         15.7765 
        2.71213         10.0867          1.7809         15.6777 
        2.72441         10.0257         1.76109         15.5968 
        2.73665         10.0007         1.74164         15.5025 
         2.7489         9.92368          1.7225         15.4083 
        2.76118         9.82372         1.70358         15.3316 
        2.77349         9.78428          1.6849         15.2442 
        2.78576         9.72652         1.66657         15.1618 
        2.79802         9.67751         1.64853         15.0717 
        2.81031         9.62939         1.63071          14.988 
        2.82259           9.598         1.61316         14.9041 
        2.83483         9.52209         1.59594         14.8217 
         2.8471         9.47359         1.57894          14.741 
         2.8594         9.45442         1.56213         14.6572 
         2.8717          9.4063         1.54557         14.5738 
        2.88396         9.35376         1.52931         14.4946 
        2.89619         9.30423         1.51332         14.4169 
        2.90847         9.26234         1.49749         14.3365 
        2.92072         9.26076         1.48192         14.2504 
        2.93299         9.19181         1.46656         14.1795 
        2.94526         9.18441         1.45141         14.1052 
        2.95753         9.14804         1.43647         14.0245 
        2.96982         9.10405         1.42172         13.9465 
        2.98209         9.09509         1.40721         13.8685 
        2.99436          9.0782         1.39289         13.7915 
        3.00666         9.04708         1.37874           13.72 
        3.01894         9.02721         1.36481         13.6548 
        3.03119         9.01136          1.3511          13.576 
        3.04345          8.9587         1.33758         13.4946 
        3.05573          8.9905         1.32421         13.4258 
          3.068          8.9641         1.31104          13.359 
        3.08026         8.96805         1.29806         13.2783 
        3.09254           8.963         1.28524         13.2126 
        3.10483         8.95942         1.27258          13.151 
         3.1171         8.96707         1.26012         13.0781 
        3.12933         8.97387         1.24785         13.0061 
        3.14159         8.93624         1.23572          12.938 
