# k  (h/Mpc)    P(k)  (Mpc/h)^3    P_linear(k)  (Mpc/h)^3     P_NL(k)  ShotnoiseSubtracted = false
      0.0156606         23182.8         23309.4         23119.6 
      0.0273761           19821         20118.3           19886 
      0.0384619         14964.7         15142.6         14934.5 
      0.0498308         11540.3         11903.5         11693.6 
      0.0625568         9747.25         10112.1         9926.36 
      0.0751274         8688.46         8588.91         8328.84 
      0.0867833         6722.52         6913.76          6832.6 
      0.0984825          5694.6         5470.62         5540.42 
       0.111151         4878.31         4567.38         4656.23 
       0.123864          4368.2         4115.79         4187.43 
       0.135742         3987.68          3700.9          3772.5 
        0.14762         3476.14          3164.3          3353.2 
       0.160083         2963.01         2637.52         2871.84 
       0.172465          2642.4         2301.97         2600.65 
       0.184281         2389.75         2122.09         2420.52 
       0.196406         2263.58          1959.7         2231.94 
       0.209011          2122.5          1743.6         2024.99 
       0.221538         1909.21         1523.71         1894.96 
       0.233611         1836.61         1363.31         1779.24 
       0.245665         1662.72         1258.27         1644.88 
       0.258103         1653.46         1171.33         1554.31 
       0.270422         1474.44          1076.3         1462.18 
       0.282519         1396.88         976.798         1387.87 
       0.294636         1367.75         889.964         1316.44 
       0.306978         1254.25         823.362         1263.25 
       0.319417          1233.1         769.791         1191.64 
        0.33169         1157.92         718.514         1130.16 
       0.343948         1114.01         665.741         1096.36 
       0.356249         1058.46         616.251         1056.95 
       0.368458          1013.7         574.798         1012.34 
        0.38068         1000.97         540.136         975.166 
       0.392856         952.135         508.491         942.551 
       0.405069         901.432         477.548         911.425 
       0.417459         867.072         447.589         881.855 
       0.429752         866.573         420.696         851.422 
       0.441978         836.092         397.091          830.62 
       0.454294         800.559         375.657         797.682 
        0.46658         778.073         355.545         781.927 
       0.478753         764.503         336.572         759.112 
       0.490964         735.564          318.75         736.452 
       0.503334         705.111         302.302         720.972 
       0.515665         701.983         287.302         704.554 
       0.527909         672.353         273.455         690.837 
       0.540159          656.92         260.354         674.214 
        0.55248         643.402         247.924         657.141 
       0.564743         637.625         236.415           646.1 
        0.57686         617.986         225.836         629.546 
       0.589077         609.023          215.85         616.117 
       0.601441         592.951         206.355         604.604 
        0.61382         575.905         197.402          593.96 
       0.626067         570.326         189.048         583.479 
       0.638306         549.813         181.181         571.591 
       0.650632         544.697         173.727         558.836 
       0.662899         540.352         166.742         551.887 
       0.675076         524.119         160.197           544.9 
       0.687267         508.682         153.994          532.29 
       0.699615         508.214         148.042         523.903 
       0.711937         496.364         142.416         513.962 
       0.724148         480.834         137.129          507.48 
       0.736433         469.804         132.085         498.745 
       0.748747         463.872         127.287         490.152 
       0.761037         455.852         122.739         484.476 
       0.773197          448.18         118.461         476.254 
       0.785376         443.227         114.381         469.571 
       0.797761         429.962         110.431         463.046 
       0.810096         424.134         106.682         457.053 
       0.822371         413.972         103.126         449.768 
       0.834626         409.425         99.7388         444.778 
       0.846916          404.02         96.4955         437.835 
       0.859215          398.15         93.3953         431.391 
       0.871383         389.668         90.4629          425.84 
        0.88363         384.352         87.6396         421.577 
       0.895928         379.575         84.9267         415.128 
       0.908253         370.339          82.324         408.256 
       0.920535         361.945         79.8398         404.162 
       0.932774         357.206         77.4672         397.929 
        0.94508         351.741         75.1795         394.081 
       0.957324         347.234         72.9959         388.855 
        0.96953         342.894          70.906         384.169 
       0.981769         334.945         68.8931         379.882 
       0.994071          333.68         66.9492         375.334 
         1.0064         327.598         65.0772         369.901 
        1.01868         323.607         63.2827         365.273 
        1.03092         314.195         61.5641         362.114 
         1.0432         311.209         59.9035         357.745 
        1.05553          308.13         58.2979         352.799 
        1.06777         303.464          56.763         348.745 
           1.08          296.64         55.2852         344.932 
        1.09227         296.255         53.8555          340.82 
         1.1046         290.009         52.4712          337.68 
         1.1169         284.237         51.1382         333.246 
        1.12915         279.969         49.8583          329.75 
        1.14142          274.32         48.6197         325.954 
        1.15365         271.175          47.427         322.552 
        1.16585         266.781         46.2776         318.993 
        1.17807          264.15         45.1651         315.403 
        1.19037         258.973          44.082         312.743 
        1.20276         256.221         43.0271         308.687 
        1.21504         251.017         42.0153         305.212 
        1.22728         247.297         41.0403         302.085 
        1.23954         245.731          40.094         298.848 
        1.25184         240.076         39.1759         295.735 
        1.26414         235.453         38.2861         292.955 
        1.27632          233.03         37.4321         290.219 
         1.2886         230.609         36.5982         286.978 
        1.30093         225.793         35.7869         283.286 
        1.31316         221.073         35.0061         280.715 
        1.32541         219.908         34.2485         277.594 
        1.33772          215.75         33.5092         275.154 
        1.35005         213.226         32.7913         272.038 
        1.36225         209.194         32.1018         269.502 
        1.37447         205.794         31.4309         266.289 
        1.38676         203.835         30.7761         264.409 
        1.39907         200.835         30.1389          261.15 
        1.41133         196.955         29.5226         258.395 
        1.42358          194.48         28.9241         255.977 
        1.43591         191.794         28.3381         253.731 
        1.44818         188.112         27.7716         250.999 
        1.46037         186.592         27.2241         248.313 
        1.47263         182.994         26.6882         245.873 
        1.48494         181.604         26.1648         242.975 
        1.49724         178.121         25.6559         241.493 
        1.50952         175.143         25.1615         238.579 
        1.52178         172.825         24.6809          236.35 
        1.53409         169.961          24.211         234.107 
        1.54637           167.2         23.7543         232.178 
        1.55858         165.404          23.312         229.745 
        1.57081          162.51         22.8804         227.437 
        1.58313         160.495          22.457         225.139 
        1.59544         157.487         22.0446         223.144 
        1.60767         156.053         21.6452         221.171 
        1.61994         153.353         21.2543         218.893 
        1.63225         150.847         20.8723          216.69 
        1.64452         148.445         20.5007         214.776 
        1.65676          146.63         20.1394         212.956 
          1.669         144.864         19.7865         210.768 
        1.68133         141.981         19.4399         208.842 
        1.69363         139.568         19.1025         207.147 
        1.70585         137.425         18.7754          205.17 
        1.71809         135.594         18.4552         202.997 
        1.73038         133.689         18.1415         201.273 
        1.74268         132.519          17.835         199.309 
        1.75493         129.742         17.5369         197.714 
        1.76714          128.91         17.2464         195.962 
        1.77942         126.255          16.961         194.189 
        1.79173         124.535         16.6814         192.298 
        1.80402         122.678         16.4086         190.593 
         1.8163         120.591         16.1421         189.091 
         1.8286         118.864         15.8811         187.231 
         1.8409         117.301          15.626         185.498 
        1.85315         115.153         15.3774         183.969 
        1.86537         113.893         15.1348         182.401 
        1.87765         112.475         14.8964         180.836 
        1.88995         110.519         14.6627         179.107 
        1.90221         109.099         14.4348         177.718 
        1.91445         107.406          14.212         176.032 
        1.92674         105.612         13.9933         174.449 
        1.93902         104.412         13.7791         172.878 
        1.95124         102.918         13.5705         171.434 
         1.9635         101.241         13.3658         169.945 
        1.97583         99.7014          13.164         168.415 
        1.98812         98.2533         12.9671         167.256 
        2.00039         97.1513         12.7746         165.627 
        2.01264         95.9521         12.5862         164.261 
        2.02492         94.4072         12.4014         162.751 
        2.03717         93.0746         12.2205         161.484 
        2.04942          91.844         12.0435         160.078 
        2.06171         90.3018         11.8695         158.639 
        2.07397         89.1219         11.6992         157.455 
        2.08629         87.7618         11.5316         156.081 
        2.09857         86.7504         11.3676          154.84 
        2.11081         85.3641         11.2076         153.413 
        2.12309         84.2749         11.0502         152.225 
        2.13538         82.8791         10.8956          150.91 
        2.14763         81.6895         10.7445         149.672 
        2.15986         80.8576         10.5966         148.334 
        2.17214         79.6779         10.4509         147.226 
        2.18443         78.7535         10.3078         146.138 
        2.19671         77.7447         10.1676         144.858 
        2.20898         76.6112         10.0301         143.557 
        2.22126         75.5488         9.89503         142.511 
        2.23354         74.5612         9.76249         141.394 
         2.2458         73.1083         9.63261         140.168 
        2.25807         72.4907         9.50498         139.064 
        2.27035         71.4421         9.37955         137.944 
        2.28263         70.5507         9.25645         136.895 
         2.2949          69.227         9.13562         135.813 
        2.30718         68.2369         9.01691         134.688 
        2.31946         67.5507         8.90025         133.539 
        2.33169         66.5005         8.78617         132.542 
        2.34393         65.8568          8.6739         131.623 
        2.35622         64.8247         8.56324         130.481 
        2.36847         64.0519         8.45482         129.567 
        2.38076         62.9292         8.34795         128.458 
        2.39305         62.3669         8.24296         127.552 
        2.40534         61.3763         8.13977         126.488 
        2.41762         60.8116         8.03836         125.494 
        2.42989         59.7849         7.93883         124.569 
        2.44216         59.2701           7.841         123.536 
         2.4544         58.4013         7.74504         122.656 
        2.46667         57.4762         7.65047          121.72 
        2.47897         57.0197         7.55724         120.701 
        2.49124          56.263         7.46584         119.797 
        2.50349         55.2611         7.37608         118.919 
        2.51578         54.9053         7.28752         118.096 
        2.52805         53.9684         7.20057         117.127 
        2.54029         53.4552         7.11526         116.246 
        2.55257         52.7951         7.03108          115.43 
        2.56487         52.3677         6.94809         114.569 
        2.57716         51.7858         6.86657         113.712 
        2.58942         50.9682         6.78653         112.881 
        2.60167         50.3939         6.70785          112.07 
        2.61395          50.005         6.63029         111.213 
        2.62624         49.2292         6.55386         110.335 
        2.63849         48.6699         6.47887         109.579 
        2.65073         47.9951         6.40514         108.757 
        2.66302         47.6033         6.33229         107.984 
         2.6753         46.9135         6.26062         107.215 
        2.68756         46.6141         6.19021         106.407 
        2.69983         46.0501         6.12083         105.641 
        2.71213         45.5257         6.05236         104.889 
        2.72441         45.0919         5.98507         104.118 
        2.73665         44.5799         5.91896         103.404 
         2.7489         44.1207         5.85389          102.68 
        2.76118         43.7091          5.7896         101.914 
        2.77349         43.2535         5.72612         101.213 
        2.78576         42.8142         5.66384          100.48 
        2.79802         42.4488         5.60252         99.8271 
        2.81031         41.9502         5.54197         99.1073 
        2.82259         41.4973         5.48233         98.3677 
        2.83483         41.0807          5.4238         97.7245 
         2.8471         40.6182         5.36601          97.018 
         2.8594         40.2605         5.30888         96.3369 
         2.8717         39.9855         5.25261         95.7132 
        2.88396         39.5777         5.19736         95.0487 
        2.89619         39.2841         5.14301         94.3525 
        2.90847         38.9002         5.08923         93.6624 
        2.92072         38.5846         5.03631         93.0899 
        2.93299         38.3774         4.98411         92.4673 
        2.94526         38.0323         4.93261         91.8075 
        2.95753         37.7793         4.88185         91.1787 
        2.96982         37.3728         4.83172           90.58 
        2.98209         37.1822         4.78239         89.9618 
        2.99436         36.9769         4.73371         89.3265 
        3.00666         36.7705         4.68563          88.727 
        3.01894         36.5568         4.63831         88.1411 
        3.03119         36.2868         4.59171         87.5791 
        3.04345         36.0392         4.54575          87.005 
        3.05573         36.0253         4.50032         86.4137 
          3.068         35.7338         4.45556         85.8475 
        3.08026         35.5424         4.41146         85.2753 
        3.09254         35.5096         4.36787         84.7207 
        3.10483         35.4178         4.32487         84.1682 
         3.1171         35.2665          4.2825          83.605 
        3.12933         35.0319         4.24081         83.0498 
        3.14159          35.016         4.19959         82.5014 
