# k  (h/Mpc)    Pcb(k)  (Mpc/h)^3    Pcb_linear(k) (Mpc/h)^3    Pcb_NL(k) (Mpc/h)^3   ShotnoiseSubtracted = false
      0.0156606         4133.06         4137.45         4116.13 
      0.0273761         3585.26         3579.67         3567.58 
      0.0384619         2724.38          2697.7         2691.96 
      0.0498308         2131.64         2122.28         2118.12 
      0.0625568         1798.53         1803.87         1798.72 
      0.0751274         1563.49         1532.68         1524.06 
      0.0867833         1235.71         1234.03         1232.61 
      0.0984825         1006.73         976.601         981.601 
       0.111151          844.88         815.461         820.425 
       0.123864         759.046         734.906         738.919 
       0.135742         682.877         660.871         664.948 
        0.14762         581.107         565.082         574.664 
       0.160083         482.414         471.032           481.9 
       0.172465         426.471         411.123         424.305 
       0.184281         395.269         379.008         393.013 
       0.196406         360.489         350.014         360.964 
       0.209011         326.298         311.424          323.69 
       0.221538         291.037         272.156         289.301 
       0.233611         263.662          243.51         262.613 
       0.245665         247.698          224.75          241.78 
       0.258103         224.162         209.224         226.189 
       0.270422         209.993         192.253         208.849 
       0.282519         190.757          174.48         192.064 
       0.294636          183.96         158.971         177.524 
       0.306978         162.362         147.075         166.302 
       0.319417         155.227         137.507         156.051 
        0.33169         144.505         128.348         146.268 
       0.343948         137.659         118.922         137.366 
       0.356249         126.878         110.082         129.904 
       0.368458         121.576         102.678         121.272 
        0.38068         114.494         96.4856         114.888 
       0.392856         106.809         90.8333         109.357 
       0.405069         101.335         85.3064         103.561 
       0.417459         95.6302         79.9548         98.0257 
       0.429752         91.7657         75.1509          93.327 
       0.441978         87.6337         70.9346         89.6502 
       0.454294         81.5081         67.1058         84.9067 
        0.46658         81.3123         63.5133          81.354 
       0.478753         75.6826         60.1242         78.0055 
       0.490964         73.2895         56.9408         74.8739 
       0.503334          70.225         54.0024          71.677 
       0.515665         67.2198          51.323          69.492 
       0.527909         64.4964         48.8495         65.9144 
       0.540159         62.0975         46.5093         63.6616 
        0.55248         58.4678         44.2888         61.1532 
       0.564743         57.4783         42.2327         59.2236 
        0.57686         55.6724          40.343          57.124 
       0.589077         52.6695         38.5592         55.4097 
       0.601441         51.1039          36.863         53.5686 
        0.61382         49.5106         35.2638         51.5927 
       0.626067         47.4748         33.7714         50.1525 
       0.638306          46.038         32.3661         48.4654 
       0.650632         44.6077         31.0346         46.8555 
       0.662899         43.2902         29.7869         45.4088 
       0.675076         41.4303         28.6175         44.0972 
       0.687267         40.9085         27.5095         42.7998 
       0.699615         39.4393         26.4463         41.7812 
       0.711937         37.6966         25.4412         40.3641 
       0.724148         37.5225         24.4969         39.5574 
       0.736433         35.4082         23.5958         38.3677 
       0.748747         34.9372         22.7387         37.3551 
       0.761037         33.9752         21.9263         36.4682 
       0.773197         33.0852          21.162         35.6586 
       0.785376         31.8394         20.4332         34.7371 
       0.797761          31.359         19.7275         33.9645 
       0.810096         30.6318         19.0579         33.1252 
       0.822371          29.851         18.4226         32.2633 
       0.834626         28.9732         17.8175         31.6811 
       0.846916         28.2113         17.2381         30.9104 
       0.859215         27.2734         16.6843         30.2229 
       0.871383         26.8731         16.1604         29.6493 
        0.88363         26.1917         15.6561         29.0582 
       0.895928          25.623         15.1714         28.3463 
       0.908253          25.079         14.7065         27.8714 
       0.920535         24.5027         14.2627         27.2655 
       0.932774         24.1024         13.8389         26.6951 
        0.94508         23.4886         13.4302         26.1609 
       0.957324         23.0335         13.0401         25.6937 
        0.96953         22.4009         12.6668         25.1694 
       0.981769         22.1157         12.3072         24.7666 
       0.994071         21.5341         11.9599         24.2752 
         1.0064         21.0181         11.6255         23.8586 
        1.01868          20.594         11.3049         23.4607 
        1.03092         20.4148         10.9979         23.0167 
         1.0432         19.7709         10.7013         22.5723 
        1.05553         19.4373         10.4145         22.3222 
        1.06777         18.8926         10.1403          21.833 
           1.08         18.5358         9.87628         21.4954 
        1.09227         18.2357         9.62087         21.1979 
         1.1046         17.9678         9.37358         20.7978 
         1.1169         17.5767         9.13545         20.4692 
        1.12915         17.4444          8.9068         20.1855 
        1.14142         16.8382         8.68554         19.8456 
        1.15365          16.718         8.47247         19.5496 
        1.16585         16.5114         8.26715         19.2919 
        1.17807         16.0513         8.06841         18.9287 
        1.19037         15.8807         7.87492         18.7349 
        1.20276         15.5997         7.68648         18.4277 
        1.21504         15.3396         7.50572         18.2012 
        1.22728         14.9866         7.33154         17.9174 
        1.23954         14.7885         7.16249         17.6659 
        1.25184         14.5176         6.99848         17.4369 
        1.26414         14.3213         6.83954         17.1702 
        1.27632         14.0523         6.68697         16.9392 
         1.2886         13.9025           6.538         16.7342 
        1.30093         13.5847         6.39306         16.5644 
        1.31316         13.4109         6.25358         16.3006 
        1.32541         13.2226         6.11825         16.1413 
        1.33772         12.9756         5.98618         15.9119 
        1.35005         12.8224         5.85793         15.7326 
        1.36225         12.6162         5.73475         15.5166 
        1.37447         12.3859          5.6149          15.329 
        1.38676         12.2134         5.49792          15.161 
        1.39907         12.0106          5.3841         14.9721 
        1.41133         11.8446         5.27399         14.7994 
        1.42358         11.6579         5.16708         14.6093 
        1.43591         11.5096          5.0624         14.4787 
        1.44818         11.3051          4.9612         14.3135 
        1.46037         11.2206         4.86338         14.1218 
        1.47263         11.0124         4.76766         14.0011 
        1.48494         10.9256         4.67416          13.804 
        1.49724          10.719         4.58324         13.6881 
        1.50952         10.6368         4.49493         13.5447 
        1.52178         10.4522         4.40908         13.3801 
        1.53409          10.258         4.32513         13.2396 
        1.54637          10.212         4.24354         13.0735 
        1.55858         10.0816         4.16453         12.9589 
        1.57081         9.85854         4.08742         12.8405 
        1.58313         9.79852         4.01179         12.7073 
        1.59544         9.61282         3.93811         12.5883 
        1.60767         9.51659         3.86676         12.4474 
        1.61994          9.3636         3.79693         12.3393 
        1.63225         9.28091         3.72869         12.2248 
        1.64452         9.15416         3.66231          12.111 
        1.65676         9.02734         3.59776         11.9837 
          1.669         8.95985         3.53472         11.8623 
        1.68133         8.77477         3.47279         11.7481 
        1.69363         8.67873         3.41253         11.6367 
        1.70585         8.57229         3.35409         11.5452 
        1.71809         8.47815          3.2969         11.4366 
        1.73038          8.4012         3.24086         11.3423 
        1.74268         8.29265         3.18609         11.2339 
        1.75493         8.15834         3.13284         11.1159 
        1.76714         8.14957         3.08095         11.0358 
        1.77942          8.0296         3.02997         10.9204 
        1.79173         7.89311         2.98001         10.8352 
        1.80402         7.84811         2.93128         10.7439 
         1.8163         7.74626         2.88367         10.6581 
         1.8286         7.62415         2.83704         10.5676 
         1.8409         7.55224         2.79148         10.4836 
        1.85315         7.46309         2.74708         10.3837 
        1.86537         7.40579         2.70372         10.3032 
        1.87765         7.32513         2.66115         10.2178 
        1.88995         7.19091         2.61939         10.1399 
        1.90221         7.16244         2.57867         10.0407 
        1.91445         7.06419         2.53888         9.98252 
        1.92674          6.9916          2.4998         9.88697 
        1.93902         6.93873         2.46154          9.8217 
        1.95124         6.84448         2.42429         9.72957 
         1.9635         6.78304         2.38771         9.66431 
        1.97583         6.72657         2.35165          9.5779 
        1.98812         6.65364         2.31648          9.4926 
        2.00039          6.5756         2.28209         9.44257 
        2.01264         6.51846         2.24844         9.37047 
        2.02492         6.45866         2.21542         9.29045 
        2.03717         6.37645         2.18311         9.22298 
        2.04942         6.29103          2.1515         9.16041 
        2.06171         6.26753          2.1204         9.09302 
        2.07397         6.19241         2.08998         9.02664 
        2.08629         6.12843         2.06004         8.96441 
        2.09857          6.0658         2.03075         8.89456 
        2.11081          6.0235         2.00216         8.84291 
        2.12309         5.94759         1.97404         8.76009 
        2.13538          5.8974         1.94643         8.70997 
        2.14763          5.8308         1.91943         8.64809 
        2.15986          5.7956         1.89301         8.58832 
        2.17214         5.74082         1.86699         8.51754 
        2.18443         5.68063         1.84142         8.46669 
        2.19671         5.63214         1.81637         8.41037 
        2.20898         5.56466         1.79181         8.35352 
        2.22126         5.52218         1.76768          8.2921 
        2.23354         5.47994           1.744         8.23028 
         2.2458         5.42049          1.7208          8.1783 
        2.25807         5.38273           1.698         8.12432 
        2.27035         5.33316         1.67559         8.07371 
        2.28263         5.29379          1.6536          8.0174 
         2.2949         5.24142         1.63202         7.97031 
        2.30718          5.1966         1.61081         7.92861 
        2.31946         5.16467         1.58997         7.87408 
        2.33169         5.10847         1.56959          7.8193 
        2.34393         5.08476         1.54953         7.76793 
        2.35622         5.04478         1.52977         7.71823 
        2.36847         4.99895          1.5104         7.66921 
        2.38076         4.96163         1.49131          7.6211 
        2.39305         4.90371         1.47255         7.56595 
        2.40534         4.87726         1.45412         7.51857 
        2.41762         4.82542           1.436           7.482 
        2.42989         4.80822         1.41822         7.43836 
        2.44216         4.77805         1.40074         7.38928 
         2.4544         4.72292          1.3836         7.34133 
        2.46667         4.71066          1.3667         7.29787 
        2.47897          4.6641         1.35005         7.24933 
        2.49124         4.61903         1.33372           7.206 
        2.50349         4.60158         1.31769         7.17196 
        2.51578         4.54676         1.30187         7.12847 
        2.52805         4.52794         1.28633         7.08518 
        2.54029         4.49451         1.27109         7.04391 
        2.55257         4.48324         1.25605         7.00535 
        2.56487         4.43685         1.24123         6.95632 
        2.57716         4.41349         1.22667         6.91901 
        2.58942          4.3782         1.21237         6.87979 
        2.60167         4.35367         1.19831         6.83798 
        2.61395           4.306         1.18446         6.80174 
        2.62624         4.31221          1.1708         6.76456 
        2.63849         4.27983         1.15741         6.72329 
        2.65073         4.24578         1.14424         6.68219 
        2.66302         4.22972         1.13122         6.64431 
         2.6753         4.19682         1.11842         6.60828 
        2.68756          4.1712         1.10584          6.5759 
        2.69983         4.15273         1.09345         6.53362 
        2.71213         4.12839         1.08121         6.49744 
        2.72441         4.10511         1.06919         6.46351 
        2.73665         4.08994         1.05738         6.42513 
         2.7489         4.06081         1.04576         6.39341 
        2.76118         4.03549         1.03427         6.36583 
        2.77349         4.02982         1.02293         6.32389 
        2.78576         4.00984         1.01181         6.29008 
        2.79802         3.99568         1.00085         6.25852 
        2.81031         3.96795        0.990036          6.2263 
        2.82259          3.9539        0.979382         6.19299 
        2.83483         3.94938        0.968926         6.15937 
         2.8471         3.92986        0.958602         6.12798 
         2.8594         3.91839        0.948397         6.09729 
         2.8717         3.89267        0.938344         6.06103 
        2.88396         3.88951        0.928475         6.02981 
        2.89619         3.85697        0.918765         6.00243 
        2.90847         3.85495        0.909157         5.96637 
        2.92072         3.85699        0.899703         5.93635 
        2.93299         3.85015        0.890379         5.90796 
        2.94526         3.84248        0.881178           5.876 
        2.95753         3.82443         0.87211         5.84545 
        2.96982         3.80262        0.863155         5.81713 
        2.98209         3.80636        0.854343         5.78596 
        2.99436          3.7993        0.845647         5.75679 
        3.00666         3.80732        0.837057         5.72985 
        3.01894         3.79695        0.828604         5.69589 
        3.03119         3.79757        0.820279         5.66926 
        3.04345         3.78672        0.812068         5.64305 
        3.05573         3.78992        0.803952         5.61239 
          3.068         3.77721        0.795957         5.58768 
        3.08026          3.7935        0.788078          5.5611 
        3.09254         3.79475        0.780292         5.53215 
        3.10483         3.79757        0.772609         5.50672 
         3.1171         3.80344         0.76504         5.48139 
        3.12933         3.81437        0.757593         5.45159 
        3.14159         3.80628        0.750229         5.42351 
