# k  (h/Mpc)    Pcb(k)  (Mpc/h)^3    Pcb_linear(k) (Mpc/h)^3    Pcb_NL(k) (Mpc/h)^3   ShotnoiseSubtracted = false
      0.0156606         15836.7         15901.5         15791.2 
      0.0273761         13618.1         13749.8         13634.9 
      0.0384619         10318.5         10359.3         10263.4 
      0.0498308         7994.97         8148.46         8053.99 
      0.0625568         6751.18         6925.26          6839.2 
      0.0751274         5982.95         5883.79         5760.95 
      0.0867833         4653.74         4737.11          4701.4 
      0.0984825          3895.6         3748.82         3788.04 
       0.111151         3313.96          3130.2         3175.25 
       0.123864         2972.45         2820.95         2858.02 
       0.135742         2698.35         2536.74         2574.43 
        0.14762         2335.32         2169.04         2268.32 
       0.160083         1963.16         1808.02         1927.36 
       0.172465         1750.82         1578.05         1728.88 
       0.184281         1599.73         1454.78         1608.51 
       0.196406         1488.06         1343.48         1476.99 
       0.209011         1380.54         1195.36         1335.42 
       0.221538         1245.42         1044.63         1235.86 
       0.233611         1176.53         934.671         1149.81 
       0.245665         1075.51         862.666         1059.16 
       0.258103            1042         803.068         997.898 
       0.270422         936.242         737.926         933.432 
       0.282519         873.231         669.709         876.096 
       0.294636         864.251          610.18         825.878 
       0.306978         778.669         564.518          787.95 
       0.319417         755.358         527.792          741.85 
        0.33169         711.777         492.637         699.853 
       0.343948         679.068         456.457         675.448 
       0.356249         639.114         422.527         647.974 
       0.368458         619.318         394.107           614.7 
        0.38068          599.82          370.34         588.924 
       0.392856         566.002         348.644         566.097 
       0.405069         541.359          327.43         548.511 
       0.417459         519.379         306.889         523.655 
       0.429752         507.258          288.45         504.804 
       0.441978         490.427         272.267         490.501 
       0.454294         464.548         257.571          469.28 
        0.46658         455.254         243.782          458.03 
       0.478753         441.806         230.773         442.775 
       0.490964         425.591         218.555         428.271 
       0.503334         402.839         207.276         417.093 
       0.515665         401.595         196.992         408.022 
       0.527909          386.95         187.498         396.667 
       0.540159         377.175         178.516          385.54 
        0.55248         369.769         169.993         374.984 
       0.564743         364.479         162.101         367.953 
        0.57686         350.337         154.848         357.281 
       0.589077         338.612         148.001         349.386 
       0.601441         334.826          141.49         341.501 
        0.61382         328.621         135.352         334.872 
       0.626067         323.149         129.624         327.574 
       0.638306         309.141          124.23         321.326 
       0.650632         304.014         119.119         312.066 
       0.662899         301.639          114.33           308.1 
       0.675076         290.017         109.842         302.209 
       0.687267         282.785         105.589         295.221 
       0.699615          278.57         101.508         290.115 
       0.711937         274.083         97.6502         284.892 
       0.724148         265.827         94.0256         280.602 
       0.736433         260.057         90.5671          274.86 
       0.748747         255.803         87.2774         269.627 
       0.761037         251.221          84.159         265.295 
       0.773197         247.807         81.2252         261.768 
       0.785376         244.306          78.428         256.982 
       0.797761         238.383         75.7193         253.226 
       0.810096         235.403         73.1492         249.519 
       0.822371         226.507         70.7109         245.379 
       0.834626         225.873         68.3882         241.679 
       0.846916         221.184         66.1644         238.156 
       0.859215         220.992         64.0387         234.691 
       0.871383         215.017          62.028          231.04 
        0.88363         213.286         60.0922         228.639 
       0.895928         208.345          58.232         225.078 
       0.908253         202.633         56.4475         221.335 
       0.920535         201.899         54.7441         218.357 
       0.932774          195.32         53.1173         215.311 
        0.94508         193.506         51.5487          213.05 
       0.957324          193.04         50.0514         209.847 
        0.96953         190.356         48.6185         206.798 
       0.981769         184.431         47.2383         204.898 
       0.994071         183.562         45.9054         202.206 
         1.0064         179.341         44.6219         199.133 
        1.01868         176.916         43.3914         196.886 
        1.03092         173.738          42.213          194.78 
         1.0432         170.353         41.0744         192.353 
        1.05553         167.743         39.9735         190.035 
        1.06777         167.545         38.9211         188.113 
           1.08         163.375         37.9078         185.659 
        1.09227         161.456         36.9274         183.755 
         1.1046         158.916         35.9783         181.703 
         1.1169         156.437         35.0643         179.224 
        1.12915         154.043         34.1867          177.52 
        1.14142          151.58         33.3374         175.203 
        1.15365         149.579         32.5196         173.365 
        1.16585         147.468         31.7315         171.104 
        1.17807         145.412         30.9687          169.87 
        1.19037         144.422          30.226         168.107 
        1.20276         141.761         29.5027         166.042 
        1.21504         139.582         28.8089         164.257 
        1.22728         136.833         28.1404         162.227 
        1.23954         136.208         27.4915          160.96 
        1.25184          133.52          26.862         159.131 
        1.26414         131.535         26.2519         157.461 
        1.27632         131.013         25.6664         156.596 
         1.2886         128.664         25.0946         154.367 
        1.30093         125.206         24.5383         152.719 
        1.31316         124.666         24.0029         151.069 
        1.32541         122.857         23.4834         149.939 
        1.33772         121.659         22.9765         148.315 
        1.35005         119.964         22.4843         146.662 
        1.36225          118.49         22.0115         145.356 
        1.37447         116.347         21.5515         143.729 
        1.38676         115.326         21.1025         142.285 
        1.39907         112.888         20.6656         140.981 
        1.41133         111.367          20.243         139.817 
        1.42358         109.779         19.8326         138.467 
        1.43591         108.902         19.4308         136.909 
        1.44818         107.842         19.0424         135.786 
        1.46037         105.722         18.6669         134.402 
        1.47263         104.547         18.2995         133.391 
        1.48494         103.258         17.9406         131.909 
        1.49724         101.722         17.5917          130.59 
        1.50952         99.9271         17.2527         129.444 
        1.52178         99.2872         16.9232         128.213 
        1.53409         97.7793          16.601         127.115 
        1.54637         96.1686         16.2878         125.983 
        1.55858            94.8         15.9846         124.745 
        1.57081         93.4618         15.6886          123.67 
        1.58313         92.3962         15.3983          122.51 
        1.59544         91.3719         15.1155         121.434 
        1.60767          90.008         14.8416         120.265 
        1.61994         88.6413         14.5736          119.48 
        1.63225         87.4109         14.3117          118.03 
        1.64452          86.053         14.0569         117.058 
        1.65676         84.9083         13.8092         116.091 
          1.669         84.3086         13.5672         115.155 
        1.68133         82.9772         13.3295         114.061 
        1.69363         82.0534         13.0982         113.135 
        1.70585         80.7796         12.8739         112.084 
        1.71809          79.576         12.6544         111.149 
        1.73038         78.8418         12.4393         110.126 
        1.74268         77.5609         12.2291         109.188 
        1.75493          76.809         12.0247         108.204 
        1.76714          75.528         11.8255         107.326 
        1.77942         74.9066         11.6298         106.338 
        1.79173         73.6147         11.4381         105.478 
        1.80402         72.9281          11.251         104.645 
         1.8163         71.8303         11.0683         103.582 
         1.8286         70.8021         10.8893         102.814 
         1.8409          70.022         10.7144         101.921 
        1.85315         68.9098          10.544         101.145 
        1.86537         68.1847         10.3776         100.259 
        1.87765         67.4888         10.2142          99.312 
        1.88995         66.4184         10.0539          98.592 
        1.90221         65.5923         9.89761         97.7406 
        1.91445          64.385         9.74491         96.9369 
        1.92674         63.7371          9.5949          96.157 
        1.93902         62.9192         9.44804         95.2919 
        1.95124         62.4436         9.30504         94.6237 
         1.9635         61.3392         9.16464         93.6774 
        1.97583         60.6687         9.02625         93.0614 
        1.98812         59.9239         8.89125         92.2363 
        2.00039         58.9336         8.75928         91.4888 
        2.01264         58.4287         8.63011         90.7228 
        2.02492          57.554         8.50336         90.0144 
        2.03717         56.7174         8.37937         89.2152 
        2.04942          56.169         8.25801         88.5978 
        2.06171         55.2214         8.13865         87.8262 
        2.07397         54.6438         8.02191         87.1805 
        2.08629         54.1238         7.90697         86.4186 
        2.09857         53.3594         7.79456         85.7586 
        2.11081         52.2741          7.6848         84.9979 
        2.12309         52.0082         7.57689         84.4084 
        2.13538         51.2251          7.4709         83.7108 
        2.14763         50.6516         7.36729         83.0565 
        2.15986         49.7344         7.26589         82.3874 
        2.17214         49.2535         7.16598         81.7572 
        2.18443         48.7881         7.06786         81.1539 
        2.19671          47.904          6.9717         80.4624 
        2.20898         47.6847         6.87744         79.8403 
        2.22126         46.9192         6.78482         79.1839 
        2.23354         46.2782         6.69394         78.6166 
         2.2458         45.7762         6.60489         78.0352 
        2.25807         45.3225         6.51737         77.3696 
        2.27035         44.7236         6.43137         76.7758 
        2.28263         44.0066         6.34696         76.1685 
         2.2949         43.5968         6.26411         75.6003 
        2.30718         42.9667         6.18272         75.0504 
        2.31946         42.3965         6.10272         74.4977 
        2.33169         41.8939          6.0245         73.9131 
        2.34393         41.2015         5.94752         73.3509 
        2.35622         40.9703         5.87164          72.785 
        2.36847         40.4375          5.7973         72.2704 
        2.38076           39.96         5.72402         71.6907 
        2.39305         39.4321         5.65203         71.1764 
        2.40534         39.0475         5.58128         70.5897 
        2.41762         38.6452         5.51174         70.0397 
        2.42989         38.0133          5.4435         69.5798 
        2.44216         37.7445         5.37641         69.0406 
         2.4544         37.2925         5.31062         68.5243 
        2.46667         36.8611         5.24577         67.9822 
        2.47897         36.4236         5.18185         67.5011 
        2.49124         35.9298         5.11917         67.0102 
        2.50349         35.4391         5.05763          66.506 
        2.51578         35.0436          4.9969         66.0598 
        2.52805         34.9279         4.93729         65.5512 
        2.54029         34.3941         4.87879         65.0548 
        2.55257         33.8945         4.82107         64.6006 
        2.56487         33.6278         4.76417         64.1513 
        2.57716         33.2093         4.70827         63.7117 
        2.58942         32.8163         4.65339          63.223 
        2.60167         32.3531         4.59944         62.7502 
        2.61395         32.1037         4.54626         62.3118 
        2.62624         31.8472         4.49385         61.8577 
        2.63849         31.5373         4.44244         61.4285 
        2.65073         31.1906         4.39188         60.9576 
        2.66302         30.8372         4.34193         60.5347 
         2.6753         30.4595         4.29278         60.1134 
        2.68756         30.0286          4.2445         59.6598 
        2.69983         29.8371         4.19693         59.2694 
        2.71213         29.5468         4.14999         58.8696 
        2.72441         29.3274         4.10384         58.4321 
        2.73665         29.0366         4.05852         58.0151 
         2.7489         28.8254          4.0139          57.616 
        2.76118         28.4121         3.96981         57.2162 
        2.77349         28.2783         3.92629         56.8256 
        2.78576         28.0739         3.88358         56.4107 
        2.79802         27.6847         3.84154         56.0399 
        2.81031         27.4457         3.80002          55.658 
        2.82259          27.235         3.75913         55.2514 
        2.83483         26.9578         3.71899         54.8731 
         2.8471         26.6463         3.67937         54.5072 
         2.8594         26.5281          3.6402         54.1478 
         2.8717         26.2314         3.60161         53.7708 
        2.88396         26.0538         3.56373         53.3812 
        2.89619         25.8157         3.52646         53.0191 
        2.90847         25.6461         3.48958         52.6738 
        2.92072         25.4946         3.45329         52.3073 
        2.93299         25.3544         3.41751         51.9463 
        2.94526         25.0902         3.38219          51.616 
        2.95753         24.9557         3.34739         51.2796 
        2.96982         24.8959         3.31301         50.9311 
        2.98209          24.654         3.27919         50.5951 
        2.99436         24.4463         3.24581         50.2462 
        3.00666          24.434         3.21285         49.9161 
        3.01894         24.2286          3.1804         49.5641 
        3.03119         24.1234         3.14845         49.2426 
        3.04345         24.0139         3.11693         48.9382 
        3.05573         23.9588         3.08578          48.617 
          3.068         23.8357         3.05509         48.2939 
        3.08026         23.6869         3.02485         47.9722 
        3.09254         23.6252         2.99496         47.6621 
        3.10483          23.619         2.96547         47.3576 
         3.1171         23.5706         2.93642         47.0495 
        3.12933         23.5038         2.90784         46.7418 
        3.14159         23.3798         2.87958         46.4362 
