# k  (h/Mpc)    P(k)  (Mpc/h)^3    P_linear(k)  (Mpc/h)^3     P_NL(k)  ShotnoiseSubtracted = false
      0.0156606         19691.4           19722         19572.7 
      0.0273761         16867.5         17023.4         16852.4 
      0.0384619         12751.3         12813.9         12664.7 
      0.0498308         9851.43         10073.3         9924.09 
      0.0625568         8318.01         8557.65         8424.05 
      0.0751274         7395.44         7268.78         7080.36 
      0.0867833         5734.27          5851.2         5793.76 
      0.0984825          4831.2         4629.91         4683.94 
       0.111151         4125.18         3865.52         3931.05 
       0.123864         3696.53         3483.35         3536.62 
       0.135742         3365.54         3132.24         3185.88 
        0.14762         2924.87          2678.1         2820.62 
       0.160083         2476.03         2232.27         2406.75 
       0.172465         2208.44         1948.29         2170.07 
       0.184281          2006.4         1796.05         2019.48 
       0.196406         1884.24         1658.62         1858.14 
       0.209011         1758.39         1475.72         1682.97 
       0.221538         1584.52         1289.62         1567.73 
       0.233611          1512.8         1153.86         1466.36 
       0.245665         1373.81         1064.96         1353.04 
       0.258103         1352.37         991.376         1276.77 
       0.270422         1207.61         910.952         1198.05 
       0.282519         1136.61         826.733         1131.41 
       0.294636         1119.46         753.241         1070.39 
       0.306978         1018.39         696.871         1024.57 
       0.319417         994.977         651.531         965.623 
        0.33169         936.211         608.131         913.395 
       0.343948         896.617         563.466         884.491 
       0.356249         847.876          521.58         850.885 
       0.368458         817.141         486.495         811.321 
        0.38068         800.303         457.158         779.555 
       0.392856         758.484         430.375          751.44 
       0.405069         721.429         404.185         727.842 
       0.417459         693.605         378.829         699.926 
       0.429752         686.092         356.068         675.328 
       0.441978         662.241         336.089         657.677 
       0.454294         631.562         317.948         630.431 
        0.46658         614.465         300.926         617.003 
       0.478753         601.187         284.867         597.755 
       0.490964         577.874         269.783         579.196 
       0.503334         551.357         255.862         565.669 
       0.515665          549.96         243.167         553.231 
       0.527909         527.836         231.447         540.532 
       0.540159         514.423         220.358         526.275 
        0.55248          504.29         209.837         512.456 
       0.564743         500.052         200.096          503.65 
        0.57686         481.865         191.143         490.006 
       0.589077         470.411         182.691         479.065 
       0.601441          462.13         174.655          469.31 
        0.61382         450.333         167.077         461.105 
       0.626067         444.774         160.006         452.011 
       0.638306         427.847         153.348         443.099 
       0.650632         423.281         147.039         431.775 
       0.662899         419.512         141.128         426.721 
       0.675076         404.438         135.587         420.173 
       0.687267         393.657         130.337         410.146 
       0.699615         390.341           125.3         403.637 
       0.711937         383.785         120.538          396.25 
       0.724148         370.866         116.064         390.625 
       0.736433         362.223         111.794         383.392 
       0.748747         357.525         107.734         376.468 
       0.761037         350.779         103.884         371.545 
       0.773197         346.276         100.263         365.846 
       0.785376         341.052         96.8101         360.283 
       0.797761         331.498         93.4664         354.604 
       0.810096         328.757         90.2939         350.155 
       0.822371         318.167         87.2841         344.395 
       0.834626         316.087         84.4171         340.017 
       0.846916         309.762          81.672         334.801 
       0.859215         308.421         79.0481         330.006 
       0.871383         300.608         76.5661         325.465 
        0.88363         298.467         74.1765         322.129 
       0.895928         292.749         71.8803         317.026 
       0.908253         285.346         69.6775          311.94 
       0.920535         281.936         67.5749          308.13 
       0.932774         275.727         65.5668         303.702 
        0.94508         272.054         63.6306         300.553 
       0.957324         270.508         61.7823         296.425 
        0.96953         266.591         60.0135         292.694 
       0.981769         259.324         58.3099         289.611 
       0.994071         258.338         56.6645         285.991 
         1.0064         252.856         55.0802         281.802 
        1.01868         249.935         53.5613         278.235 
        1.03092          242.89         52.1067         275.686 
         1.0432         239.754         50.7012          272.34 
        1.05553         236.836         49.3422         268.691 
        1.06777          235.28         48.0432         265.831 
           1.08         229.555         46.7924         262.758 
        1.09227         227.624         45.5823         259.646 
         1.1046         223.869         44.4106         257.095 
         1.1169         218.767         43.2824         253.603 
        1.12915         215.915         42.1991         251.261 
        1.14142         212.137         41.1508         248.117 
        1.15365         209.336         40.1413           245.5 
        1.16585         205.789         39.1685         242.548 
        1.17807         203.484         38.2269         240.333 
        1.19037         200.933         37.3102         238.159 
        1.20276         198.078         36.4174         235.076 
        1.21504         193.795          35.561         232.504 
        1.22728         190.612         34.7357         229.614 
        1.23954          189.78         33.9348         227.804 
        1.25184         185.843         33.1577          225.29 
        1.26414         182.338         32.4047         223.059 
        1.27632         181.479         31.6819          221.26 
         1.2886         179.923         30.9761         218.544 
        1.30093         174.887         30.2894         215.978 
        1.31316         171.721         29.6285          213.62 
        1.32541         170.526         28.9873         211.741 
        1.33772         168.488         28.3616         209.605 
        1.35005         165.906          27.754         207.254 
        1.36225         163.004         27.1704         205.338 
        1.37447         160.727         26.6025         202.828 
        1.38676          158.87         26.0483         201.246 
        1.39907         156.368          25.509         198.975 
        1.41133         153.686         24.9874         197.067 
        1.42358         151.851         24.4808         195.211 
        1.43591          150.02         23.9849         193.249 
        1.44818         147.514         23.5054         191.399 
        1.46037         145.761         23.0419         189.379 
        1.47263         143.546         22.5884         187.818 
        1.48494         141.567         22.1454         185.514 
        1.49724         139.552         21.7147         184.142 
        1.50952         136.985         21.2963         182.259 
        1.52178         136.244         20.8895          180.27 
        1.53409         133.303         20.4918         178.771 
        1.54637         131.698         20.1052         177.286 
        1.55858         129.595         19.7309         175.355 
        1.57081         127.634         19.3655         173.834 
        1.58313         125.926         19.0072         172.061 
        1.59544         123.798         18.6581         170.545 
        1.60767         122.809         18.3201         168.976 
        1.61994         120.519         17.9893         167.526 
        1.63225         118.987         17.6659          165.69 
        1.64452         116.828         17.3515         164.206 
        1.65676         115.165         17.0456         162.813 
          1.669          114.27         16.7469         161.386 
        1.68133         111.837         16.4535          159.91 
        1.69363         110.223          16.168         158.481 
        1.70585         108.309         15.8911         157.081 
        1.71809         107.004         15.6202         155.408 
        1.73038         106.196         15.3547         154.167 
        1.74268         105.029         15.0952         152.691 
        1.75493         102.357         14.8429         151.392 
        1.76714         101.676          14.597         150.146 
        1.77942         99.9064         14.3555         148.629 
        1.79173         98.4066         14.1188         147.412 
        1.80402         97.5593         13.8879         146.111 
         1.8163         95.4744         13.6624         144.818 
         1.8286         94.2443         13.4414         143.495 
         1.8409         93.5808         13.2256         142.172 
        1.85315         91.7187         13.0152         141.032 
        1.86537           90.82         12.8098         139.862 
        1.87765         89.8126         12.6081         138.661 
        1.88995         88.2393         12.4102         137.417 
        1.90221         87.0328         12.2173         136.282 
        1.91445         85.9608         12.0288         134.991 
        1.92674         84.5195         11.8437         133.858 
        1.93902         83.3932         11.6624         132.659 
        1.95124         82.4411         11.4859         131.554 
         1.9635         81.0808         11.3126         130.374 
        1.97583          79.848         11.1417         129.335 
        1.98812         78.8433         10.9751         128.302 
        2.00039         77.8995         10.8122         127.139 
        2.01264         76.9291         10.6527          126.09 
        2.02492          76.082         10.4963         124.979 
        2.03717         74.7574         10.3432         123.944 
        2.04942         74.2607         10.1934         122.986 
        2.06171         72.5628         10.0461         121.917 
        2.07397         71.7989           9.902         120.945 
        2.08629         70.9449         9.76013         119.894 
        2.09857         69.8894         9.62137         118.932 
        2.11081         68.7148         9.48588         117.832 
        2.12309         67.7795         9.35268         117.006 
        2.13538         66.9485         9.22185         115.978 
        2.14763         66.0925         9.09396         115.054 
        2.15986         65.0478         8.96879          114.05 
        2.17214         64.3937         8.84547         113.121 
        2.18443         63.5681         8.72436         112.363 
        2.19671         62.4326         8.60565           111.4 
        2.20898         61.9382          8.4893         110.432 
        2.22126         61.0138         8.37498         109.565 
        2.23354         60.3219          8.2628         108.711 
         2.2458         59.2593         8.15287         107.853 
        2.25807         58.5309         8.04485         106.956 
        2.27035         57.7802         7.93869         106.082 
        2.28263          57.002          7.8345         105.254 
         2.2949         56.2394         7.73223         104.431 
        2.30718         55.3201         7.63175         103.629 
        2.31946         54.9739         7.53302         102.751 
        2.33169         53.9634         7.43645         101.969 
        2.34393         53.4838         7.34143          101.22 
        2.35622         52.5565         7.24777         100.411 
        2.36847         52.1675         7.15601          99.726 
        2.38076         51.2623         7.06556         98.8173 
        2.39305         50.6847         6.97669         98.1488 
        2.40534           50.07         6.88935         97.3403 
        2.41762         49.4907         6.80352         96.5459 
        2.42989         48.7463         6.71928         95.8727 
        2.44216         48.2339         6.63648         95.0813 
         2.4544         47.5223         6.55526          94.374 
        2.46667         46.9849         6.47522         93.6377 
        2.47897         46.4678         6.39632          92.903 
        2.49124         45.9155         6.31895         92.2403 
        2.50349         45.5681         6.24298         91.5204 
        2.51578           44.78         6.16802         90.9212 
        2.52805         44.2786         6.09444         90.1602 
        2.54029         43.8424         6.02223         89.4414 
        2.55257         43.2402         5.95098         88.8312 
        2.56487         42.9242         5.88074         88.2085 
        2.57716         42.2509         5.81174         87.5476 
        2.58942         41.6751           5.744         86.8801 
        2.60167         41.2971          5.6774         86.2505 
        2.61395         40.7413         5.61176         85.6216 
        2.62624         40.3478         5.54707         84.9331 
        2.63849         39.8387         5.48361         84.3326 
        2.65073         39.4913          5.4212         83.7135 
        2.66302          38.985         5.35954         83.0835 
         2.6753         38.5756         5.29888         82.5076 
        2.68756         38.1628         5.23928         81.8862 
        2.69983         37.7075         5.18056         81.3308 
        2.71213         37.3474         5.12261         80.7502 
        2.72441         36.9693         5.06566         80.1552 
        2.73665         36.4561         5.00971         79.5908 
         2.7489         36.1826         4.95463         79.0273 
        2.76118         35.7845         4.90021          78.464 
        2.77349         35.4059         4.84649         77.9048 
        2.78576         35.1078         4.79378          77.317 
        2.79802         34.7619         4.74187         76.8494 
        2.81031         34.3219         4.69062         76.2835 
        2.82259         34.2123         4.64015         75.7178 
        2.83483         33.7394         4.59061         75.2329 
         2.8471         33.4397          4.5417         74.6919 
         2.8594         33.1517         4.49335         74.1485 
         2.8717         33.0001         4.44572         73.6601 
        2.88396         32.5917         4.39896         73.1398 
        2.89619         32.4436         4.35295          72.594 
        2.90847         32.0512         4.30743         72.0814 
        2.92072         31.8788         4.26264         71.6266 
        2.93299           31.71         4.21846         71.1459 
        2.94526         31.3601         4.17487         70.6564 
        2.95753           31.16         4.13191         70.1616 
        2.96982          30.932         4.08948         69.6881 
        2.98209         30.6958         4.04773         69.2295 
        2.99436         30.4664         4.00653         68.7252 
        3.00666         30.4356         3.96584         68.2708 
        3.01894         30.1101         3.92579         67.8032 
        3.03119          30.067         3.88634         67.3658 
        3.04345         29.9424         3.84744         66.9362 
        3.05573         29.5961         3.80899         66.4833 
          3.068         29.5998         3.77111         66.0382 
        3.08026         29.4224         3.73378         65.5936 
        3.09254         29.3567         3.69689          65.167 
        3.10483         29.3201         3.66049         64.7438 
         3.1171         29.1233         3.62463          64.313 
        3.12933         29.0441         3.58935          63.881 
        3.14159         28.9266         3.55446         63.4448 
