# k  (h/Mpc)    Pcb(k)  (Mpc/h)^3    Pcb_linear(k) (Mpc/h)^3    Pcb_NL(k) (Mpc/h)^3   ShotnoiseSubtracted = false
      0.0156606         13876.7         13926.7         13834.7 
      0.0273761           11947           12043         11953.1 
      0.0384619          9057.9         9073.63         9001.03 
      0.0498308         7027.18         7137.27         7066.74 
      0.0625568         5932.89         6065.92         6000.89 
      0.0751274         5246.55         5153.72         5060.08 
      0.0867833         4088.17         4149.34         4123.12 
      0.0984825         3409.78         3283.69         3315.82 
       0.111151          2894.7         2741.83         2777.72 
       0.123864         2597.36         2470.95         2500.72 
       0.135742         2354.36            2222         2252.41 
        0.14762         2032.57         1899.93         1979.03 
       0.160083         1703.13          1583.7         1677.75 
       0.172465         1518.32         1382.27         1500.62 
       0.184281         1391.35         1274.29          1395.8 
       0.196406         1288.27          1176.8         1280.58 
       0.209011         1191.24         1047.05         1156.74 
       0.221538         1074.53         915.026         1065.99 
       0.233611         1008.91          818.71         988.493 
       0.245665         926.408         755.639         909.946 
       0.258103         888.589         703.435         856.555 
       0.270422         802.455         646.375         799.733 
       0.282519         744.594         586.622         748.083 
       0.294636         737.719         534.477         703.591 
       0.306978         661.462         494.481          669.89 
       0.319417         639.488         462.311         630.364 
        0.33169         602.455         431.518         593.954 
       0.343948         574.169         399.827         571.706 
       0.356249         539.184         370.106         547.487 
       0.368458         523.057         345.212         518.061 
        0.38068         503.813         324.394         495.526 
       0.392856         474.135          305.39          475.68 
       0.405069         454.543         286.808          460.38 
       0.417459         435.369         268.815         437.994 
       0.429752           422.9         252.664         421.965 
       0.441978         409.099         238.488         409.493 
       0.454294         385.834         225.615         391.279 
        0.46658         380.298         213.537         381.185 
       0.478753         366.973         202.143         368.099 
       0.490964         353.968          191.44         355.617 
       0.503334         334.185          181.56          345.83 
       0.515665         332.304         172.552          338.15 
       0.527909         321.011         164.236         327.723 
       0.540159         312.644         156.368         318.391 
        0.55248         306.523         148.903         309.322 
       0.564743         300.549          141.99           303.1 
        0.57686         289.144         135.637         293.968 
       0.589077         278.424         129.639         287.574 
       0.601441         275.139         123.936         280.809 
        0.61382         271.239          118.56         274.746 
       0.626067         265.688         113.542         268.492 
       0.638306         253.552         108.817         263.291 
       0.650632         248.282         104.341         255.316 
       0.662899         246.975         100.146         251.604 
       0.675076         237.616         96.2144         246.339 
       0.687267         231.618         92.4891         240.827 
       0.699615         227.698         88.9145         236.333 
       0.711937         223.312         85.5353         231.931 
       0.724148         217.693         82.3604         228.451 
       0.736433         212.945         79.3309         223.507 
       0.748747          208.81         76.4494         219.109 
       0.761037         205.456         73.7179         215.136 
       0.773197         201.975         71.1481         212.497 
       0.785376         199.562         68.6979         208.152 
       0.797761         194.835         66.3252          205.38 
       0.810096         191.614          64.074         201.923 
       0.822371         184.546         61.9382         198.559 
       0.834626         183.521         59.9037          195.33 
       0.846916         180.477         57.9558         192.483 
       0.859215         179.476         56.0938         189.556 
       0.871383         174.958         54.3326         186.447 
        0.88363         172.807         52.6369         184.431 
       0.895928         168.995         51.0075         181.702 
       0.908253         164.338         49.4444         178.497 
       0.920535         163.771         47.9523         176.158 
       0.932774         158.335         46.5273         173.499 
        0.94508         157.089         45.1534         171.573 
       0.957324         156.394         43.8419         168.983 
        0.96953         154.574         42.5867         166.367 
       0.981769         149.769         41.3777         164.887 
       0.994071         149.038         40.2102          162.64 
         1.0064         145.401         39.0859         160.173 
        1.01868         143.653         38.0081         158.423 
        1.03092         141.325         36.9759           156.6 
         1.0432         138.649         35.9785         154.595 
        1.05553         136.088         35.0142         152.898 
        1.06777          135.85         34.0923         151.285 
           1.08         132.743         33.2048         149.257 
        1.09227         131.281         32.3461         147.746 
         1.1046          129.04         31.5147         145.951 
         1.1169          127.42          30.714         143.984 
        1.12915         125.346         29.9453         142.509 
        1.14142          123.42         29.2014         140.677 
        1.15365         121.579         28.4851         139.178 
        1.16585         119.901         27.7948         137.426 
        1.17807         118.064         27.1266         136.409 
        1.19037         117.611          26.476         134.953 
        1.20276         115.077         25.8425         133.316 
        1.21504         113.877         25.2348         131.837 
        1.22728         111.545         24.6492         130.352 
        1.23954         110.798         24.0808         129.109 
        1.25184         108.425         23.5294         127.735 
        1.26414         107.101          22.995         126.433 
        1.27632         106.339         22.4821         125.755 
         1.2886         104.352         21.9812         123.885 
        1.30093         102.159         21.4939         122.557 
        1.31316         101.712          21.025         121.408 
        1.32541          100.27           20.57          120.41 
        1.33772         99.0669          20.126         119.139 
        1.35005         97.8981         19.6948         117.861 
        1.36225         96.6109         19.2807         116.785 
        1.37447         94.6225         18.8777         115.524 
        1.38676         94.3047         18.4844          114.27 
        1.39907         92.1782         18.1017         113.369 
        1.41133         90.8698         17.7315         112.462 
        1.42358         89.7792         17.3721         111.243 
        1.43591         89.1745         17.0202          110.08 
        1.44818         88.0751         16.6799         109.138 
        1.46037         86.5593          16.351         108.126 
        1.47263         85.1784         16.0292         107.286 
        1.48494         84.6082         15.7148          106.18 
        1.49724         83.1417         15.4092         105.053 
        1.50952          81.998         15.1123         104.128 
        1.52178         81.1156         14.8236          103.25 
        1.53409         80.3649         14.5414         102.343 
        1.54637         78.4921         14.2671         101.381 
        1.55858         77.7422         14.0015         100.431 
        1.57081         76.7238         13.7422         99.5952 
        1.58313         75.6718         13.4879         98.7214 
        1.59544         74.8644         13.2402         97.8038 
        1.60767         73.8363         13.0003         96.9301 
        1.61994         72.8711         12.7656         96.2976 
        1.63225         71.7555         12.5361         95.1529 
        1.64452         70.8838          12.313         94.4468 
        1.65676         69.8291         12.0959         93.6019 
          1.669         69.3371          11.884         92.8469 
        1.68133         68.5217         11.6758         91.9882 
        1.69363         67.5072         11.4732         91.3062 
        1.70585         66.8232         11.2767         90.4512 
        1.71809         65.5232         11.0844         89.8094 
        1.73038         64.8074          10.896         88.9228 
        1.74268         63.8705         10.7119         88.2267 
        1.75493         63.3209         10.5328         87.4352 
        1.76714         62.3252         10.3584         86.6963 
        1.77942         61.9616          10.187         85.9741 
        1.79173         60.8729          10.019         85.2115 
        1.80402         60.2024         9.85518         84.5977 
         1.8163          59.466         9.69512         83.7704 
         1.8286         58.5748         9.53834         83.2283 
         1.8409         57.6843         9.38516         82.4584 
        1.85315         56.9393         9.23586         81.9159 
        1.86537         56.3753         9.09011         81.1737 
        1.87765         55.6683         8.94697         80.3955 
        1.88995         54.9653         8.80657         79.8157 
        1.90221         54.4548         8.66967         79.1553 
        1.91445         53.5062         8.53591         78.5678 
        1.92674         53.0058         8.40452         77.9183 
        1.93902         52.3379         8.27588         77.2382 
        1.95124         51.9297         8.15062         76.7416 
         1.9635         50.9382         8.02764         76.0056 
        1.97583         50.4407         7.90642         75.5082 
        1.98812         49.7543         7.78816         74.8345 
        2.00039         49.1996         7.67256         74.2433 
        2.01264         48.4735         7.55942         73.6717 
        2.02492          47.916          7.4484         73.1193 
        2.03717         47.2741         7.33979          72.473 
        2.04942          46.661         7.23349         71.9817 
        2.06171          46.089         7.12893         71.3409 
        2.07397         45.4608         7.02667         70.8593 
        2.08629         44.9602           6.926         70.2389 
        2.09857          44.579         6.82753         69.7562 
        2.11081         43.6548         6.73139         69.1491 
        2.12309          43.327         6.63687         68.6446 
        2.13538         42.7992         6.54403         68.1271 
        2.14763         42.3784         6.45327         67.6099 
        2.15986         41.9492         6.36445         67.0721 
        2.17214         41.2295         6.27694         66.6358 
        2.18443         41.0203         6.19099          66.068 
        2.19671          40.251         6.10676         65.5342 
        2.20898         39.8815          6.0242         65.0366 
        2.22126         39.4244         5.94307         64.5339 
        2.23354         38.8898         5.86347         64.1081 
         2.2458         38.5453         5.78546         63.6178 
        2.25807         38.0681          5.7088         63.0985 
        2.27035         37.5844         5.63347         62.6381 
        2.28263         37.0975         5.55953           62.17 
         2.2949         36.5838         5.48696         61.7227 
        2.30718          36.274         5.41566         61.2731 
        2.31946         35.7565         5.34559         60.8358 
        2.33169          35.404         5.27707         60.3585 
        2.34393         34.8606         5.20964         59.8988 
        2.35622         34.5545         5.14318         59.4759 
        2.36847         34.1103         5.07806         59.0226 
        2.38076         33.8835         5.01387         58.6192 
        2.39305         33.4452         4.95082         58.1935 
        2.40534         33.0751         4.88884         57.6988 
        2.41762         32.6814         4.82793         57.2868 
        2.42989          32.216         4.76815         56.9169 
        2.44216         31.9826         4.70939         56.4858 
         2.4544         31.6785         4.65176         56.0945 
        2.46667         31.1183         4.59496         55.6493 
        2.47897         30.8926         4.53897         55.2733 
        2.49124         30.5091         4.48407         54.8668 
        2.50349         30.1478         4.43016         54.5023 
        2.51578         29.8073         4.37697         54.1209 
        2.52805         29.6186         4.32475         53.7071 
        2.54029         29.3373         4.27351         53.3363 
        2.55257         28.9461         4.22295          52.968 
        2.56487         28.6526         4.17311         52.5934 
        2.57716         28.3797         4.12414         52.2444 
        2.58942         27.9936         4.07607         51.8673 
        2.60167         27.6721         4.02881         51.4649 
        2.61395         27.4343         3.98223         51.1253 
        2.62624         27.1866         3.93633         50.7742 
        2.63849         26.9533         3.89129         50.4172 
        2.65073         26.6362           3.847         50.0436 
        2.66302         26.3265         3.80325         49.7247 
         2.6753         26.0711          3.7602          49.377 
        2.68756         25.7775         3.71791         49.0336 
        2.69983         25.5828         3.67624         48.6965 
        2.71213         25.2247         3.63512          48.375 
        2.72441         25.1311          3.5947         48.0181 
        2.73665         24.8587           3.555         47.6935 
         2.7489         24.6818         3.51592         47.3754 
        2.76118         24.4289          3.4773         47.0291 
        2.77349         24.2222         3.43917         46.7364 
        2.78576         24.0403         3.40177         46.4096 
        2.79802         23.7363         3.36494         46.0936 
        2.81031         23.5633         3.32857         45.7992 
        2.82259         23.3781         3.29275         45.4737 
        2.83483         23.1311          3.2576         45.1625 
         2.8471         23.0207         3.22289          44.865 
         2.8594         22.7729         3.18858         44.5808 
         2.8717         22.5441         3.15478          44.272 
        2.88396         22.4643          3.1216         43.9621 
        2.89619           22.31         3.08895         43.6754 
        2.90847         22.1318         3.05665         43.3816 
        2.92072         21.9859         3.02486         43.1117 
        2.93299          21.892         2.99352         42.8153 
        2.94526         21.7324         2.96258         42.5395 
        2.95753         21.5462          2.9321          42.274 
        2.96982         21.5326         2.90199          41.992 
        2.98209         21.3206         2.87236         41.7187 
        2.99436         21.2129         2.84313         41.4485 
        3.00666         21.0941         2.81425         41.1757 
        3.01894         21.0307         2.78582         40.8936 
        3.03119         20.8523         2.75784         40.6223 
        3.04345         20.7586         2.73023         40.3691 
        3.05573         20.6862         2.70295         40.1155 
          3.068         20.6547         2.67606         39.8481 
        3.08026         20.6332         2.64958          39.589 
        3.09254         20.5026          2.6234         39.3454 
        3.10483          20.503         2.59757         39.0997 
         3.1171          20.412         2.57212         38.8475 
        3.12933         20.4059         2.54708         38.5991 
        3.14159         20.3858         2.52232         38.3487 
