# k  (h/Mpc)    Pcb(k)  (Mpc/h)^3    Pcb_linear(k) (Mpc/h)^3    Pcb_NL(k) (Mpc/h)^3   ShotnoiseSubtracted = false
      0.0156606         7565.35         7580.31         7537.34 
      0.0273761         6542.42         6556.78         6525.07 
      0.0384619         4968.91         4940.76         4919.77 
      0.0498308         3874.23         3886.66         3868.01 
      0.0625568         3269.45         3303.41         3284.77 
      0.0751274         2864.71         2806.72         2778.39 
      0.0867833         2249.57         2259.78          2253.4 
      0.0984825         1851.01         1788.36         1801.36 
       0.111151         1560.24         1493.27         1506.72 
       0.123864         1401.55         1345.75         1357.06 
       0.135742         1264.48         1210.17         1221.81 
        0.14762         1081.55         1034.76         1063.14 
       0.160083         899.313         862.537         895.132 
       0.172465         798.955         752.832         793.078 
       0.184281         738.459         694.024         736.342 
       0.196406         675.588          640.93         675.141 
       0.209011         616.973         570.266         607.593 
       0.221538         554.102         498.359         550.506 
       0.233611          508.64         445.903         504.319 
       0.245665         475.042         411.552         463.915 
       0.258103         438.288          383.12         435.225 
       0.270422         405.499         352.043         403.671 
       0.282519         370.353         319.499         373.738 
       0.294636         363.778         291.099         348.242 
       0.306978         321.851         269.316         328.719 
       0.319417         308.638         251.795         308.837 
        0.33169         288.884         235.023         290.084 
       0.343948         275.697         217.763         275.532 
       0.356249         256.501         201.576         262.112 
       0.368458         247.564         188.017         246.102 
        0.38068         235.126         176.679         234.061 
       0.392856         219.496         166.329         223.765 
       0.405069         209.933         156.208         214.173 
       0.417459         199.923         146.409         202.658 
       0.429752         192.406         137.612         194.346 
       0.441978         185.231         129.891          187.66 
       0.454294         172.549          122.88         178.308 
        0.46658         172.759         116.302         172.265 
       0.478753         162.561         110.096          165.83 
       0.490964         157.569         104.267         159.504 
       0.503334         149.766          98.886         154.112 
       0.515665         145.913         93.9795         150.069 
       0.527909          141.33         89.4502         143.522 
       0.540159         136.584         85.1651         139.279 
        0.55248         132.067          81.099         134.471 
       0.564743          128.32          77.334         130.898 
        0.57686         124.263         73.8738         126.571 
       0.589077         118.689         70.6074         123.465 
       0.601441         116.075         67.5014         120.107 
        0.61382         114.038         64.5729         116.396 
       0.626067          109.57         61.8402           113.4 
       0.638306         105.786         59.2668         110.559 
       0.650632         102.028         56.8287          106.67 
       0.662899         101.675         54.5439         104.223 
       0.675076         98.0012         52.4027         101.672 
       0.687267         95.8536         50.3738         99.2047 
       0.699615         92.8912         48.4269         97.1738 
       0.711937         90.0599         46.5864         94.3953 
       0.724148           89.26         44.8572         93.0637 
       0.736433         85.5914         43.2072         90.5356 
       0.748747         84.0339         41.6378         88.5253 
       0.761037         82.1354         40.1501          86.422 
       0.773197         80.3474         38.7505         85.3448 
       0.785376         78.3921          37.416         83.1543 
       0.797761         77.6359         36.1237         81.8417 
       0.810096         74.9415         34.8976         79.9726 
       0.822371         73.5319         33.7344         78.3988 
       0.834626         71.8263         32.6263         77.0807 
       0.846916         70.7266         31.5653         75.6756 
       0.859215         69.1491         30.5512         74.1199 
       0.871383         68.2261          29.592         72.8713 
        0.88363         66.3497         28.6684          71.838 
       0.895928         64.9711          27.781         70.5488 
       0.908253          63.411         26.9297         69.3432 
       0.920535          63.058          26.117         68.2234 
       0.932774         61.7788         25.3409         67.0484 
        0.94508         60.9065         24.5926         65.8333 
       0.957324         59.3628         23.8783          64.966 
        0.96953         59.2889         23.1946          63.788 
       0.981769         57.3299         22.5362         63.0273 
       0.994071         56.6594         21.9003          62.086 
         1.0064         55.4261          21.288         61.1214 
        1.01868         54.5746         20.7009         60.2916 
        1.03092         53.7353         20.1388         59.3889 
         1.0432         52.8169         19.5955         58.4257 
        1.05553         51.5187         19.0703         57.9618 
        1.06777         51.0262         18.5682         57.0489 
           1.08         49.8303         18.0848         56.2229 
        1.09227         49.2461         17.6171         55.4424 
         1.1046         48.5149         17.1643          54.689 
         1.1169         47.9539         16.7283         53.9053 
        1.12915         47.1349         16.3096         53.3199 
        1.14142         46.2299         15.9044         52.6464 
        1.15365         45.5525         15.5143         52.0366 
        1.16585         44.8627         15.1383         51.2909 
        1.17807         44.1387         14.7744         50.6283 
        1.19037         44.0058         14.4201         50.1754 
        1.20276         43.2327          14.075         49.5504 
        1.21504          42.639          13.744         48.9977 
        1.22728         41.8252         13.4251         48.4148 
        1.23954         41.3582         13.1155         47.7411 
        1.25184         40.6561         12.8152         47.3067 
        1.26414         40.0872         12.5241         46.6943 
        1.27632          39.763         12.2448         46.2167 
         1.2886         39.3419          11.972         45.7165 
        1.30093         38.6577         11.7066         45.1276 
        1.31316         38.0732         11.4512         44.7577 
        1.32541         37.8145         11.2034         44.2496 
        1.33772         37.0863         10.9615         43.7849 
        1.35005          36.665         10.7267          43.355 
        1.36225          36.076         10.5011         42.9344 
        1.37447         35.2332         10.2817         42.4506 
        1.38676         35.3524         10.0675         42.0777 
        1.39907         34.7816         9.85903         41.6911 
        1.41133         34.0708         9.65741         41.2518 
        1.42358         33.7287         9.46163         40.8212 
        1.43591         33.3259         9.26995         40.4715 
        1.44818         32.9911         9.08465         40.0048 
        1.46037         32.5668         8.90553         39.6414 
        1.47263         32.3307         8.73025         39.3261 
        1.48494          31.704         8.55902         38.9102 
        1.49724         31.6198         8.39254         38.5493 
        1.50952         31.1248         8.23083         38.2389 
        1.52178         30.6667         8.07363         37.8697 
        1.53409         30.4159         7.91991         37.5366 
        1.54637         30.0193         7.77052         37.1571 
        1.55858         29.3327         7.62583         36.8399 
        1.57081         29.4226         7.48463         36.5542 
        1.58313         29.0555         7.34614         36.2056 
        1.59544         28.5127         7.21123         35.9049 
        1.60767         28.1936         7.08057         35.5492 
        1.61994         27.8532         6.95271         35.2732 
        1.63225         27.7202         6.82774         35.0102 
        1.64452         27.2959          6.7062         34.7159 
        1.65676         27.0141           6.588         34.4009 
          1.669         26.7523         6.47256         34.1537 
        1.68133         26.4073         6.35917         33.8422 
        1.69363         26.0391         6.24882         33.5125 
        1.70585         25.8326          6.1418         33.3363 
        1.71809         25.4146         6.03708         32.9883 
        1.73038         25.2842         5.93446          32.782 
        1.74268         24.9698         5.83418         32.4524 
        1.75493          24.652         5.73667         32.2266 
        1.76714         24.5205         5.64164         31.9911 
        1.77942         24.2463         5.54829         31.7224 
        1.79173         23.8025         5.45681         31.4737 
        1.80402         23.5681         5.36758         31.3084 
         1.8163         23.4702          5.2804         30.9379 
         1.8286         23.0574         5.19502           30.76 
         1.8409         22.8589         5.11159         30.5294 
        1.85315         22.6344         5.03027         30.3147 
        1.86537         22.3289         4.95089         30.0846 
        1.87765         22.2011         4.87293         29.8501 
        1.88995         21.8978         4.79646         29.5874 
        1.90221         21.6831          4.7219         29.3768 
        1.91445         21.4143         4.64905         29.1633 
        1.92674         21.2253         4.57748         28.9466 
        1.93902         20.9743         4.50742         28.7624 
        1.95124         20.6649          4.4392         28.6005 
         1.9635         20.5445         4.37222         28.3429 
        1.97583         20.3317          4.3062         28.1434 
        1.98812         20.1617         4.24179         27.9601 
        2.00039         19.9445         4.17883         27.7512 
        2.01264         19.7146         4.11721         27.5714 
        2.02492         19.5571         4.05674         27.3399 
        2.03717         19.2613         3.99758         27.1632 
        2.04942         19.1095         3.93969         26.9583 
        2.06171         18.9717         3.88274         26.7819 
        2.07397         18.7806         3.82705         26.5728 
        2.08629         18.6019         3.77222         26.3837 
        2.09857         18.4207         3.71859         26.2197 
        2.11081         18.1846         3.66622         26.0368 
        2.12309         18.0584         3.61474         25.8549 
        2.13538         17.8328         3.56418         25.6827 
        2.14763         17.6602         3.51475         25.5113 
        2.15986         17.5483         3.46637         25.3466 
        2.17214         17.3427         3.41871         25.1798 
        2.18443         17.1732          3.3719         24.9921 
        2.19671         16.9981         3.32602         24.8154 
        2.20898         16.8353         3.28105         24.6523 
        2.22126          16.707         3.23687         24.5014 
        2.23354           16.62         3.19351          24.336 
         2.2458         16.4096         3.15103         24.2009 
        2.25807         16.2037         3.10928         23.9957 
        2.27035         16.0791         3.06824         23.8562 
        2.28263         15.9145         3.02798         23.7012 
         2.2949         15.8284         2.98845         23.5589 
        2.30718         15.6841         2.94962         23.4103 
        2.31946         15.5592         2.91146         23.2452 
        2.33169         15.3931         2.87414         23.0953 
        2.34393         15.2529         2.83741         22.9668 
        2.35622         15.0515         2.80121         22.8125 
        2.36847         14.9474         2.76574          22.656 
        2.38076         14.7877         2.73079         22.5286 
        2.39305         14.6884         2.69644         22.3816 
        2.40534         14.5383         2.66269          22.213 
        2.41762         14.3999         2.62951         22.1096 
        2.42989         14.2851         2.59695         21.9474 
        2.44216         14.1519         2.56495         21.8144 
         2.4544         14.1326         2.53356          21.665 
        2.46667         13.9463         2.50263          21.544 
        2.47897         13.7749         2.47213         21.3993 
        2.49124         13.7209         2.44223         21.2683 
        2.50349         13.5604         2.41287         21.1261 
        2.51578         13.4641          2.3839         21.0244 
        2.52805           13.36         2.35546         20.8861 
        2.54029         13.2741         2.32755         20.7572 
        2.55257         13.1808         2.30001         20.6269 
        2.56487         12.9995         2.27287         20.5043 
        2.57716         12.9271          2.2462         20.3616 
        2.58942         12.8523         2.22001         20.2618 
        2.60167         12.6952         2.19428         20.1377 
        2.61395          12.687         2.16891         20.0133 
        2.62624         12.5777          2.1439         19.8901 
        2.63849         12.4463         2.11937         19.7887 
        2.65073          12.352         2.09525         19.6566 
        2.66302           12.28         2.07142         19.5497 
         2.6753         12.2216         2.04798          19.424 
        2.68756         12.1209         2.02494          19.318 
        2.69983         12.0226         2.00225         19.1967 
        2.71213          11.925         1.97985         19.0701 
        2.72441         11.8837         1.95784          18.969 
        2.73665         11.8074         1.93622         18.8576 
         2.7489         11.7483         1.91493           18.74 
        2.76118         11.6232          1.8939         18.6371 
        2.77349         11.5628         1.87313         18.5277 
        2.78576         11.4687         1.85276         18.4274 
        2.79802         11.4342          1.8327         18.3127 
        2.81031         11.3609         1.81289          18.203 
        2.82259         11.3133         1.79338          18.105 
        2.83483          11.248         1.77424         18.0033 
         2.8471         11.1842         1.75533         17.8933 
         2.8594         11.1474         1.73665         17.7847 
         2.8717         11.0863         1.71824         17.6889 
        2.88396          11.014         1.70017         17.5873 
        2.89619         10.9795         1.68238         17.4844 
        2.90847         10.9331         1.66479         17.3935 
        2.92072         10.8965         1.64748         17.2786 
        2.93299         10.8103         1.63041         17.1905 
        2.94526         10.7974         1.61356            17.1 
        2.95753         10.7494         1.59695         16.9968 
        2.96982         10.7047         1.58056         16.8999 
        2.98209         10.6993         1.56442         16.8056 
        2.99436         10.6745          1.5485         16.7056 
        3.00666         10.6434         1.53277         16.6134 
        3.01894         10.6192         1.51729         16.5344 
        3.03119         10.5812         1.50204         16.4365 
        3.04345         10.5173         1.48701         16.3324 
        3.05573         10.5413         1.47215         16.2459 
          3.068         10.5206         1.45751         16.1642 
        3.08026         10.4976         1.44308         16.0613 
        3.09254         10.5009         1.42882         15.9803 
        3.10483         10.4917         1.41475         15.9022 
         3.1171          10.514         1.40089          15.809 
        3.12933         10.4866         1.38726         15.7203 
        3.14159         10.4524         1.37377         15.6306 
