# k  (h/Mpc)    P(k)  (Mpc/h)^3    P_linear(k)  (Mpc/h)^3     P_NL(k)  ShotnoiseSubtracted = false
      0.0156606         22290.7         22452.6         22272.8 
      0.0273761         19068.3         19379.1         19162.2 
      0.0384619         14402.4         14586.4         14393.2 
      0.0498308         11113.5         11466.4         11271.8 
      0.0625568         9387.28         9740.86         9568.22 
      0.0751274         8363.57         8273.64         8031.55 
      0.0867833         6475.03            6660         6584.78 
      0.0984825         5479.04         5269.85         5335.69 
       0.111151         4690.68         4399.76         4482.64 
       0.123864         4201.81         3964.75         4031.69 
       0.135742         3833.56         3565.09         3632.09 
        0.14762            3340         3048.19         3225.47 
       0.160083         2842.94         2540.74         2760.02 
       0.172465         2535.67         2217.51         2496.88 
       0.184281         2296.18         2044.23         2323.87 
       0.196406         2170.88          1887.8         2141.68 
       0.209011         2033.94         1679.63         1942.28 
       0.221538         1830.86         1467.81         1815.76 
       0.233611         1758.57         1313.29         1703.45 
       0.245665         1593.17          1212.1         1574.06 
       0.258103         1581.22         1128.35         1486.89 
       0.270422         1410.67         1036.82         1397.94 
       0.282519         1334.69         940.961         1325.36 
       0.294636         1309.17         857.313         1256.42 
       0.306978         1198.51         793.154         1204.96 
       0.319417         1176.97          741.55         1136.42 
        0.33169          1106.1         692.154         1077.11 
       0.343948          1063.1         641.317         1044.51 
       0.356249         1009.23         593.643         1006.47 
       0.368458         968.381         553.711         962.999 
        0.38068         954.762         520.321         927.078 
       0.392856         907.594         489.837         895.487 
       0.405069         860.489         460.028         866.299 
       0.417459         827.993         431.169         837.039 
       0.429752         825.894         405.262         808.027 
       0.441978         797.036         382.524         787.982 
       0.454294         762.893         361.876         756.368 
        0.46658         741.513         342.501         741.206 
       0.478753         728.208         324.224          719.22 
       0.490964         700.565         307.056         697.558 
       0.503334         671.289         291.211         682.524 
       0.515665         668.778         276.762         667.117 
       0.527909         641.051         263.423         653.633 
       0.540159         626.028         250.803         637.521 
        0.55248         613.592         238.829         621.204 
       0.564743         608.656         227.741          610.75 
        0.57686         589.117         217.551         594.904 
       0.589077         579.476         207.931         582.009 
       0.601441         565.645         198.784         570.932 
        0.61382         549.857          190.16         560.963 
       0.626067         544.497         182.112         550.789 
       0.638306         524.884         174.534         539.616 
       0.650632         520.188         167.354         527.164 
       0.662899         516.176         160.625          520.74 
       0.675076         500.015          154.32         513.874 
       0.687267         485.783         148.345         501.831 
       0.699615          484.74         142.611         493.939 
       0.711937         474.575         137.191         484.631 
       0.724148         459.461         132.099          478.32 
       0.736433          448.89          127.24         469.964 
       0.748747         443.392         122.618         461.772 
       0.761037         435.747         118.237         456.302 
       0.773197         429.164         114.115         448.721 
       0.785376         424.025         110.185         442.348 
       0.797761         411.484          106.38         435.928 
       0.810096         406.951         102.769         430.381 
       0.822371          396.54         99.3431         423.449 
       0.834626         392.726         96.0799         418.617 
       0.846916         386.978         92.9555         412.069 
       0.859215         382.376         89.9691         406.044 
       0.871383         374.029         87.1443         400.763 
        0.88363         369.792         84.4245         396.731 
       0.895928         364.749         81.8111         390.599 
       0.908253         355.823          79.304         384.185 
       0.920535         348.906         76.9109         380.139 
       0.932774         343.941         74.6253         374.352 
        0.94508         338.812         72.4216         370.643 
       0.957324         335.371          70.318          365.72 
        0.96953         331.212         68.3048         361.314 
       0.981769         323.428         66.3658         357.298 
       0.994071           322.3         64.4931         352.978 
         1.0064         316.398         62.6899         347.857 
        1.01868          312.85         60.9611         343.453 
        1.03092           303.7         59.3056         340.468 
         1.0432         300.993         57.7059         336.356 
        1.05553         297.937         56.1592         331.722 
        1.06777         293.988         54.6807         327.971 
           1.08         287.398         53.2571         324.366 
        1.09227         286.842         51.8798         320.476 
         1.1046          281.24         50.5463         317.461 
         1.1169         275.361         49.2622         313.263 
        1.12915         271.607         48.0292         310.077 
        1.14142         266.195         46.8361         306.436 
        1.15365         263.402         45.6871         303.226 
        1.16585          258.95         44.5799         299.844 
        1.17807         256.536         43.5082         296.592 
        1.19037         252.141         42.4648         294.088 
        1.20276         249.178         41.4487          290.25 
        1.21504         244.079          40.474         286.996 
        1.22728         240.617         39.5347         283.882 
        1.23954         239.303         38.6231         281.039 
        1.25184         233.863         37.7387         278.079 
        1.26414         229.308         36.8816         275.453 
        1.27632          227.49         36.0589         272.925 
         1.2886         225.499         35.2556         269.832 
        1.30093         220.488          34.474         266.412 
        1.31316         215.922         33.7219         263.869 
        1.32541         214.887         32.9921         261.066 
        1.33772         211.111         32.2799         258.703 
        1.35005         208.756         31.5884          255.78 
        1.36225         204.825         30.9241         253.391 
        1.37447         201.677         30.2778         250.322 
        1.38676         199.822         29.6471         248.561 
        1.39907         196.973         29.0332         245.525 
        1.41133         193.244         28.4395         242.961 
        1.42358         190.967          27.863         240.678 
        1.43591         188.551         27.2985         238.525 
        1.44818         184.978         26.7528         236.011 
        1.46037         183.534         26.2253         233.477 
        1.47263         179.974         25.7092         231.274 
        1.48494         178.563         25.2049         228.502 
        1.49724         175.464         24.7147          227.07 
        1.50952         172.366         24.2385         224.439 
        1.52178         170.573         23.7755         222.201 
        1.53409         167.571         23.3228         220.179 
        1.54637         165.061         22.8829          218.36 
        1.55858         163.308         22.4568         216.036 
        1.57081         160.543          22.041         213.946 
        1.58313         158.516         21.6332         211.772 
        1.59544         155.629         21.2359         209.886 
        1.60767          154.26         20.8511         208.023 
        1.61994           151.7         20.4746         205.937 
        1.63225         149.327         20.1066         203.848 
        1.64452         146.996         19.7487         202.042 
        1.65676         145.174         19.4006          200.31 
          1.669          143.54         19.0606         198.318 
        1.68133         140.792         18.7267         196.508 
        1.69363         138.386         18.4017         194.874 
        1.70585         136.293         18.0866          193.06 
        1.71809         134.598         17.7782         190.993 
        1.73038          132.96          17.476         189.402 
        1.74268         131.782         17.1807         187.548 
        1.75493         128.739         16.8935         186.034 
        1.76714         128.187         16.6137         184.408 
        1.77942         125.545         16.3388         182.687 
        1.79173         123.716         16.0694         180.971 
        1.80402         122.116         15.8066         179.361 
         1.8163         119.944         15.5499         177.932 
         1.8286         118.394         15.2985         176.185 
         1.8409         117.017         15.0528         174.552 
        1.85315         114.756         14.8133         173.121 
        1.86537         113.671         14.5796          171.66 
        1.87765         112.281           14.35         170.191 
        1.88995          110.24         14.1248         168.563 
        1.90221         108.949         13.9052         167.254 
        1.91445         107.324         13.6907         165.644 
        1.92674         105.659         13.4799         164.183 
        1.93902         104.412         13.2736         162.703 
        1.95124         103.012         13.0727         161.336 
         1.9635         101.317         12.8755         159.933 
        1.97583         99.7971          12.681         158.519 
        1.98812         98.4055         12.4914         157.396 
        2.00039         97.3249          12.306         155.876 
        2.01264         96.1454         12.1245         154.594 
        2.02492         94.8336         11.9464         153.176 
        2.03717          93.416         11.7722         151.977 
        2.04942         92.2612         11.6017         150.675 
        2.06171         90.6506          11.434         149.336 
        2.07397         89.6096           11.27         148.203 
        2.08629         88.2788         11.1085         146.908 
        2.09857         87.2439         10.9506         145.735 
        2.11081         85.8541         10.7964          144.39 
        2.12309          84.799         10.6448          143.29 
        2.13538         83.4536         10.4959         142.037 
        2.14763         82.3205         10.3503         140.884 
        2.15986          81.431         10.2079         139.626 
        2.17214         80.2944         10.0675         138.555 
        2.18443           79.33         9.92968         137.565 
        2.19671         78.3321         9.79458         136.365 
        2.20898         77.3208         9.66215         135.139 
        2.22126         76.1996         9.53203         134.151 
        2.23354         75.2958         9.40436         133.081 
         2.2458         73.8403         9.27924         131.955 
        2.25807         73.1447         9.15629         130.902 
        2.27035         72.0885         9.03547         129.839 
        2.28263         71.2287         8.91688         128.852 
         2.2949         69.8681         8.80048         127.834 
        2.30718         68.9459         8.68613         126.783 
        2.31946         68.3515         8.57375           125.7 
        2.33169         67.2732         8.46385         124.759 
        2.34393         66.7423          8.3557         123.883 
        2.35622         65.5742          8.2491         122.824 
        2.36847         64.9437         8.14465         121.975 
        2.38076         63.7843         8.04171         120.901 
        2.39305         63.1995         7.94057         120.067 
        2.40534         62.2606         7.84116         119.066 
        2.41762         61.6001         7.74347         118.117 
        2.42989         60.6492         7.64759          117.26 
        2.44216         60.0941         7.55335          116.28 
         2.4544         59.1631         7.46091         115.443 
        2.46667         58.3593         7.36981         114.562 
        2.47897          57.805         7.28001         113.613 
        2.49124         57.1422         7.19195         112.768 
        2.50349         56.2001         7.10548         111.934 
        2.51578         55.8036         7.02017         111.172 
        2.52805         54.9532         6.93642         110.244 
        2.54029         54.4166         6.85424         109.405 
        2.55257         53.7058         6.77314         108.648 
        2.56487         53.3714          6.6932         107.838 
        2.57716         52.7684         6.61467         107.033 
        2.58942         51.9069         6.53757         106.246 
        2.60167         51.3553         6.46177         105.476 
        2.61395         51.0013         6.38706         104.676 
        2.62624         50.1414         6.31343         103.846 
        2.63849         49.6222          6.2412         103.124 
        2.65073         48.9669         6.17017         102.367 
        2.66302         48.5614         6.09999         101.614 
         2.6753         47.9401         6.03095         100.902 
        2.68756         47.5976         5.96312         100.134 
        2.69983         47.0046         5.89629         99.4208 
        2.71213         46.4787         5.83033          98.713 
        2.72441         46.0713         5.76551         97.9869 
        2.73665          45.563         5.70183         97.3169 
         2.7489         45.0757         5.63914         96.6346 
        2.76118          44.656         5.57721          95.913 
        2.77349         44.1864         5.51606         95.2511 
        2.78576         43.7727         5.45606         94.5522 
        2.79802         43.3975         5.39699         93.9478 
        2.81031         42.8234         5.33866         93.2618 
        2.82259         42.4209         5.28121         92.5692 
        2.83483         41.9711         5.22483         91.9672 
         2.8471         41.5916         5.16916          91.299 
         2.8594         41.1618         5.11413         90.6522 
         2.8717         40.8826         5.05992         90.0681 
        2.88396         40.5316          5.0067         89.4389 
        2.89619         40.2091         4.95434         88.7741 
        2.90847         39.8224         4.90253         88.1279 
        2.92072          39.517         4.85155          87.586 
        2.93299         39.3666         4.80127         87.0047 
        2.94526         38.9681         4.75166         86.3883 
        2.95753         38.7176         4.70276         85.7861 
        2.96982         38.3204         4.65447         85.2181 
        2.98209         38.1744         4.60695         84.6456 
        2.99436         37.8701         4.56006         84.0403 
        3.00666          37.721         4.51374         83.4786 
        3.01894         37.4778         4.46816         82.9278 
        3.03119          37.243         4.42326         82.3955 
        3.04345         37.0124         4.37899         81.8532 
        3.05573         36.9187         4.33523         81.2958 
          3.068         36.6853         4.29211         80.7604 
        3.08026         36.4794         4.24963         80.2207 
        3.09254         36.4094         4.20764         79.6983 
        3.10483         36.4038         4.16621         79.1768 
         3.1171         36.2081         4.12539         78.6466 
        3.12933           35.96         4.08524         78.1243 
        3.14159         35.9709         4.04553         77.6038 
