# k  (h/Mpc)    Pcb(k)  (Mpc/h)^3    Pcb_linear(k) (Mpc/h)^3    Pcb_NL(k) (Mpc/h)^3   ShotnoiseSubtracted = false
      0.0156606         10480.5         10509.2         10444.8 
      0.0273761         9043.65          9088.9         9033.26 
      0.0384619         6863.72         6848.35         6806.66 
      0.0498308         5338.57         5387.07         5347.82 
      0.0625568          4506.3         4578.55         4541.35 
      0.0751274         3967.66         3890.08         3835.44 
      0.0867833         3103.22            3132         3117.93 
      0.0984825         2570.92          2478.6            2500 
       0.111151         2174.55         2069.61         2092.56 
       0.123864         1952.62         1865.15         1884.39 
       0.135742         1765.56         1677.24         1697.01 
        0.14762         1517.04         1434.13         1484.11 
       0.160083         1265.29         1195.43         1253.82 
       0.172465         1126.54         1043.38         1116.25 
       0.184281         1037.53         961.878          1037.6 
       0.196406         953.869         888.293          951.22 
       0.209011         876.617         790.355         857.822 
       0.221538         789.687         690.697         784.454 
       0.233611         732.953         617.995         723.288 
       0.245665         679.154         570.386         665.383 
       0.258103         638.537         530.981         625.375 
       0.270422         583.624          487.91         582.048 
       0.282519          536.72         442.806         541.654 
       0.294636         530.941         403.445         507.309 
       0.306978         472.343         373.255         481.164 
       0.319417         454.491         348.972         452.424 
        0.33169         427.144         325.728         425.593 
       0.343948         407.215         301.806          407.33 
       0.356249         380.838         279.371         388.861 
       0.368458         369.038          260.58         366.591 
        0.38068         352.617         244.866         349.681 
       0.392856         330.285         230.521         335.034 
       0.405069         317.073         216.494         322.906 
       0.417459         302.848         202.913         306.007 
       0.429752         292.328         190.721         294.361 
       0.441978         282.576         180.021         285.042 
       0.454294         264.477         170.304         271.662 
        0.46658         263.484         161.187         263.714 
       0.478753         251.065         152.586         254.264 
       0.490964         242.908         144.507         245.112 
       0.503334         229.455          137.05         237.774 
       0.515665         226.208          130.25         232.107 
       0.527909         219.399         123.972         223.648 
       0.540159         212.831         118.033         217.197 
        0.55248          208.19         112.398         210.431 
       0.564743         202.452          107.18         205.624 
        0.57686         195.498         102.384          199.07 
       0.589077         187.491         97.8572         194.684 
       0.601441         184.273         93.5525         189.845 
        0.61382         182.276         89.4938         184.888 
       0.626067           176.8         85.7065         180.383 
       0.638306         169.115           82.14         176.583 
       0.650632         164.131         78.7609         170.787 
       0.662899         164.217         75.5943         167.611 
       0.675076         158.326         72.6267         163.765 
       0.687267          154.29         69.8147         160.154 
       0.699615         150.836         67.1165         156.891 
       0.711937         146.965         64.5657         153.454 
       0.724148         144.716         62.1692         151.238 
       0.736433         140.762         59.8824          147.61 
       0.748747         137.639         57.7073         144.544 
       0.761037         135.415         55.6454         141.432 
       0.773197         132.514         53.7056         139.851 
       0.785376         130.621         51.8561         136.552 
       0.797761         128.313         50.0651         134.772 
       0.810096         124.666         48.3658         132.011 
       0.822371         121.288         46.7536         129.752 
       0.834626         119.354         45.2179         127.515 
       0.846916         118.164         43.7475         125.534 
       0.859215         116.268          42.342         123.331 
       0.871383         114.254         41.0126         121.259 
        0.88363         111.718         39.7326         119.764 
       0.895928         109.617         38.5026         118.029 
       0.908253         106.743         37.3227         115.847 
       0.920535         106.229         36.1965         114.352 
       0.932774         103.451         35.1208         112.345 
        0.94508         102.497         34.0837         110.789 
       0.957324         100.813         33.0937         109.285 
        0.96953         100.653         32.1463         107.459 
       0.981769         97.3619         31.2337         106.429 
       0.994071         96.5419         30.3524         104.876 
         1.0064         94.3124         29.5037         103.353 
        1.01868          93.497         28.6901         102.117 
        1.03092         91.7122          27.911         100.796 
         1.0432         90.1816         27.1581         99.4248 
        1.05553         87.8894         26.4302         98.4934 
        1.06777          87.779         25.7344         97.2783 
           1.08          86.058         25.0644         95.9819 
        1.09227         84.7337         24.4162         94.7149 
         1.1046         83.3061         23.7886         93.5723 
         1.1169         82.3529         23.1843         92.2621 
        1.12915          81.302          22.604         91.3177 
        1.14142         79.8053         22.0425         90.1929 
        1.15365         78.2617         21.5018         89.1657 
        1.16585         77.3417         20.9807         88.0781 
        1.17807          76.162         20.4763         87.2183 
        1.19037         76.0644         19.9853         86.3258 
        1.20276         74.4328          19.507         85.3152 
        1.21504         73.9372         19.0483         84.2838 
        1.22728         72.3131         18.6063          83.453 
        1.23954         71.6753         18.1772         82.4404 
        1.25184         70.3942          17.761         81.7061 
        1.26414         69.3275         17.3576         80.8221 
        1.27632         68.6852         16.9704         80.1717 
         1.2886         67.7393         16.5924         79.0906 
        1.30093         66.8607         16.2246         78.1633 
        1.31316         66.0028         15.8706         77.6305 
        1.32541         65.5079         15.5271         76.8024 
        1.33772         64.4172         15.1919         76.0053 
        1.35005         63.8257         14.8665         75.2794 
        1.36225         62.7763         14.5539         74.5114 
        1.37447         61.3613         14.2497         73.7283 
        1.38676          61.482         13.9528         72.9557 
        1.39907          60.418          13.664         72.4211 
        1.41133         59.2996         13.3845         71.8503 
        1.42358         58.6117         13.1132         70.9468 
        1.43591         58.2113         12.8475         70.3648 
        1.44818          57.379         12.5907         69.5867 
        1.46037         56.7408         12.3425         69.0902 
        1.47263         56.0057         12.0995         68.5272 
        1.48494         55.1742         11.8622         67.8126 
        1.49724         54.4885         11.6315         67.1595 
        1.50952         54.1519         11.4074         66.5161 
        1.52178          53.393         11.1895         66.0125 
        1.53409         52.8962         10.9765         65.4396 
        1.54637         51.7584         10.7694         64.8037 
        1.55858         51.0811         10.5689         64.1721 
        1.57081         50.8278         10.3732         63.7414 
        1.58313         50.1029         10.1813         63.2195 
        1.59544         49.3757         9.99428         62.5836 
        1.60767         48.8201         9.81321         62.0666 
        1.61994         48.0779           9.636         61.5875 
        1.63225          47.662          9.4628           60.96 
        1.64452         47.1532         9.29435         60.5261 
        1.65676         46.4583         9.13053         59.9504 
          1.669         46.1183         8.97055         59.5301 
        1.68133         45.6915         8.81339         58.9629 
        1.69363         44.9179         8.66045         58.5412 
        1.70585         44.6621         8.51213         58.0881 
        1.71809         43.7923         8.36699         57.5624 
        1.73038         43.5521         8.22477         57.1403 
        1.74268         42.8444         8.08578         56.6112 
        1.75493         42.4379         7.95064         56.1682 
        1.76714         41.8946         7.81894         55.7152 
        1.77942         41.6475         7.68956         55.2909 
        1.79173         41.0019         7.56278         54.7913 
        1.80402         40.5845         7.43912         54.4515 
         1.8163         40.1188         7.31829         53.9126 
         1.8286         39.5966         7.19995         53.6018 
         1.8409         39.1405         7.08432         53.0747 
        1.85315         38.7498         6.97163         52.7782 
        1.86537         38.2696         6.86161         52.3555 
        1.87765         37.9743         6.75356         51.8926 
        1.88995          37.392         6.64758         51.4402 
        1.90221         37.1202         6.54424         51.0551 
        1.91445         36.4981         6.44327         50.7292 
        1.92674         36.2047         6.34409          50.288 
        1.93902          35.834         6.24699         49.9095 
        1.95124         35.3501         6.15244         49.5887 
         1.9635         34.9222         6.05961         49.1736 
        1.97583         34.6084         5.96811         48.8637 
        1.98812         34.1061         5.87884         48.4505 
        2.00039         33.7722         5.79158         48.0762 
        2.01264         33.3216         5.70618         47.7702 
        2.02492         33.0498         5.62237         47.4064 
        2.03717         32.6129         5.54039         47.0209 
        2.04942         32.2734         5.46015         46.6713 
        2.06171         31.9358         5.38123         46.3159 
        2.07397            31.6         5.30404         45.9973 
        2.08629         31.2251         5.22804         45.6495 
        2.09857         30.9216         5.15372         45.3423 
        2.11081         30.5178         5.08114         44.9877 
        2.12309         30.2944         5.00979         44.6479 
        2.13538         29.7584         4.93971         44.3826 
        2.14763         29.5763         4.87121         44.0344 
        2.15986         29.2975         4.80416          43.691 
        2.17214         28.9099         4.73811         43.4332 
        2.18443         28.6006         4.67323         43.0536 
        2.19671          28.228         4.60965         42.7652 
        2.20898         27.8988         4.54732         42.4434 
        2.22126         27.8091         4.48608         42.1332 
        2.23354         27.4273           4.426         41.8922 
         2.2458         27.1088         4.36711         41.5698 
        2.25807         26.7288         4.30925         41.2581 
        2.27035         26.4501         4.25238         40.9922 
        2.28263         26.2129         4.19657         40.7148 
         2.2949         25.9567         4.14179         40.4284 
        2.30718         25.7158         4.08797         40.1184 
        2.31946         25.4824         4.03508         39.8458 
        2.33169         25.1719         3.98336         39.5685 
        2.34393         24.8716         3.93246         39.2737 
        2.35622         24.6204         3.88229         39.0542 
        2.36847         24.3512         3.83314         38.7375 
        2.38076         24.1577         3.78469         38.5152 
        2.39305         23.8254         3.73709         38.2577 
        2.40534         23.6465         3.69031         37.9413 
        2.41762         23.3445         3.64433         37.7234 
        2.42989         23.2439         3.59921         37.4372 
        2.44216         22.9065         3.55485         37.2055 
         2.4544         22.7389         3.51135         36.9557 
        2.46667         22.4849         3.46847         36.7005 
        2.47897         22.2253         3.42621         36.4531 
        2.49124         22.0786         3.38477         36.2091 
        2.50349         21.7996         3.34407         35.9785 
        2.51578         21.5671         3.30392         35.7424 
        2.52805         21.3895         3.26451         35.4908 
        2.54029         21.2141         3.22583         35.2515 
        2.55257         21.0451         3.18766         35.0111 
        2.56487         20.7707         3.15004         34.7873 
        2.57716          20.648         3.11308          34.537 
        2.58942         20.4314         3.07679         34.3415 
        2.60167         20.2317         3.04112         34.1023 
        2.61395         20.0477         3.00596         33.8741 
        2.62624         19.9465         2.97131         33.6561 
        2.63849         19.7363         2.93731         33.4419 
        2.65073         19.4876         2.90388         33.2094 
        2.66302         19.2921         2.87086         33.0094 
         2.6753         19.2244         2.83836         32.7983 
        2.68756         19.1039         2.80644         32.6076 
        2.69983         18.8967         2.77498         32.3589 
        2.71213         18.6865         2.74395         32.1564 
        2.72441         18.5719         2.71344         31.9367 
        2.73665         18.4295         2.68347         31.7293 
         2.7489         18.2357         2.65397         31.5342 
        2.76118         18.1425         2.62482         31.3169 
        2.77349         18.0247         2.59604          31.132 
        2.78576         17.8208          2.5678         30.9481 
        2.79802         17.7056            2.54         30.7397 
        2.81031          17.595         2.51255         30.5523 
        2.82259         17.4997         2.48551         30.3646 
        2.83483         17.3326         2.45898         30.1598 
         2.8471         17.2814         2.43277         29.9544 
         2.8594         17.1291         2.40688         29.7691 
         2.8717         17.0342         2.38136         29.5792 
        2.88396         16.8815         2.35632         29.3871 
        2.89619         16.8377         2.33167         29.2112 
        2.90847         16.7392         2.30729         29.0328 
        2.92072         16.6082          2.2833         28.8474 
        2.93299         16.5378         2.25963         28.6837 
        2.94526         16.4867         2.23629         28.5045 
        2.95753         16.4203         2.21327         28.3174 
        2.96982         16.3051         2.19055         28.1469 
        2.98209         16.2098         2.16818         27.9781 
        2.99436         16.1742         2.14611         27.8032 
        3.00666         16.0822         2.12431         27.6258 
        3.01894          16.042         2.10286         27.4553 
        3.03119         15.9448         2.08173         27.2872 
        3.04345         15.9501          2.0609         27.1228 
        3.05573         15.9355          2.0403         26.9585 
          3.068         15.8179         2.02001         26.7875 
        3.08026         15.8088         2.00001         26.6226 
        3.09254          15.737         1.98025         26.4638 
        3.10483         15.7367         1.96075         26.3071 
         3.1171         15.7858         1.94155         26.1528 
        3.12933         15.7176         1.92265         25.9961 
        3.14159         15.6301         1.90396         25.8295 
