# k  (h/Mpc)    Pcb(k)  (Mpc/h)^3    Pcb_linear(k) (Mpc/h)^3    Pcb_NL(k) (Mpc/h)^3   ShotnoiseSubtracted = false
      0.0156606         88.3576         89.5029         89.0921 
      0.0273761         77.1897         77.5314         77.3782 
      0.0384619         58.5914         58.4533         58.4551 
      0.0498308         46.2089         45.9941         46.0289 
      0.0625568         39.0255         39.0977          39.083 
      0.0751274         33.2176         33.2219         33.1727 
      0.0867833         26.7322         26.7495         26.7453 
      0.0984825         21.3128           21.17         21.2051 
       0.111151          17.792         17.6772          17.708 
       0.123864         15.9755         15.9311         15.9416 
       0.135742         14.3312         14.3263         14.3312 
        0.14762         12.2386           12.25         12.2803 
       0.160083         10.2126         10.2112         10.2526 
       0.172465         8.92667         8.91253          8.9603 
       0.184281         8.23208         8.21633         8.26341 
       0.196406         7.56175         7.58779         7.62017 
       0.209011          6.7451         6.75125         6.79071 
       0.221538         5.91325             5.9         5.95907 
       0.233611          5.2992         5.27899         5.34466 
       0.245665          4.9079         4.87231         4.92939 
       0.258103          4.5191         4.53571         4.59147 
       0.270422         4.17841         4.16781         4.22102 
       0.282519         3.79344         3.78253         3.84144 
       0.294636         3.48128         3.44631         3.50875 
       0.306978         3.18487         3.18842         3.25249 
       0.319417         2.99592         2.98099         3.04294 
        0.33169         2.79322         2.78244          2.8419 
       0.343948         2.59727          2.5781         2.63717 
       0.356249          2.3928         2.38646         2.45476 
       0.368458         2.23856         2.22594         2.28604 
        0.38068         2.09944         2.09171         2.15151 
       0.392856         1.97657         1.96917         2.02952 
       0.405069         1.86614         1.84935          1.9062 
       0.417459         1.73013         1.73334         1.79344 
       0.429752         1.63476          1.6292         1.68823 
       0.441978         1.54781         1.53779         1.60046 
       0.454294         1.46077         1.45479          1.5139 
        0.46658         1.38964         1.37691         1.43455 
       0.478753         1.31569         1.30343         1.36064 
       0.490964         1.25052         1.23442         1.29527 
       0.503334         1.18872         1.17072         1.22747 
       0.515665         1.12393         1.11263         1.17248 
       0.527909         1.07693         1.05901         1.11412 
       0.540159         1.02111         1.00828         1.06241 
        0.55248        0.968667        0.960139         1.01182 
       0.564743        0.932965        0.915565        0.971258 
        0.57686        0.889977        0.874599         0.92798 
       0.589077        0.844976        0.835927        0.891252 
       0.601441        0.814334        0.799156        0.853148 
        0.61382        0.777952        0.764485        0.816428 
       0.626067        0.743263        0.732132        0.783522 
       0.638306        0.714828        0.701666        0.751973 
       0.650632        0.687818        0.672801        0.723893 
       0.662899        0.661763        0.645752        0.694992 
       0.675076         0.63034        0.620401        0.669527 
       0.687267        0.606021        0.596381        0.642995 
       0.699615        0.587991        0.573331        0.619455 
       0.711937        0.564377        0.551542        0.598825 
       0.724148        0.546528         0.53107        0.577241 
       0.736433        0.524453        0.511535        0.555792 
       0.748747        0.505787        0.492955        0.538871 
       0.761037        0.486798        0.475342        0.519727 
       0.773197        0.470501        0.458772        0.503748 
       0.785376        0.453126        0.442973        0.486674 
       0.797761          0.4387        0.427673        0.469785 
       0.810096        0.427358        0.413157          0.4567 
       0.822371        0.413299        0.399385         0.44093 
       0.834626        0.400194        0.386267        0.426959 
       0.846916        0.387747        0.373706        0.415536 
       0.859215        0.372563          0.3617        0.403408 
       0.871383        0.362688        0.350343        0.390873 
        0.88363        0.351103        0.339409        0.379614 
       0.895928         0.34209        0.328903        0.368203 
       0.908253        0.331968        0.318824        0.357892 
       0.920535        0.322366        0.309203        0.347215 
       0.932774        0.312883        0.300014        0.336896 
        0.94508        0.303955        0.291155        0.327995 
       0.957324        0.295944        0.282698        0.320008 
        0.96953        0.286229        0.274604        0.311183 
       0.981769        0.278523        0.266809        0.302033 
       0.994071        0.271527        0.259281        0.295377 
         1.0064        0.263705        0.252031        0.287182 
        1.01868        0.257306        0.245081         0.27991 
        1.03092        0.251359        0.238425        0.272206 
         1.0432        0.245225        0.231994        0.265637 
        1.05553        0.237906        0.225776        0.259517 
        1.06777         0.23139        0.219832        0.253235 
           1.08        0.226798        0.214109         0.24681 
        1.09227        0.220357        0.208572        0.240701 
         1.1046        0.215004        0.203211        0.235395 
         1.1169        0.209716        0.198048         0.22978 
        1.12915        0.204136        0.193091        0.224439 
        1.14142        0.200669        0.188295        0.219244 
        1.15365        0.195841        0.183676        0.214441 
        1.16585        0.190849        0.179224        0.209403 
        1.17807        0.187337        0.174916        0.205063 
        1.19037        0.181996        0.170721        0.200201 
        1.20276        0.178784        0.166636        0.195454 
        1.21504        0.174648        0.162717        0.192133 
        1.22728        0.171253        0.158941        0.187255 
        1.23954        0.167555        0.155276        0.183997 
        1.25184        0.164135        0.151721        0.179607 
        1.26414        0.160535        0.148275        0.175806 
        1.27632        0.156289        0.144968         0.17232 
         1.2886        0.152763        0.141738        0.168472 
        1.30093        0.149715        0.138596        0.165679 
        1.31316        0.146191        0.135572        0.162109 
        1.32541        0.143533        0.132638        0.159106 
        1.33772        0.140775        0.129775        0.155954 
        1.35005        0.138595        0.126995        0.152994 
        1.36225        0.135675        0.124324         0.14981 
        1.37447        0.133059        0.121726        0.147253 
        1.38676        0.130839         0.11919        0.144151 
        1.39907        0.128377        0.116722        0.141645 
        1.41133        0.125386        0.114335         0.13898 
        1.42358        0.123295        0.112018        0.136082 
        1.43591        0.121284        0.109748        0.134143 
        1.44818         0.11889        0.107554        0.131714 
        1.46037        0.116575        0.105434           0.129 
        1.47263        0.114502        0.103359        0.126905 
        1.48494        0.112242        0.101332        0.124757 
        1.49724        0.110101       0.0993605        0.122586 
        1.50952        0.108338        0.097446        0.120015 
        1.52178        0.106597       0.0955848         0.11811 
        1.53409        0.105057       0.0937649        0.116127 
        1.54637         0.10303       0.0919962        0.114024 
        1.55858        0.100994       0.0902833        0.112147 
        1.57081       0.0994572       0.0886116        0.110165 
        1.58313       0.0980379       0.0869719        0.108568 
        1.59544       0.0966511       0.0853747         0.10662 
        1.60767        0.095095       0.0838279        0.104905 
        1.61994       0.0930431       0.0823141        0.103349 
        1.63225       0.0912729       0.0808346         0.10171 
        1.64452       0.0902784       0.0793957       0.0999315 
        1.65676       0.0891629       0.0779963       0.0984129 
          1.669       0.0877123       0.0766296       0.0967582 
        1.68133       0.0860308       0.0752871       0.0953653 
        1.69363       0.0845628       0.0739807       0.0938706 
        1.70585       0.0833385       0.0727137       0.0924238 
        1.71809       0.0820571       0.0714738       0.0909672 
        1.73038       0.0808789        0.070259       0.0896281 
        1.74268       0.0792912       0.0690717       0.0881579 
        1.75493       0.0787478       0.0679172       0.0870359 
        1.76714       0.0773856       0.0667922        0.085671 
        1.77942       0.0764657        0.065687       0.0844236 
        1.79173       0.0754418        0.064604       0.0830387 
        1.80402       0.0741823       0.0635476       0.0819137 
         1.8163       0.0731352       0.0625155       0.0805427 
         1.8286       0.0720572       0.0615046       0.0797253 
         1.8409       0.0708891       0.0605168       0.0784045 
        1.85315       0.0702122       0.0595542       0.0772758 
        1.86537       0.0688201       0.0586143       0.0762175 
        1.87765       0.0681205       0.0576913       0.0751311 
        1.88995       0.0673139        0.056786       0.0741674 
        1.90221        0.066561       0.0559033       0.0730726 
        1.91445       0.0653673       0.0550408       0.0721127 
        1.92674       0.0646391       0.0541935       0.0711311 
        1.93902       0.0636478        0.053364       0.0700827 
        1.95124       0.0629294       0.0525564        0.069148 
         1.9635        0.062021       0.0517633       0.0681953 
        1.97583       0.0614018       0.0509817       0.0672511 
        1.98812        0.060508       0.0502192       0.0665183 
        2.00039       0.0598255       0.0494738       0.0655251 
        2.01264       0.0590704       0.0487442       0.0647195 
        2.02492       0.0585174       0.0480283       0.0638735 
        2.03717       0.0575147        0.047328       0.0630523 
        2.04942       0.0570898       0.0466426       0.0622006 
        2.06171       0.0562056       0.0459684        0.061404 
        2.07397        0.055403        0.045309       0.0606626 
        2.08629       0.0548021       0.0446598       0.0598598 
        2.09857       0.0542575       0.0440249       0.0591316 
        2.11081       0.0537007        0.043405       0.0583028 
        2.12309       0.0529037       0.0427955       0.0577108 
        2.13538       0.0524094       0.0421968       0.0569407 
        2.14763       0.0518256       0.0416116       0.0562773 
        2.15986       0.0512779       0.0410389       0.0556162 
        2.17214       0.0505758       0.0404746       0.0549079 
        2.18443        0.050213       0.0399204       0.0542196 
        2.19671       0.0495049       0.0393773       0.0536315 
        2.20898       0.0491027       0.0388449       0.0529339 
        2.22126       0.0483406       0.0383218       0.0523541 
        2.23354       0.0479114       0.0378085       0.0517689 
         2.2458       0.0474214       0.0373055       0.0510267 
        2.25807       0.0468722       0.0368112       0.0505406 
        2.27035       0.0464726       0.0363254       0.0499327 
        2.28263       0.0458536       0.0358487       0.0493858 
         2.2949       0.0455005       0.0353807       0.0487689 
        2.30718       0.0450036        0.034921       0.0482355 
        2.31946       0.0446159       0.0344692       0.0477057 
        2.33169       0.0438905       0.0340273       0.0471438 
        2.34393       0.0438374       0.0335925         0.04667 
        2.35622       0.0432158        0.033164       0.0460917 
        2.36847       0.0429327       0.0327441       0.0455967 
        2.38076       0.0423448       0.0323302       0.0451046 
        2.39305       0.0421575       0.0319236       0.0446064 
        2.40534       0.0416637       0.0315239       0.0441273 
        2.41762       0.0411982       0.0311312       0.0436388 
        2.42989       0.0408331       0.0307457       0.0431469 
        2.44216       0.0405087       0.0303669       0.0427058 
         2.4544       0.0400922       0.0299952       0.0422674 
        2.46667       0.0398269        0.029629       0.0417769 
        2.47897       0.0392735       0.0292679       0.0413418 
        2.49124       0.0389972       0.0289139       0.0409109 
        2.50349        0.038598       0.0285663       0.0404662 
        2.51578       0.0382563       0.0282233       0.0400426 
        2.52805       0.0380815       0.0278866       0.0396401 
        2.54029        0.037613       0.0275562       0.0392421 
        2.55257       0.0373209       0.0272302       0.0388508 
        2.56487       0.0370467       0.0269088       0.0384454 
        2.57716       0.0368472       0.0265931        0.038047 
        2.58942       0.0363929       0.0262831       0.0376453 
        2.60167       0.0360744       0.0259784       0.0372704 
        2.61395       0.0358174        0.025678       0.0369125 
        2.62624        0.035696        0.025382       0.0365469 
        2.63849       0.0352964       0.0250916       0.0361822 
        2.65073       0.0349097        0.024806       0.0358131 
        2.66302        0.034786       0.0245239       0.0354542 
         2.6753       0.0345099       0.0242463       0.0351129 
        2.68756        0.034339       0.0239736       0.0347777 
        2.69983       0.0339897       0.0237049       0.0343956 
        2.71213       0.0337428       0.0234398       0.0340945 
        2.72441       0.0334378       0.0231792       0.0337888 
        2.73665       0.0332809       0.0229232        0.033455 
         2.7489       0.0330345       0.0226711       0.0331328 
        2.76118       0.0328691       0.0224221       0.0328202 
        2.77349       0.0325323       0.0221763        0.032523 
        2.78576       0.0324269       0.0219351       0.0322304 
        2.79802       0.0322035       0.0216976       0.0318742 
        2.81031       0.0319628       0.0214631       0.0316112 
        2.82259       0.0316703       0.0212322        0.031301 
        2.83483       0.0314207       0.0210055       0.0309996 
         2.8471       0.0313688       0.0207817       0.0307572 
         2.8594       0.0311576       0.0205604       0.0304779 
         2.8717       0.0309281       0.0203425       0.0301807 
        2.88396       0.0308673       0.0201285       0.0299216 
        2.89619       0.0306015        0.019918       0.0296604 
        2.90847        0.030485       0.0197097       0.0293906 
        2.92072       0.0302655       0.0195048       0.0291068 
        2.93299        0.030094       0.0193026       0.0288463 
        2.94526       0.0299877       0.0191032       0.0286062 
        2.95753        0.029768       0.0189066       0.0283548 
        2.96982       0.0296321       0.0187124       0.0280877 
        2.98209       0.0294404       0.0185214       0.0278355 
        2.99436       0.0293745       0.0183329       0.0275932 
        3.00666       0.0292195       0.0181467       0.0273503 
        3.01894       0.0291495       0.0179634       0.0271303 
        3.03119       0.0290261       0.0177829       0.0268956 
        3.04345       0.0288747       0.0176049       0.0266661 
        3.05573       0.0288229        0.017429       0.0264457 
          3.068        0.028641       0.0172557       0.0262046 
        3.08026       0.0285344       0.0170849       0.0259908 
        3.09254       0.0284874        0.016916       0.0257754 
        3.10483       0.0283927       0.0167495       0.0255606 
         3.1171       0.0283473       0.0165854       0.0253364 
        3.12933       0.0281289        0.016424       0.0251048 
        3.14159       0.0280374       0.0162643       0.0249195 
