# k  (h/Mpc)    Pcb(k)  (Mpc/h)^3    Pcb_linear(k) (Mpc/h)^3    Pcb_NL(k) (Mpc/h)^3   ShotnoiseSubtracted = false
      0.0156606         13799.2         13848.7         13757.2 
      0.0273761           11881         11975.5         11886.1 
      0.0384619         9008.14         9022.83         8950.64 
      0.0498308          6989.1         7097.32         7027.18 
      0.0625568         5900.82         6031.97         5967.31 
      0.0751274         5217.83         5124.88         5031.76 
      0.0867833         4066.15         4126.13         4100.05 
      0.0984825         3391.05         3265.32         3297.27 
       0.111151         2878.64         2726.49         2762.18 
       0.123864         2583.06         2457.12         2486.72 
       0.135742         2341.29         2209.57         2239.81 
        0.14762         2021.14          1889.3         1967.95 
       0.160083         1693.43         1574.84         1668.36 
       0.172465         1509.66         1374.53         1492.23 
       0.184281         1383.61         1267.16         1387.99 
       0.196406         1280.93         1170.22         1273.41 
       0.209011         1184.35         1041.19         1150.27 
       0.221538         1068.34         909.906         1060.02 
       0.233611         1002.88          814.13         982.962 
       0.245665          921.06         751.411         904.855 
       0.258103          883.13         699.499         851.763 
       0.270422         797.749         642.759         795.259 
       0.282519         740.096          583.34         743.897 
       0.294636         733.304         531.487         699.654 
       0.306978         657.398         491.715         666.142 
       0.319417         635.519         459.725         626.837 
        0.33169         598.723         429.104         590.631 
       0.343948         570.615          397.59         568.507 
       0.356249         535.831         368.035         544.424 
       0.368458         519.829         343.281         515.162 
        0.38068          500.63         322.579         492.753 
       0.392856           471.1         303.681         473.019 
       0.405069         451.692         285.203         457.804 
       0.417459         432.634         267.311         435.544 
       0.429752         420.186          251.25         419.604 
       0.441978         406.487         237.154         407.202 
       0.454294         383.328         224.353          389.09 
        0.46658         377.928         212.343         379.053 
       0.478753          364.62         201.012          366.04 
       0.490964         351.739         190.369         353.627 
       0.503334         332.071         180.545         343.895 
       0.515665         330.168         171.587         336.259 
       0.527909         319.004         163.317          325.89 
       0.540159         310.688         155.493         316.609 
        0.55248         304.618          148.07         307.591 
       0.564743         298.638         141.195         301.404 
        0.57686         287.335         134.878         292.323 
       0.589077          276.66         128.914         285.966 
       0.601441           273.4         123.243         279.238 
        0.61382          269.57         117.896         273.209 
       0.626067         264.031         112.907          266.99 
       0.638306         251.966         108.209         261.818 
       0.650632         246.697         103.757         253.888 
       0.662899         245.445         99.5855         250.197 
       0.675076         236.165         95.6761          244.96 
       0.687267         230.213         91.9717          239.48 
       0.699615         226.311         88.4171         235.011 
       0.711937         221.935         85.0568         230.633 
       0.724148         216.407         81.8997         227.173 
       0.736433         211.696         78.8871         222.256 
       0.748747         207.574         76.0217         217.883 
       0.761037         204.265         73.3055         213.932 
       0.773197         200.789         70.7501         211.308 
       0.785376         198.412         68.3136         206.987 
       0.797761          193.73         65.9542         204.231 
       0.810096         190.504         63.7155         200.793 
       0.822371         183.505         61.5917         197.448 
       0.834626         182.469         59.5686         194.238 
       0.846916         179.488         57.6315         191.406 
       0.859215         178.461           55.78         188.495 
       0.871383         174.003         54.0286         185.404 
        0.88363         171.844         52.3424         183.399 
       0.895928         168.072         50.7221         180.686 
       0.908253         163.455         49.1678         177.499 
       0.920535         162.896         47.6841         175.172 
       0.932774         157.509          46.267         172.528 
        0.94508         156.285         44.9008         170.613 
       0.957324         155.578         43.5966         168.037 
        0.96953         153.804         42.3484         165.436 
       0.981769         149.031         41.1462         163.965 
       0.994071         148.313         39.9852          161.73 
         1.0064         144.694         38.8672         159.277 
        1.01868         142.974         37.7954         157.537 
        1.03092         140.673          36.769         155.724 
         1.0432         138.024         35.7772          153.73 
        1.05553         135.462         34.8183         152.043 
        1.06777         135.232         33.9016         150.439 
           1.08         132.165          33.019         148.422 
        1.09227          130.71         32.1651         146.919 
         1.1046         128.484         31.3383         145.134 
         1.1169         126.887         30.5422         143.178 
        1.12915         124.832         29.7778         141.711 
        1.14142         122.923          29.038          139.89 
        1.15365         121.081         28.3257           138.4 
        1.16585         119.425         27.6393         136.657 
        1.17807         117.597         26.9748         135.646 
        1.19037         117.166         26.3279         134.198 
        1.20276          114.64         25.6979          132.57 
        1.21504         113.471         25.0936         131.099 
        1.22728         111.151         24.5113         129.623 
        1.23954         110.407         23.9461         128.387 
        1.25184         108.047         23.3978          127.02 
        1.26414         106.744         22.8664         125.725 
        1.27632         105.974         22.3563         125.051 
         1.2886         104.007         21.8583         123.192 
        1.30093         101.857         21.3737         121.871 
        1.31316         101.399         20.9074         120.729 
        1.32541         99.9834         20.4549         119.736 
        1.33772         98.7764         20.0134         118.472 
        1.35005         97.6284         19.5846         117.202 
        1.36225         96.3444         19.1728         116.132 
        1.37447         94.3627         18.7721         114.878 
        1.38676         94.0679          18.381          113.63 
        1.39907         91.9547         18.0005         112.735 
        1.41133         90.6497         17.6323         111.833 
        1.42358         89.5763         17.2749         110.621 
        1.43591         88.9753         16.9249         109.464 
        1.44818         87.8782         16.5866         108.528 
        1.46037         86.3834         16.2596         107.521 
        1.47263          85.003         15.9395         106.686 
        1.48494         84.4438         15.6269         105.586 
        1.49724          82.981          15.323         104.465 
        1.50952         81.8617         15.0277         103.545 
        1.52178         80.9777         14.7407         102.672 
        1.53409         80.2448           14.46          101.77 
        1.54637         78.3662         14.1873         100.814 
        1.55858          77.631         13.9231         99.8691 
        1.57081         76.6304         13.6653         99.0381 
        1.58313         75.5768         13.4125         98.1691 
        1.59544          74.772         13.1661         97.2567 
        1.60767         73.7614         12.9276         96.3879 
        1.61994         72.8023         12.6941         95.7588 
        1.63225         71.6917          12.466         94.6206 
        1.64452         70.8324         12.2441         93.9184 
        1.65676         69.7776         12.0283         93.0783 
          1.669         69.2923         11.8175         92.3275 
        1.68133           68.49         11.6105         91.4736 
        1.69363         67.4673          11.409         90.7954 
        1.70585         66.8019         11.2136         89.9452 
        1.71809         65.4968         11.0224         89.3069 
        1.73038         64.7885          10.835         88.4253 
        1.74268         63.8621         10.6519         87.7331 
        1.75493         63.3093         10.4739          86.946 
        1.76714          62.329         10.3004         86.2113 
        1.77942         61.9732           10.13         85.4932 
        1.79173         60.8849         9.96295         84.7348 
        1.80402         60.2191         9.80005         84.1245 
         1.8163         59.4896         9.64088         83.3017 
         1.8286         58.5989         9.48498         82.7627 
         1.8409         57.7105         9.33266         81.9971 
        1.85315         56.9741         9.18419         81.4576 
        1.86537         56.4137         9.03926         80.7196 
        1.87765         55.7085         8.89692         79.9457 
        1.88995         55.0125          8.7573         79.3692 
        1.90221         54.5106         8.62117         78.7125 
        1.91445           53.57         8.48816         78.1282 
        1.92674         53.0696          8.3575         77.4824 
        1.93902         52.4051         8.22958         76.8061 
        1.95124         51.9971         8.10502         76.3122 
         1.9635         51.0077         7.98273         75.5804 
        1.97583         50.5116         7.86219         75.0858 
        1.98812         49.8226         7.74459         74.4158 
        2.00039         49.2854         7.62964          73.828 
        2.01264         48.5481         7.51713         73.2596 
        2.02492         48.0025         7.40673         72.7103 
        2.03717           47.36         7.29873         72.0676 
        2.04942         46.7506         7.19302          71.579 
        2.06171         46.1828         7.08905         70.9418 
        2.07397          45.553         6.98736         70.4628 
        2.08629          45.054         6.88725          69.846 
        2.09857         44.6807         6.78934          69.366 
        2.11081         43.7646         6.69373         68.7623 
        2.12309         43.4317         6.59974         68.2606 
        2.13538          42.907         6.50742          67.746 
        2.14763         42.4904         6.41717         67.2317 
        2.15986         42.0761         6.32885         66.6968 
        2.17214         41.3456         6.24183          66.263 
        2.18443         41.1428         6.15636         65.6984 
        2.19671         40.3744          6.0726         65.1676 
        2.20898         39.9965         5.99049         64.6727 
        2.22126         39.5492         5.90982         64.1728 
        2.23354         39.0154         5.83066         63.7495 
         2.2458         38.6759         5.75309         63.2619 
        2.25807         38.1855         5.67686         62.7455 
        2.27035         37.7087         5.60195         62.2877 
        2.28263          37.224         5.52843         61.8222 
         2.2949         36.7126         5.45626         61.3774 
        2.30718         36.4047         5.38536         60.9303 
        2.31946         35.8913         5.31569         60.4955 
        2.33169         35.5426         5.24755         60.0208 
        2.34393         34.9972          5.1805         59.5637 
        2.35622         34.6886         5.11441         59.1431 
        2.36847         34.2448         5.04965         58.6924 
        2.38076         34.0223         4.98583         58.2912 
        2.39305         33.5861         4.92312          57.868 
        2.40534         33.2156         4.86149          57.376 
        2.41762         32.8211         4.80092         56.9663 
        2.42989         32.3578         4.74148         56.5985 
        2.44216         32.1221         4.68305         56.1698 
         2.4544         31.8182         4.62574         55.7807 
        2.46667         31.2558         4.56925          55.338 
        2.47897          31.034         4.51358         54.9641 
        2.49124         30.6537         4.45898         54.5599 
        2.50349         30.2927         4.40537         54.1974 
        2.51578         29.9474         4.35248         53.8181 
        2.52805         29.7539         4.30055         53.4066 
        2.54029         29.4824          4.2496          53.038 
        2.55257         29.0906         4.19932         52.6717 
        2.56487         28.7999         4.14976         52.2992 
        2.57716         28.5261         4.10107         51.9521 
        2.58942         28.1392         4.05327         51.5771 
        2.60167         27.8172         4.00627          51.177 
        2.61395         27.5797         3.95995         50.8393 
        2.62624         27.3271          3.9143         50.4901 
        2.63849         27.0967         3.86952         50.1352 
        2.65073         26.7795         3.82548         49.7637 
        2.66302         26.4655         3.78197         49.4465 
         2.6753         26.2138         3.73917         49.1008 
        2.68756         25.9216         3.69711         48.7593 
        2.69983         25.7289         3.65567          48.424 
        2.71213         25.3705         3.61478         48.1043 
        2.72441         25.2737         3.57459         47.7494 
        2.73665         25.0004         3.53511         47.4267 
         2.7489         24.8227         3.49625         47.1104 
        2.76118         24.5726         3.45785          46.766 
        2.77349         24.3649         3.41993         46.4749 
        2.78576         24.1842         3.38274           46.15 
        2.79802         23.8742         3.34611         45.8357 
        2.81031         23.7056         3.30995          45.543 
        2.82259         23.5217         3.27433         45.2193 
        2.83483         23.2726         3.23937         44.9098 
         2.8471         23.1683         3.20486          44.614 
         2.8594         22.9153         3.17074         44.3314 
         2.8717         22.6875         3.13713         44.0244 
        2.88396         22.6057         3.10413         43.7162 
        2.89619         22.4552         3.07167         43.4311 
        2.90847         22.2763         3.03955         43.1389 
        2.92072         22.1249         3.00794         42.8705 
        2.93299         22.0344         2.97677         42.5758 
        2.94526         21.8763         2.94601         42.3016 
        2.95753         21.6886         2.91569         42.0375 
        2.96982         21.6748         2.88575         41.7571 
        2.98209         21.4622         2.85629         41.4853 
        2.99436         21.3595         2.82722         41.2166 
        3.00666         21.2332          2.7985         40.9453 
        3.01894         21.1744         2.77024         40.6649 
        3.03119         20.9948         2.74241          40.395 
        3.04345         20.9015         2.71496         40.1433 
        3.05573         20.8283         2.68782         39.8911 
          3.068         20.7982         2.66109         39.6252 
        3.08026         20.7807         2.63475         39.3675 
        3.09254          20.648         2.60872         39.1253 
        3.10483         20.6463         2.58303         38.8809 
         3.1171         20.5576         2.55773         38.6301 
        3.12933         20.5479         2.53283         38.3832 
        3.14159         20.5313         2.50821         38.1342 
