# k  (h/Mpc)    Pcb(k)  (Mpc/h)^3    Pcb_linear(k) (Mpc/h)^3    Pcb_NL(k) (Mpc/h)^3   ShotnoiseSubtracted = false
      0.0156606         24089.1         24235.3         24034.8 
      0.0273761         20619.6         20951.8         20702.7 
      0.0384619         15576.8         15783.8         15559.4 
      0.0498308         12013.2         12414.5         12187.7 
      0.0625568         10151.1         10550.5         10350.2 
      0.0751274         9055.32         8963.63         8683.41 
      0.0867833         7004.08         7216.62         7128.85 
      0.0984825         5940.28         5710.97         5785.34 
       0.111151         5092.54         4768.52         4864.22 
       0.123864         4559.09         4297.38         4374.44 
       0.135742         4164.53         3864.39          3941.3 
        0.14762         3632.32         3304.24         3506.47 
       0.160083          3100.7         2754.26         3005.75 
       0.172465            2765         2403.94         2724.65 
       0.184281            2498         2216.14         2536.06 
       0.196406         2370.33          2046.6         2339.76 
       0.209011         2224.49         1820.95         2123.75 
       0.221538         1999.75         1591.33         1989.23 
       0.233611         1926.35         1423.83         1869.23 
       0.245665         1743.18         1314.14         1728.93 
       0.258103         1736.43         1223.35         1634.28 
       0.270422         1548.23         1124.12         1538.28 
       0.282519         1468.56          1020.2         1461.73 
       0.294636          1435.7         929.512         1387.26 
       0.306978         1318.63         859.954         1331.95 
       0.319417         1297.82         804.007          1256.7 
        0.33169         1217.91         750.454         1192.61 
       0.343948          1172.9         695.339         1157.32 
       0.356249         1115.47         643.651         1116.26 
       0.368458         1066.53         600.358         1070.18 
        0.38068         1054.53         564.153         1031.49 
       0.392856         1003.75         531.103         997.633 
       0.405069         949.205         498.787          964.27 
       0.417459         912.805         467.496         934.187 
       0.429752          913.86         439.407         902.091 
       0.441978         881.607         414.754         880.365 
       0.454294         844.458         392.367          845.88 
        0.46658         820.869         371.362          829.39 
       0.478753         807.015         351.546         805.585 
       0.490964         776.799         332.932          781.75 
       0.503334         744.756         315.751         765.703 
       0.515665         741.072         300.085         748.124 
       0.527909         709.394         285.622         734.059 
       0.540159         693.629         271.939         716.829 
        0.55248         678.901         258.956         698.892 
       0.564743         672.234         246.934          687.15 
        0.57686         652.386         235.885         669.751 
       0.589077         644.024         225.455         655.727 
       0.601441         625.775         215.537         643.677 
        0.61382         607.424         206.186         632.225 
       0.626067          601.68         197.461          621.36 
       0.638306         580.051         189.244         608.683 
       0.650632         574.482         181.458         595.542 
       0.662899         569.697         174.163         587.977 
       0.675076          553.38         167.326         580.785 
       0.687267         536.714         160.847         567.552 
       0.699615         536.796         154.631         558.585 
       0.711937         523.193         148.754         547.936 
       0.724148         507.198         143.232         541.247 
       0.736433         495.726         137.964         532.046 
       0.748747         489.349         132.953         522.984 
       0.761037         480.889         128.202         517.038 
       0.773197         472.064         123.733         508.101 
       0.785376         467.391         119.472         501.034 
       0.797761         453.398         115.346         494.398 
       0.810096         446.119         111.431         487.874 
       0.822371         436.139         107.716         480.192 
       0.834626         430.919         104.178         474.992 
       0.846916         425.767          100.79         467.619 
       0.859215         418.767         97.5523         460.708 
       0.871383         410.037         94.4894          454.82 
        0.88363         403.688         91.5405         450.282 
       0.895928         399.109         88.7068         443.469 
       0.908253         389.519         85.9883         436.079 
       0.920535         379.697         83.3936         431.903 
       0.932774         374.994         80.9153         425.178 
        0.94508         369.275         78.5259         421.176 
       0.957324         363.686          76.245         415.583 
        0.96953         359.056         74.0622         410.547 
       0.981769         350.844         71.9597         405.971 
       0.994071         349.546         69.9293          401.16 
         1.0064         343.162          67.974         395.369 
        1.01868         338.672         66.0995         390.494 
        1.03092         329.015         64.3045         387.119 
         1.0432         325.651         62.5699         382.457 
        1.05553          322.45         60.8929         377.162 
        1.06777         317.212         59.2897         372.766 
           1.08         310.178         57.7462         368.697 
        1.09227         309.841         56.2528         364.336 
         1.1046         302.901         54.8069         361.061 
         1.1169         297.227         53.4146         356.352 
        1.12915          292.35         52.0777         352.514 
        1.14142         286.529         50.7839          348.53 
        1.15365         282.938         49.5382           344.9 
        1.16585         278.662         48.3377         341.109 
        1.17807         275.729         47.1756         337.166 
        1.19037         269.786         46.0443         334.293 
        1.20276         267.273         44.9425         329.998 
        1.21504          261.93         43.8856         326.273 
        1.22728          257.85         42.8672         323.125 
        1.23954         256.047         41.8788          319.46 
        1.25184         250.186         40.9198         316.167 
        1.26414         245.542         39.9905         313.188 
        1.27632         242.474         39.0984         310.233 
         1.2886         239.669         38.2274         306.811 
        1.30093         234.874         37.3799         302.812 
        1.31316          230.05         36.5644         300.199 
        1.32541         228.716         35.7731          296.74 
        1.33772         224.263         35.0009         294.193 
        1.35005         221.406          34.251         290.852 
        1.36225         217.332         33.5308          288.15 
        1.37447         213.657           32.83         284.786 
        1.38676         211.514         32.1461          282.74 
        1.39907         208.312         31.4806         279.245 
        1.41133         204.353         30.8368         276.292 
        1.42358          201.59         30.2117          273.72 
        1.43591         198.648         29.5996         271.335 
        1.44818         194.814         29.0079         268.366 
        1.46037         193.147          28.436         265.519 
        1.47263         189.574         27.8763         262.819 
        1.48494         188.087         27.3296         259.773 
        1.49724         184.241          26.798         258.207 
        1.50952         181.356         26.2816         254.982 
        1.52178         178.538         25.7797         252.766 
        1.53409         175.773         25.2888         250.265 
        1.54637         172.775         24.8118         248.213 
        1.55858          170.83         24.3498         245.651 
        1.57081         167.817          23.899         243.104 
        1.58313         165.825         23.4567         240.666 
        1.59544          162.61         23.0259         238.538 
        1.60767         161.184         22.6088         236.444 
        1.61994          158.26         22.2005         233.964 
        1.63225         155.645         21.8015         231.608 
        1.64452         153.092         21.4134         229.566 
        1.65676         151.226         21.0359         227.648 
          1.669         149.357         20.6673         225.258 
        1.68133         146.286         20.3053         223.198 
        1.69363         143.863         19.9529         221.414 
        1.70585         141.644         19.6112         219.257 
        1.71809         139.668         19.2768          216.96 
        1.73038         137.504         18.9492         215.084 
        1.74268         136.282         18.6289             213 
        1.75493         133.661         18.3176         211.303 
        1.76714         132.532         18.0142         209.412 
        1.77942         129.935         17.7161         207.569 
        1.79173         128.247          17.424         205.488 
        1.80402          126.17         17.1391         203.673 
         1.8163         124.097         16.8607         202.073 
         1.8286         122.165          16.588         200.098 
         1.8409         120.508         16.3217         198.244 
        1.85315         118.334          16.062         196.596 
        1.86537         116.947         15.8085         194.909 
        1.87765         115.453         15.5596         193.234 
        1.88995         113.543         15.3154         191.399 
        1.90221         112.037         15.0774         189.904 
        1.91445         110.243         14.8447         188.137 
        1.92674         108.325         14.6162         186.416 
        1.93902         107.105         14.3925         184.738 
        1.95124         105.481         14.1747         183.204 
         1.9635         103.839         13.9608         181.615 
        1.97583         102.278           13.75         179.963 
        1.98812         100.712         13.5443         178.746 
        2.00039         99.6079         13.3433             177 
        2.01264          98.312         13.1465         175.533 
        2.02492         96.5671         12.9534         173.925 
        2.03717         95.2756         12.7646         172.574 
        2.04942          93.986         12.5797         171.052 
        2.06171         92.4556         12.3979         169.501 
        2.07397         91.1064           12.22         168.252 
        2.08629         89.7417         12.0449         166.799 
        2.09857         88.6581         11.8737         165.465 
        2.11081         87.2742         11.7065         163.948 
        2.12309         86.0931         11.5421         162.658 
        2.13538         84.7001         11.3807          161.28 
        2.14763         83.3988         11.2228         159.941 
        2.15986         82.5663         11.0684          158.51 
        2.17214         81.3223         10.9162         157.362 
        2.18443         80.4341         10.7667         156.159 
        2.19671         79.3826         10.6202          154.79 
        2.20898         78.1113         10.4766         153.403 
        2.22126         77.0852         10.3355         152.279 
        2.23354         76.0196         10.1971         151.112 
         2.2458         74.5059         10.0614         149.783 
        2.25807          73.965         9.92813         148.606 
        2.27035         72.8952         9.79712          147.43 
        2.28263         71.9334         9.66854         146.303 
         2.2949         70.7297         9.54232         145.147 
        2.30718         69.6197         9.41833          143.95 
        2.31946         68.8308         9.29648          142.72 
        2.33169         67.7971         9.17731         141.655 
        2.34393         66.9901         9.06005         140.681 
        2.35622         66.0587         8.94446         139.448 
        2.36847         65.1578         8.83121         138.462 
        2.38076         64.0517         8.71959          137.31 
        2.39305         63.4945         8.60992         136.319 
        2.40534         62.4424         8.50214          135.19 
        2.41762         61.8812         8.39621         134.139 
        2.42989         60.7878         8.29226         133.137 
        2.44216         60.2656         8.19007         132.049 
         2.4544         59.5231         8.08984          131.11 
        2.46667         58.4468         7.99105         130.114 
        2.47897          58.053         7.89368         129.015 
        2.49124         57.2267         7.79821         128.047 
        2.50349         56.2044         7.70445         127.116 
        2.51578         55.7881         7.61195         126.221 
        2.52805         54.8381         7.52113         125.208 
        2.54029         54.3376         7.43202         124.272 
        2.55257         53.6539         7.34409         123.388 
        2.56487         53.1565         7.25742         122.475 
        2.57716         52.5294         7.17226          121.55 
        2.58942         51.7936         7.08866         120.668 
        2.60167          51.114         7.00647         119.808 
        2.61395         50.6841         6.92547         118.889 
        2.62624         49.9803         6.84563         117.961 
        2.63849         49.3617         6.76731         117.159 
        2.65073         48.6792         6.69029         116.264 
        2.66302         48.2457          6.6142         115.461 
         2.6753         47.5626         6.53934         114.632 
        2.68756          47.204         6.46579         113.774 
        2.69983         46.6811         6.39332         112.954 
        2.71213         46.1717         6.32181         112.148 
        2.72441         45.6838         6.25152         111.324 
        2.73665         45.1374         6.18247         110.556 
         2.7489         44.7042          6.1145         109.784 
        2.76118          44.283         6.04735         108.971 
        2.77349         43.8308         5.98104         108.219 
        2.78576         43.3684         5.91599          107.44 
        2.79802         42.9984         5.85194         106.736 
        2.81031         42.5307         5.78869         105.976 
        2.82259         42.0868          5.7264          105.18 
        2.83483         41.6388         5.66526          104.49 
         2.8471         41.1747          5.6049         103.743 
         2.8594         40.8178         5.54523         103.021 
         2.8717         40.5069         5.48645         102.348 
        2.88396         40.0589         5.42874         101.641 
        2.89619         39.8379         5.37197          100.91 
        2.90847         39.4392         5.31579         100.171 
        2.92072          39.082         5.26052         99.5585 
        2.93299         38.8359           5.206         98.8895 
        2.94526         38.5253          5.1522         98.1817 
        2.95753         38.2832         5.09918         97.5202 
        2.96982         37.8397         5.04682         96.8864 
        2.98209         37.6067          4.9953         96.2178 
        2.99436         37.4698         4.94446         95.5465 
        3.00666         37.2363         4.89423         94.9061 
        3.01894         36.9757          4.8448         94.2773 
        3.03119         36.7356         4.79613         93.6783 
        3.04345         36.4958         4.74812         93.0701 
        3.05573         36.4733         4.70067          92.442 
          3.068         36.1559         4.65392         91.8372 
        3.08026         35.9524         4.60785         91.2293 
        3.09254         35.9766         4.56233         90.6357 
        3.10483         35.7643          4.5174         90.0444 
         3.1171         35.6599         4.47315         89.4445 
        3.12933         35.5068         4.42961         88.8534 
        3.14159         35.4207         4.38655         88.2726 
