# k  (h/Mpc)    Pcb(k)  (Mpc/h)^3    Pcb_linear(k) (Mpc/h)^3    Pcb_NL(k) (Mpc/h)^3   ShotnoiseSubtracted = false
      0.0156606         1182.44         1183.06         1177.53 
      0.0273761         1029.72            1024         1021.78 
      0.0384619         782.267          771.84           771.6 
      0.0498308         614.803          607.26         607.484 
      0.0625568         518.829         516.179         515.822 
      0.0751274         445.878         438.592         437.684 
      0.0867833         355.746         353.136         353.056 
      0.0984825         286.176         279.473         280.125 
       0.111151         239.233         233.362         233.964 
       0.123864         214.809         210.311         210.647 
       0.135742         192.758         189.125         189.408 
        0.14762         163.804         161.713         162.541 
       0.160083         136.228         134.799         135.801 
       0.172465          119.48         117.654         118.834 
       0.184281         110.634         108.464         109.686 
       0.196406         101.116         100.167         101.066 
       0.209011          90.633         89.1231          90.176 
       0.221538         79.9927         77.8855         79.3902 
       0.233611         71.7335         69.6875         71.3553 
       0.245665         67.0585         64.3191         65.7893 
       0.258103         60.6589         59.8757         61.3309 
       0.270422         56.7476         55.0189          56.416 
       0.282519         51.4689         49.9328          51.452 
       0.294636         48.1731         45.4944          47.097 
       0.306978         43.0576           42.09         43.7388 
       0.319417         40.8693         39.3518         40.9499 
        0.33169         37.9948         36.7307          38.271 
       0.343948         35.7537         34.0332         35.5728 
       0.356249         32.7163         31.5034         33.2468 
       0.368458         30.9584         29.3844         30.9443 
        0.38068         28.8894         27.6124         29.1637 
       0.392856         27.1319         25.9948          27.561 
       0.405069         25.6209         24.4131         25.9024 
       0.417459         23.7032         22.8816         24.4294 
       0.429752         22.5887         21.5068         23.0374 
       0.441978         21.4526         20.3002         21.9104 
       0.454294         20.0302         19.2044          20.727 
        0.46658         19.5199         18.1763         19.6718 
       0.478753         18.2371         17.2064         18.6979 
       0.490964         17.5175         16.2954         17.8544 
       0.503334         16.7059         15.4545         16.9303 
       0.515665         15.7362         14.6877         16.2353 
       0.527909         15.0787         13.9798         15.4078 
       0.540159         14.3184         13.3101         14.7219 
        0.55248         13.4335         12.6747         14.0388 
       0.564743         13.1792         12.0862         13.5213 
        0.57686         12.6267         11.5455         12.9374 
       0.589077         11.8661          11.035         12.4606 
       0.601441         11.3872         10.5495         11.9488 
        0.61382          10.938         10.0919         11.4419 
       0.626067         10.4655         9.66477          11.009 
       0.638306         10.0845         9.26259         10.5767 
       0.650632         9.79952         8.88155         10.2092 
       0.662899         9.33227         8.52447         9.81294 
       0.675076         8.87264         8.18983         9.46548 
       0.687267         8.61419         7.87273         9.10288 
       0.699615         8.35791         7.56846         8.78944 
       0.711937         7.92955         7.28082         8.51034 
       0.724148         7.80648         7.01057         8.22395 
       0.736433         7.38762          6.7527         7.92732 
       0.748747         7.17225         6.50742         7.70042 
       0.761037         6.96866         6.27491         7.44468 
       0.773197         6.66181         6.05617          7.2311 
       0.785376         6.43647         5.84761         6.99693 
       0.797761         6.23295         5.64565         6.76534 
       0.810096         6.06495         5.45402         6.59605 
       0.822371         5.90844         5.27222         6.37439 
       0.834626         5.70421         5.09904         6.18854 
       0.846916         5.49763         4.93323         6.02559 
       0.859215         5.28298         4.77474         5.86293 
       0.871383         5.13635         4.62483         5.69997 
        0.88363         5.00053         4.48049         5.54029 
       0.895928          4.8871         4.34179          5.3821 
       0.908253         4.73584         4.20874         5.24129 
       0.920535         4.57456         4.08174         5.09399 
       0.932774         4.46207         3.96044         4.94497 
        0.94508         4.32755         3.84349         4.83247 
       0.957324           4.217         3.73185          4.7241 
        0.96953         4.07126         3.62501         4.60191 
       0.981769         3.95913          3.5221         4.47282 
       0.994071         3.88401         3.42272         4.37898 
         1.0064         3.75306         3.32702         4.27035 
        1.01868         3.63909         3.23527         4.16533 
        1.03092         3.58023         3.14742         4.05948 
         1.0432         3.45065         3.06252         3.96934 
        1.05553         3.37681         2.98043         3.88548 
        1.06777         3.26872         2.90197         3.80134 
           1.08         3.21238         2.82642         3.70871 
        1.09227         3.11233         2.75332         3.62281 
         1.1046         3.04066         2.68255         3.54702 
         1.1169         2.95035          2.6144         3.46967 
        1.12915         2.90266         2.54897          3.4001 
        1.14142          2.8178         2.48565         3.32054 
        1.15365         2.75656         2.42467         3.25736 
        1.16585         2.70052         2.36591         3.18982 
        1.17807         2.64877         2.30903         3.12177 
        1.19037         2.55105         2.25366         3.05558 
        1.20276         2.49764         2.19973         2.98888 
        1.21504          2.4477           2.148         2.94145 
        1.22728         2.39104         2.09816         2.87304 
        1.23954         2.34652         2.04978         2.83093 
        1.25184         2.29074         2.00284         2.76564 
        1.26414         2.24436         1.95735         2.70909 
        1.27632         2.17679         1.91369         2.66762 
         1.2886         2.14843         1.87106         2.61131 
        1.30093         2.08325         1.82958         2.56996 
        1.31316         2.02529         1.78966         2.51864 
        1.32541         2.00114         1.75093         2.47751 
        1.33772         1.96727         1.71314         2.43132 
        1.35005         1.92469         1.67644         2.38952 
        1.36225         1.88207         1.64119         2.34342 
        1.37447         1.84253         1.60688         2.30877 
        1.38676         1.80326         1.57341         2.26237 
        1.39907         1.75911         1.54083          2.2296 
        1.41133         1.72574         1.50932         2.19135 
        1.42358         1.70496         1.47873         2.14788 
        1.43591         1.66915         1.44877          2.1246 
        1.44818         1.63206         1.41981         2.08681 
        1.46037         1.59435         1.39181         2.04817 
        1.47263         1.56293         1.36442         2.01872 
        1.48494         1.53756         1.33766         1.98606 
        1.49724         1.50362         1.31164         1.95363 
        1.50952         1.48653         1.28637         1.92075 
        1.52178         1.44837          1.2618         1.89485 
        1.53409         1.42243         1.23778         1.86138 
        1.54637          1.3899         1.21443         1.83161 
        1.55858         1.37152         1.19181         1.80369 
        1.57081         1.34959         1.16975         1.77658 
        1.58313         1.31963          1.1481         1.75408 
        1.59544         1.29866         1.12702         1.72626 
        1.60767         1.27773          1.1066          1.7009 
        1.61994         1.25049         1.08662         1.67747 
        1.63225         1.23351         1.06708         1.65413 
        1.64452         1.21086         1.04809         1.62818 
        1.65676         1.18525         1.02962         1.60608 
          1.669         1.16785         1.01157         1.58115 
        1.68133         1.14432        0.993852         1.56291 
        1.69363         1.13286        0.976607         1.53955 
        1.70585         1.11107        0.959881         1.51908 
        1.71809         1.09519        0.943514         1.49746 
        1.73038          1.0719        0.927477          1.4775 
        1.74268         1.05161        0.911803         1.45679 
        1.75493         1.04276        0.896564         1.43978 
        1.76714         1.02139        0.881713         1.41779 
        1.77942         1.00055        0.867123         1.39985 
        1.79173        0.989001        0.852826         1.38134 
        1.80402        0.972826        0.838881          1.3635 
         1.8163        0.957188        0.825256         1.34465 
         1.8286        0.935906        0.811911         1.33189 
         1.8409         0.93177        0.798873         1.31371 
        1.85315        0.917276        0.786164         1.29515 
        1.86537        0.895862        0.773758         1.28086 
        1.87765        0.885005        0.761574         1.26412 
        1.88995        0.872606        0.749622          1.2492 
        1.90221        0.857449         0.73797         1.23318 
        1.91445        0.844536        0.726584         1.21955 
        1.92674        0.831601        0.715399         1.20411 
        1.93902        0.816079         0.70445         1.18872 
        1.95124        0.805804        0.693788         1.17476 
         1.9635        0.794193        0.683319         1.16046 
        1.97583          0.7808        0.673001         1.14594 
        1.98812        0.768934        0.662935         1.13507 
        2.00039         0.75748        0.653095         1.12061 
        2.01264        0.747307        0.643464         1.10833 
        2.02492        0.738235        0.634014         1.09697 
        2.03717        0.730383        0.624769         1.08414 
        2.04942         0.71626         0.61572         1.07047 
        2.06171        0.706969        0.606821         1.05864 
        2.07397        0.696639        0.598116         1.04808 
        2.08629        0.688539        0.589547         1.03652 
        2.09857        0.677157        0.581165          1.0253 
        2.11081        0.666586        0.572982         1.01332 
        2.12309        0.658241        0.564936         1.00336 
        2.13538        0.651217        0.557033        0.991436 
        2.14763        0.643037        0.549308        0.981508 
        2.15986        0.634401        0.541747        0.972339 
        2.17214        0.622114        0.534299        0.960013 
        2.18443        0.616465        0.526983        0.950965 
        2.19671        0.609045        0.519813        0.941338 
        2.20898        0.600048        0.512785        0.931259 
        2.22126        0.590649        0.505879        0.921889 
        2.23354        0.582739        0.499103        0.912893 
         2.2458        0.577543        0.492463        0.902552 
        2.25807        0.568539        0.485938        0.893895 
        2.27035        0.562916        0.479526         0.88482 
        2.28263        0.553697        0.473232        0.876664 
         2.2949        0.547746        0.467055        0.867558 
        2.30718         0.54166        0.460986        0.859499 
        2.31946         0.53427        0.455021        0.851372 
        2.33169        0.526469        0.449189         0.84282 
        2.34393        0.522207        0.443449        0.834563 
        2.35622        0.514887        0.437792        0.826174 
        2.36847        0.509648        0.432249        0.818578 
        2.38076        0.502192        0.426785        0.810803 
        2.39305        0.497082        0.421418        0.803513 
        2.40534        0.490137        0.416142        0.795915 
        2.41762        0.485042        0.410958        0.787701 
        2.42989        0.478018        0.405869        0.780768 
        2.44216        0.474442        0.400868        0.774208 
         2.4544        0.470346        0.395962        0.766943 
        2.46667        0.464135        0.391127        0.759535 
        2.47897        0.458752        0.386361        0.753111 
        2.49124        0.452415        0.381688        0.745901 
        2.50349        0.448093        0.377099        0.738901 
        2.51578        0.442949        0.372571        0.732351 
        2.52805        0.439349        0.368126        0.726168 
        2.54029        0.433929        0.363765        0.719607 
        2.55257        0.429223        0.359461        0.713917 
        2.56487        0.425329        0.355218        0.707455 
        2.57716        0.420883         0.35105        0.701008 
        2.58942         0.41747        0.346958        0.695468 
        2.60167        0.413192        0.342936        0.688836 
        2.61395        0.407792        0.338971        0.683173 
        2.62624        0.404107        0.335063        0.678003 
        2.63849        0.400163         0.33123        0.671997 
        2.65073        0.396619         0.32746        0.666178 
        2.66302        0.392955        0.323736        0.660483 
         2.6753        0.389395        0.320072         0.65511 
        2.68756        0.386238        0.316472        0.649892 
        2.69983        0.381701        0.312925        0.644404 
        2.71213        0.376879        0.309425        0.639206 
        2.72441        0.375413        0.305984        0.634118 
        2.73665        0.372092        0.302605        0.629359 
         2.7489        0.370045        0.299278        0.624312 
        2.76118         0.36588        0.295991        0.618947 
        2.77349        0.363701        0.292745        0.614389 
        2.78576        0.360824        0.289562        0.609056 
        2.79802        0.357878        0.286427        0.603976 
        2.81031        0.354902        0.283331        0.599973 
        2.82259        0.352956        0.280282        0.594679 
        2.83483        0.349975        0.277289        0.590109 
         2.8471        0.347688        0.274335        0.585746 
         2.8594        0.345996        0.271415        0.581543 
         2.8717        0.342698        0.268538        0.577111 
        2.88396         0.34057        0.265713        0.572518 
        2.89619        0.338976        0.262934        0.568458 
        2.90847         0.33672        0.260185        0.564372 
        2.92072        0.335268        0.257479        0.559752 
        2.93299        0.332652        0.254811        0.555402 
        2.94526        0.331073        0.252178        0.551449 
        2.95753        0.330352        0.249583        0.547494 
        2.96982        0.328098         0.24702         0.54332 
        2.98209        0.327363        0.244498        0.539222 
        2.99436        0.324433        0.242009        0.535434 
        3.00666        0.324341        0.239551        0.531835 
        3.01894        0.323688        0.237132          0.5279 
        3.03119        0.322471        0.234749        0.523882 
        3.04345        0.320988        0.232399        0.520293 
        3.05573        0.321008        0.230077        0.516941 
          3.068        0.318542        0.227789        0.513199 
        3.08026        0.318926        0.225534        0.509121 
        3.09254        0.317951        0.223306        0.505523 
        3.10483        0.317253        0.221107        0.502305 
         3.1171        0.317888        0.218941        0.498971 
        3.12933        0.317258         0.21681        0.495516 
        3.14159         0.31633        0.214702        0.492066 
