# k  (h/Mpc)    Pcb(k)  (Mpc/h)^3    Pcb_linear(k) (Mpc/h)^3    Pcb_NL(k) (Mpc/h)^3   ShotnoiseSubtracted = false
      0.0156606         4885.58         4891.74         4865.96 
      0.0273761         4234.87         4232.01         4216.34 
      0.0384619         3217.81         3189.23         3180.91 
      0.0498308         2515.56         2508.92          2502.4 
      0.0625568         2122.52         2132.49         2125.07 
      0.0751274          1848.9         1811.88         1799.88 
      0.0867833         1458.87         1458.82         1456.64 
      0.0984825         1191.44          1154.5         1161.07 
       0.111151         1000.89         964.004          970.59 
       0.123864         899.225         868.774         874.194 
       0.135742         809.518         781.252         786.792 
        0.14762         689.578         668.014         681.099 
       0.160083         572.529         556.832         571.688 
       0.172465         506.837          486.01         504.116 
       0.184281         469.572         448.046          467.25 
       0.196406         428.401          413.77         428.906 
       0.209011         388.601         368.151         384.994 
       0.221538          347.26          321.73         345.275 
       0.233611         315.496         287.865         314.139 
       0.245665         296.199         265.689         289.136 
       0.258103         268.986         247.334         270.691 
       0.270422         251.442         227.272         250.203 
       0.282519         228.618         206.262         230.483 
       0.294636         221.621         187.928         213.483 
       0.306978         195.557         173.865         200.381 
       0.319417         187.104         162.554         188.093 
        0.33169         174.368         151.726         176.399 
       0.343948         166.281         140.583         166.121 
       0.356249         153.627         130.133         157.365 
       0.368458          147.48          121.38         147.108 
        0.38068         139.198          114.06         139.501 
       0.392856           129.8         107.379         132.955 
       0.405069         123.375         100.845         126.225 
       0.417459         116.792         94.5186         119.469 
       0.429752         112.159         88.8396         113.977 
       0.441978         107.306         83.8553         109.653 
       0.454294         99.8146         79.3291         103.913 
        0.46658         99.7708         75.0823         99.7861 
       0.478753         93.0124         71.0758         95.8067 
       0.490964         90.1447         67.3126         92.0016 
       0.503334         86.2786         63.8389         88.3011 
       0.515665         82.9296         60.6714         85.7234 
       0.527909         79.7528         57.7474         81.4255 
       0.540159         76.8935          54.981         78.7854 
        0.55248         72.8225          52.356         75.7832 
       0.564743         71.3788         49.9254         73.4712 
        0.57686         69.1575         47.6915         70.9376 
       0.589077         65.6004         45.5828         68.9063 
       0.601441         63.8111         43.5776         66.7345 
        0.61382         61.9928         41.6871         64.3731 
       0.626067         59.4178         39.9229         62.6345 
       0.638306         57.6468         38.2616         60.6596 
       0.650632         55.7427         36.6876         58.5862 
       0.662899         54.5164         35.2126         56.9079 
       0.675076         52.2766         33.8302         55.3503 
       0.687267         51.5397         32.5204         53.7984 
       0.699615         49.6975         31.2635         52.6051 
       0.711937         47.6924         30.0753         50.8352 
       0.724148         47.4501          28.959         49.9421 
       0.736433         44.8866         27.8938         48.4713 
       0.748747         44.3066         26.8806         47.2434 
       0.761037          43.076         25.9202         46.1358 
       0.773197         42.0596         25.0166         45.2418 
       0.785376         40.5755         24.1551         44.0701 
       0.797761          40.073         23.3208         43.1796 
       0.810096         39.0561         22.5292         42.1222 
       0.822371         38.1435         21.7783         41.0961 
       0.834626         37.0815         21.0629          40.396 
       0.846916         36.1858          20.378         39.4722 
       0.859215         35.0696         19.7233         38.6077 
       0.871383         34.5835          19.104         37.9083 
        0.88363         33.7083         18.5078         37.2287 
       0.895928         32.9425         17.9349         36.3591 
       0.908253         32.2705         17.3853         35.7785 
       0.920535         31.6885         16.8607         35.0416 
       0.932774          31.144         16.3596         34.3777 
        0.94508         30.4762         15.8765         33.6756 
       0.957324         29.8266         15.4154         33.1196 
        0.96953         29.2009          14.974          32.471 
       0.981769         28.6463          14.549         31.9964 
       0.994071         28.0095         14.1384         31.4118 
         1.0064         27.3877         13.7431         30.8841 
        1.01868         26.8314         13.3641         30.4031 
        1.03092         26.6217         13.0012          29.859 
         1.0432         25.9028         12.6505         29.2938 
        1.05553         25.4206         12.3115         29.0215 
        1.06777         24.7694         11.9873         28.4153 
           1.08         24.2584         11.6752         27.9778 
        1.09227         23.9367         11.3733         27.6318 
         1.1046         23.5881          11.081         27.1346 
         1.1169         23.1783         10.7995         26.7382 
        1.12915         22.9193         10.5292         26.3644 
        1.14142         22.2248         10.2676         25.9577 
        1.15365         22.0329         10.0157          25.602 
        1.16585         21.7472         9.77301         25.2634 
        1.17807         21.2314         9.53806         24.8118 
        1.19037         21.0448         9.30933         24.6012 
        1.20276         20.7261         9.08657         24.2132 
        1.21504         20.3168         8.87289         23.9433 
        1.22728         19.9151         8.66698         23.5877 
        1.23954         19.6647         8.46714         23.2467 
        1.25184         19.2941         8.27325         22.9765 
        1.26414         19.0594         8.08536         22.6482 
        1.27632         18.7813           7.905         22.3591 
         1.2886         18.5766          7.7289         22.1053 
        1.30093         18.1305         7.55756         21.8745 
        1.31316          17.936         7.39267         21.5646 
        1.32541         17.7159         7.23268         21.3519 
        1.33772         17.3927         7.07656         21.0839 
        1.35005          17.171         6.92495         20.8589 
        1.36225         16.9343         6.77934         20.6009 
        1.37447          16.597         6.63765         20.3431 
        1.38676         16.4095         6.49937         20.1417 
        1.39907         16.1581         6.36481         19.9111 
        1.41133         15.9186         6.23465          19.679 
        1.42358         15.7212         6.10826         19.4493 
        1.43591         15.4863         5.98451         19.2809 
        1.44818         15.2681         5.86489         19.0762 
        1.46037         15.1812         5.74925         18.8292 
        1.47263         14.8959         5.63609         18.6824 
        1.48494         14.7814         5.52555         18.4394 
        1.49724         14.5599         5.41807         18.2867 
        1.50952         14.3575         5.31368          18.115 
        1.52178         14.1697         5.21219         17.8978 
        1.53409         13.9098         5.11295         17.7248 
        1.54637          13.882          5.0165         17.5138 
        1.55858         13.6498          4.9231         17.3678 
        1.57081         13.4269         4.83194          17.214 
        1.58313         13.3288         4.74253         17.0427 
        1.59544         13.0984         4.65544         16.8946 
        1.60767          12.972         4.57109         16.7118 
        1.61994         12.7424         4.48854         16.5744 
        1.63225         12.6787         4.40787         16.4413 
        1.64452          12.508          4.3294         16.2977 
        1.65676         12.3433         4.25309         16.1239 
          1.669         12.2422         4.17857         15.9759 
        1.68133         12.0055         4.10536         15.8288 
        1.69363         11.8709         4.03413         15.6591 
        1.70585         11.7348         3.96504         15.5712 
        1.71809         11.6151         3.89743         15.4251 
        1.73038         11.4893         3.83118         15.3074 
        1.74268         11.3765         3.76644         15.1542 
        1.75493         11.1774         3.70349         15.0206 
        1.76714         11.1887         3.64214          14.905 
        1.77942          11.042         3.58187         14.7577 
        1.79173         10.8219         3.52282         14.6566 
        1.80402         10.7634         3.46522         14.5425 
         1.8163         10.6367         3.40893         14.4212 
         1.8286         10.4797         3.35381         14.3091 
         1.8409         10.3811         3.29995         14.1942 
        1.85315         10.2752         3.24745         14.0701 
        1.86537         10.1824         3.19621         13.9679 
        1.87765         10.0923         3.14588         13.8569 
        1.88995         9.90957         3.09651         13.7531 
        1.90221         9.87298         3.04837         13.6251 
        1.91445         9.74567         3.00134         13.5427 
        1.92674         9.63988         2.95514         13.4269 
        1.93902         9.55535         2.90991         13.3459 
        1.95124         9.43266         2.86587         13.2415 
         1.9635         9.34101         2.82263         13.1329 
        1.97583         9.26291            2.78         13.0169 
        1.98812         9.18831         2.73842         12.9208 
        2.00039         9.10232         2.69778          12.843 
        2.01264         9.01011         2.65799         12.7551 
        2.02492         8.93499         2.61896         12.6459 
        2.03717         8.79754         2.58077          12.559 
        2.04942         8.70314         2.54339         12.4694 
        2.06171         8.67836         2.50663         12.3837 
        2.07397         8.56836         2.47067         12.3017 
        2.08629         8.49207         2.43527         12.2222 
        2.09857         8.41413         2.40065         12.1272 
        2.11081         8.34306         2.36685          12.059 
        2.12309          8.2334         2.33361         11.9512 
        2.13538         8.16322         2.30097         11.8768 
        2.14763         8.08034         2.26906         11.7994 
        2.15986           8.045         2.23783         11.7275 
        2.17214         7.96728         2.20706         11.6279 
        2.18443         7.86522         2.17684         11.5631 
        2.19671         7.83839         2.14722         11.4853 
        2.20898         7.72292         2.11819         11.4127 
        2.22126         7.64484         2.08966         11.3327 
        2.23354         7.61189         2.06167         11.2497 
         2.2458         7.52226         2.03425         11.1897 
        2.25807         7.46169         2.00729          11.105 
        2.27035         7.40487          1.9808         11.0381 
        2.28263          7.3434         1.95481         10.9628 
         2.2949         7.25982         1.92929         10.8989 
        2.30718         7.20558         1.90422         10.8425 
        2.31946         7.15413         1.87958         10.7689 
        2.33169         7.09076         1.85549         10.7025 
        2.34393         7.04242         1.83178         10.6292 
        2.35622         6.99244         1.80841          10.567 
        2.36847         6.92827         1.78551         10.4988 
        2.38076         6.86969         1.76295         10.4359 
        2.39305         6.78529         1.74077         10.3613 
        2.40534         6.74984         1.71898         10.2946 
        2.41762         6.70067         1.69757         10.2487 
        2.42989         6.66196         1.67655          10.187 
        2.44216          6.6058         1.65589         10.1173 
         2.4544         6.54302         1.63562         10.0587 
        2.46667         6.53273         1.61565         9.99939 
        2.47897         6.47499         1.59596         9.93004 
        2.49124          6.3999         1.57666         9.87306 
        2.50349         6.36862          1.5577         9.82459 
        2.51578         6.31209           1.539         9.76968 
        2.52805         6.27883         1.52064         9.71275 
        2.54029         6.21946         1.50262         9.65728 
        2.55257         6.20824         1.48484         9.59991 
        2.56487         6.13889         1.46732         9.53489 
        2.57716         6.10052          1.4501         9.48816 
        2.58942         6.07769          1.4332         9.43531 
        2.60167         6.03199         1.41658         9.37852 
        2.61395         5.97528         1.40021          9.3279 
        2.62624         5.95871         1.38407         9.27398 
        2.63849         5.93633         1.36823         9.22381 
        2.65073         5.88291         1.35266          9.1659 
        2.66302         5.84892         1.33727         9.11223 
         2.6753         5.80927         1.32214         9.06252 
        2.68756         5.78167         1.30727         9.02078 
        2.69983         5.74473         1.29262         8.96145 
        2.71213          5.7094         1.27816         8.91177 
        2.72441         5.67433         1.26395         8.86535 
        2.73665          5.6609         1.24999         8.81208 
         2.7489         5.63905         1.23624         8.76627 
        2.76118         5.58738         1.22267         8.72703 
        2.77349         5.56599         1.20926          8.6737 
        2.78576         5.54882         1.19611         8.62769 
        2.79802         5.51011         1.18316         8.58117 
        2.81031          5.4927         1.17037         8.53864 
        2.82259         5.45982         1.15778         8.49289 
        2.83483         5.44641         1.14542          8.4452 
         2.8471         5.42795         1.13321          8.4046 
         2.8594         5.41991         1.12115         8.36121 
         2.8717         5.37637         1.10926         8.30992 
        2.88396          5.3596          1.0976         8.26896 
        2.89619          5.3268         1.08612         8.23176 
        2.90847          5.3255         1.07476          8.1822 
        2.92072          5.3257         1.06358         8.13862 
        2.93299          5.3166         1.05256         8.10282 
        2.94526         5.29585         1.04168         8.05719 
        2.95753         5.27871         1.03096         8.01347 
        2.96982         5.25785         1.02038         7.97499 
        2.98209         5.25152         1.00996         7.92869 
        2.99436          5.2454        0.999681         7.88966 
        3.00666         5.25513        0.989527         7.85387 
        3.01894         5.22774        0.979534         7.80884 
        3.03119         5.23228        0.969692         7.77027 
        3.04345          5.2268        0.959986         7.73233 
        3.05573         5.21808        0.950392         7.69032 
          3.068         5.21153         0.94094         7.65514 
        3.08026         5.23615        0.931626          7.6187 
        3.09254         5.22899        0.922422         7.57799 
        3.10483         5.22208        0.913339         7.54277 
         3.1171         5.23219        0.904392         7.50781 
        3.12933         5.23698        0.895588         7.46606 
        3.14159         5.22548        0.886883         7.42996 
