# k  (h/Mpc)    Pcb(k)  (Mpc/h)^3    Pcb_linear(k) (Mpc/h)^3    Pcb_NL(k) (Mpc/h)^3   ShotnoiseSubtracted = false
      0.0156606         2182.15         2183.44         2172.88 
      0.0273761         1897.28         1889.52         1884.67 
      0.0384619         1441.67         1424.11         1422.81 
      0.0498308         1130.97          1120.4         1119.98 
      0.0625568         954.265         952.335         951.039 
      0.0751274         824.057         809.178         806.594 
      0.0867833         654.837          651.51         651.218 
      0.0984825         529.484         515.604         517.353 
       0.111151           443.2         430.532         432.209 
       0.123864         398.076         388.004         389.197 
       0.135742         357.499         348.917         350.068 
        0.14762         303.702         298.344         301.158 
       0.160083         252.275         248.689          251.93 
       0.172465         221.972          217.06         220.928 
       0.184281         205.744         200.104         204.197 
       0.196406         187.729         184.796         187.912 
       0.209011         168.876         164.422         167.988 
       0.221538         149.687          143.69         148.695 
       0.233611         134.659         128.566         134.119 
       0.245665         126.332         118.662         123.591 
       0.258103         113.871         110.464         115.368 
       0.270422         106.859         101.504         106.247 
       0.282519         96.9314         92.1204         97.2117 
       0.294636         91.8468          83.932         89.2997 
       0.306978         81.4686         77.6513         83.1898 
       0.319417         77.6225         72.5996         77.9624 
        0.33169         72.1352          67.764         72.9438 
       0.343948         68.2978         62.7873         68.0227 
       0.356249         62.5753         58.1201         63.9139 
       0.368458         59.5579         54.2109         59.5023 
        0.38068         55.7225         50.9416         56.1946 
       0.392856         52.1646         47.9574         53.2589 
       0.405069         49.3119         45.0393         50.1497 
       0.417459         45.9638         42.2139         47.4127 
       0.429752         43.9514         39.6775         44.8617 
       0.441978         41.8056         37.4515         42.8523 
       0.454294         38.9257           35.43         40.5469 
        0.46658         38.3981         33.5332         38.6051 
       0.478753         35.7371         31.7439         36.8239 
       0.490964         34.4571         30.0631          35.269 
       0.503334         32.9752         28.5117         33.5306 
       0.515665          31.214         27.0971         32.3205 
       0.527909         29.8668         25.7911         30.6301 
       0.540159         28.5326         24.5556         29.3822 
        0.55248          26.668         23.3832         28.0964 
       0.564743         26.2895         22.2977         27.1374 
        0.57686         25.3455            21.3         26.0498 
       0.589077         23.8313         20.3582         25.1664 
       0.601441         22.9377         19.4627         24.2055 
        0.61382         22.1003         18.6183         23.2164 
       0.626067         21.2039         17.8304         22.4414 
       0.638306         20.4637         17.0884         21.5928 
       0.650632         19.9111         16.3854         20.8938 
       0.662899         18.9813         15.7266         20.1316 
       0.675076         18.0927         15.1093         19.4573 
       0.687267         17.7557         14.5243         18.7807 
       0.699615         17.1687         13.9629         18.2089 
       0.711937         16.2725         13.4323          17.626 
       0.724148         16.1544         12.9337         17.1203 
       0.736433          15.224         12.4579         16.5471 
       0.748747         14.8862         12.0054         16.0858 
       0.761037         14.5244         11.5765         15.6248 
       0.773197         13.9442         11.1729         15.2019 
       0.785376         13.4398         10.7882         14.7634 
       0.797761         13.0944         10.4156           14.33 
       0.810096         12.7617          10.062         13.9864 
       0.822371         12.4167         9.72663         13.5522 
       0.834626           12.01         9.40713         13.2243 
       0.846916         11.6127         9.10123         12.8743 
       0.859215         11.1818         8.80884          12.557 
       0.871383         10.9403         8.53226         12.2642 
        0.88363         10.6553         8.26597         11.9458 
       0.895928         10.4403          8.0101         11.6308 
       0.908253         10.1438         7.76463         11.3665 
       0.920535         9.81535         7.53032         11.0805 
       0.932774         9.64395         7.30654         10.7788 
        0.94508         9.31458         7.09078         10.5714 
       0.957324         9.11876         6.88482          10.355 
        0.96953         8.79587         6.68771         10.1086 
       0.981769         8.68383         6.49786         9.86977 
       0.994071         8.47384         6.31452         9.66181 
         1.0064         8.18215         6.13796         9.45918 
        1.01868         8.00791          5.9687         9.25721 
        1.03092         7.85684         5.80661         9.04931 
         1.0432         7.56637         5.64998          8.8629 
        1.05553         7.44157         5.49855         8.70519 
        1.06777         7.21764         5.35378         8.52214 
           1.08         7.09358          5.2144         8.35067 
        1.09227         6.92924         5.07955         8.18218 
         1.1046         6.77609         4.94899          8.0125 
         1.1169         6.55715         4.82326          7.8627 
        1.12915         6.53525         4.70255         7.74265 
        1.14142         6.28729         4.58572          7.5719 
        1.15365         6.18586         4.47323           7.435 
        1.16585         6.09971         4.36483         7.31702 
        1.17807         5.93562          4.2599         7.16256 
        1.19037         5.79496         4.15774         7.03846 
        1.20276         5.66221         4.05825         6.90525 
        1.21504         5.55861         3.96281         6.80132 
        1.22728         5.42128         3.87085         6.66804 
        1.23954         5.33243          3.7816         6.57716 
        1.25184         5.21443           3.695         6.45363 
        1.26414          5.1461         3.61109         6.33425 
        1.27632         4.98765         3.53054         6.24502 
         1.2886         4.92732         3.45189         6.13972 
        1.30093         4.81893         3.37536          6.0567 
        1.31316         4.69302         3.30172         5.94847 
        1.32541         4.62788         3.23026         5.86784 
        1.33772         4.54242         3.16054         5.76314 
        1.35005         4.46746         3.09283         5.68114 
        1.36225         4.37814         3.02779         5.58387 
        1.37447          4.2935         2.96451         5.51362 
        1.38676         4.20488         2.90275         5.42661 
        1.39907         4.12104         2.84265         5.35284 
        1.41133         4.05833         2.78452         5.27149 
        1.42358         3.98683         2.72807         5.18993 
        1.43591         3.93039         2.67281         5.13024 
        1.44818         3.82892         2.61938         5.05388 
        1.46037         3.75646         2.56773         4.97957 
        1.47263         3.70143         2.51719         4.91498 
        1.48494         3.64993         2.46783         4.84575 
        1.49724         3.57775         2.41982         4.77799 
        1.50952         3.55869          2.3732         4.71609 
        1.52178          3.4665         2.32787         4.65696 
        1.53409         3.39562         2.28355         4.58455 
        1.54637         3.35011         2.24047         4.52816 
        1.55858         3.29767         2.19876         4.46047 
        1.57081         3.23613         2.15805         4.41851 
        1.58313         3.18044         2.11811         4.35719 
        1.59544         3.13148         2.07921         4.30777 
        1.60767         3.09215         2.04154         4.24912 
        1.61994         3.02923         2.00468         4.20226 
        1.63225         2.97992         1.96864         4.14907 
        1.64452         2.93208          1.9336         4.09523 
        1.65676         2.88034         1.89952         4.04869 
          1.669         2.84913         1.86624         4.00058 
        1.68133         2.77593         1.83354         3.95618 
        1.69363         2.76973         1.80172         3.91082 
        1.70585         2.72287         1.77087         3.86188 
        1.71809         2.68912         1.74067         3.82053 
        1.73038         2.64091         1.71108          3.7738 
        1.74268         2.59298         1.68217         3.73332 
        1.75493         2.56303         1.65405          3.6921 
        1.76714         2.53314         1.62666         3.64565 
        1.77942         2.49143         1.59974         3.60959 
        1.79173         2.45782         1.57336         3.56585 
        1.80402         2.42066         1.54764         3.52948 
         1.8163         2.39952          1.5225         3.49385 
         1.8286         2.35269         1.49788          3.4613 
         1.8409         2.31772         1.47383         3.42392 
        1.85315         2.29198         1.45038         3.37894 
        1.86537         2.26274         1.42749         3.35171 
        1.87765         2.22995         1.40501         3.31602 
        1.88995         2.19463         1.38296         3.28292 
        1.90221         2.16632         1.36147         3.24778 
        1.91445         2.14274         1.34046         3.22179 
        1.92674         2.12096         1.31983         3.18218 
        1.93902         2.08094         1.29963         3.14707 
        1.95124         2.05204         1.27996         3.12212 
         1.9635         2.03634         1.26064         3.08952 
        1.97583         1.99748         1.24161          3.0603 
        1.98812         1.97468         1.22304         3.03182 
        2.00039         1.95006         1.20488         3.00037 
        2.01264          1.9195         1.18711         2.97882 
        2.02492         1.90202         1.16968          2.9498 
        2.03717         1.88188         1.15262         2.91934 
        2.04942         1.85391         1.13593         2.89098 
        2.06171          1.8279         1.11951         2.86328 
        2.07397         1.80855         1.10345         2.83916 
        2.08629         1.79086         1.08764         2.81685 
        2.09857          1.7674         1.07218         2.78936 
        2.11081         1.74461         1.05708          2.7634 
        2.12309         1.72889         1.04224         2.74197 
        2.13538         1.70184         1.02766         2.71656 
        2.14763          1.6933         1.01341         2.69209 
        2.15986         1.67085         0.99946         2.67174 
        2.17214         1.64079        0.985718         2.64288 
        2.18443          1.6317         0.97222         2.62319 
        2.19671         1.61249        0.958993         2.60165 
        2.20898         1.59254        0.946027         2.58056 
        2.22126         1.57626        0.933287         2.55928 
        2.23354          1.5578        0.920786         2.53726 
         2.2458         1.54712        0.908536         2.51372 
        2.25807         1.52276        0.896498          2.4941 
        2.27035         1.50722        0.884668         2.47583 
        2.28263         1.48581        0.873057         2.45593 
         2.2949         1.47821         0.86166         2.43625 
        2.30718         1.46122        0.850464         2.41772 
        2.31946         1.44045        0.839461         2.39799 
        2.33169         1.42966          0.8287         2.37931 
        2.34393         1.42193        0.818111         2.36145 
        2.35622         1.40034        0.807674           2.343 
        2.36847         1.38878        0.797448         2.32364 
        2.38076         1.36895        0.787368         2.30555 
        2.39305         1.35778        0.777466          2.2862 
        2.40534         1.34616        0.767733         2.27164 
        2.41762         1.32931        0.758168         2.25437 
        2.42989         1.31827        0.748781         2.23867 
        2.44216         1.30839        0.739553         2.22112 
         2.4544         1.29731        0.730503         2.20636 
        2.46667          1.2803        0.721582         2.18976 
        2.47897         1.27066         0.71279         2.17186 
        2.49124         1.25561        0.704168         2.15745 
        2.50349         1.24579        0.695702         2.14067 
        2.51578         1.23456         0.68735         2.12353 
        2.52805          1.2195        0.679149            2.11 
        2.54029         1.21337        0.671103         2.09479 
        2.55257         1.19853        0.663162         2.07987 
        2.56487         1.18812        0.655336         2.06645 
        2.57716         1.18277        0.647646         2.05091 
        2.58942         1.17363        0.640097         2.03725 
        2.60167         1.16304        0.632676          2.0227 
        2.61395         1.14908        0.625361          2.0103 
        2.62624         1.14226        0.618152         1.99597 
        2.63849         1.13316         0.61108          1.9819 
        2.65073         1.12362        0.604125         1.96849 
        2.66302         1.11451        0.597254         1.95532 
         2.6753         1.11214        0.590494         1.94279 
        2.68756         1.09926        0.583853          1.9307 
        2.69983         1.09111        0.577309          1.9174 
        2.71213         1.08103        0.570852         1.90524 
        2.72441         1.07414        0.564505         1.89259 
        2.73665         1.06739         0.55827         1.88191 
         2.7489         1.05983        0.552132         1.87078 
        2.76118         1.05131        0.546068         1.85668 
        2.77349         1.04772        0.540081         1.84523 
        2.78576         1.04218        0.534207         1.83378 
        2.79802         1.03541        0.528423         1.82132 
        2.81031         1.02662        0.522712         1.81059 
        2.82259          1.0196        0.517087         1.79851 
        2.83483         1.01648        0.511566         1.78801 
         2.8471         1.01075        0.506115         1.77665 
         2.8594         1.00502        0.500728         1.76601 
         2.8717         1.00123         0.49542         1.75624 
        2.88396        0.993513        0.490209         1.74533 
        2.89619        0.989362        0.485082         1.73431 
        2.90847        0.984096         0.48001         1.72393 
        2.92072        0.982081        0.475018         1.71406 
        2.93299        0.977498        0.470095         1.70324 
        2.94526         0.97584        0.465238          1.6935 
        2.95753        0.971085         0.46045         1.68391 
        2.96982        0.967514        0.455722          1.6736 
        2.98209        0.965149         0.45107         1.66407 
        2.99436        0.962786        0.446478         1.65445 
        3.00666        0.961977        0.441943         1.64472 
        3.01894        0.958547         0.43748          1.6357 
        3.03119        0.956348        0.433085         1.62613 
        3.04345        0.953336        0.428749           1.617 
        3.05573        0.952261        0.424465         1.60865 
          3.068        0.950653        0.420243         1.59955 
        3.08026        0.949823        0.416084         1.59016 
        3.09254        0.951088        0.411973         1.58116 
        3.10483        0.951426        0.407916         1.57283 
         3.1171        0.952068         0.40392         1.56432 
        3.12933        0.951595        0.399988         1.55532 
        3.14159        0.950947          0.3961         1.54687 
