# k  (h/Mpc)    P(k)  (Mpc/h)^3    P_linear(k)  (Mpc/h)^3     P_NL(k)  ShotnoiseSubtracted = false
      0.0156606           11677         11630.2         11557.1 
      0.0273761         10051.6         10041.6         9975.68 
      0.0384619         7619.43         7559.89         7509.07 
      0.0498308         5917.63         5943.79         5895.36 
      0.0625568         4993.65         5049.98         5004.59 
      0.0751274         4403.31         4289.69         4223.56 
      0.0867833         3438.41         3453.27         3435.68 
      0.0984825         2855.62         2732.58         2757.28 
       0.111151         2418.47          2281.5         2308.34 
       0.123864         2170.92         2055.99         2078.42 
       0.135742         1964.65         1848.78         1871.78 
        0.14762          1691.1         1580.75         1639.54 
       0.160083         1412.61         1317.61          1386.7 
       0.172465          1258.4            1150         1236.48 
       0.184281         1156.87         1060.15         1149.64 
       0.196406         1066.19         979.034          1054.1 
       0.209011         982.123         871.079         951.143 
       0.221538         885.321         761.233          872.18 
       0.233611         825.332         681.101         805.773 
       0.245665         762.092         628.626         741.377 
       0.258103         722.045         585.194         697.176 
       0.270422         656.751         537.722         649.585 
       0.282519         605.911          488.01         605.541 
       0.294636         600.117         444.629         567.996 
       0.306978         535.357         411.356         539.465 
       0.319417         515.946         384.593         507.371 
        0.33169         485.469         358.975         477.532 
       0.343948         462.644          332.61         458.009 
       0.356249         433.378         307.885          437.72 
       0.368458         420.308         287.175         413.169 
        0.38068         402.701         269.858         394.488 
       0.392856         377.826         254.048         378.204 
       0.405069         362.736         238.589         365.144 
       0.417459         346.811         223.622         346.404 
       0.429752         335.389         210.186         333.429 
       0.441978         324.404         198.393         323.124 
       0.454294         304.448         187.684         308.247 
        0.46658         302.184         177.636         299.619 
       0.478753         289.387         168.157          289.03 
       0.490964         279.653         159.253         278.835 
       0.503334           263.9         151.035         270.736 
       0.515665         261.148         143.541         264.462 
       0.527909          252.99         136.623         255.366 
       0.540159         245.849         130.077         248.028 
        0.55248         240.867         123.867         240.553 
       0.564743          234.84         118.117         235.301 
        0.57686         226.424         112.832         227.931 
       0.589077         217.428         107.843         222.974 
       0.601441         214.183         103.099          217.54 
        0.61382         211.832         98.6258          212.21 
       0.626067         206.313         94.4519         207.155 
       0.638306          196.92         90.5215         202.948 
       0.650632         191.785         86.7975         196.474 
       0.662899         191.532         83.3078           193.1 
       0.675076         184.539         80.0374         188.779 
       0.687267         179.798         76.9384         184.638 
       0.699615          176.26         73.9648         180.952 
       0.711937         172.099         71.1538          177.26 
       0.724148         168.867         68.5126         174.659 
       0.736433         164.785         65.9925         170.625 
       0.748747         161.168         63.5954         167.142 
       0.761037         158.728         61.3232         163.732 
       0.773197         155.473         59.1855         161.861 
       0.785376         153.621         57.1472         158.199 
       0.797761         150.393         55.1735         156.179 
       0.810096         146.892         53.3007         153.158 
       0.822371         142.203          51.524          150.58 
       0.834626         140.504         49.8316         148.008 
       0.846916         138.911         48.2112         145.778 
       0.859215         137.168         46.6623         143.362 
       0.871383         134.361         45.1972         140.956 
        0.88363         131.887         43.7866         139.299 
       0.895928         129.284         42.4311         137.311 
       0.908253         125.822         41.1308         134.779 
       0.920535         125.241         39.8897         133.067 
       0.932774         121.564         38.7042         130.819 
        0.94508         120.613         37.5613         129.159 
       0.957324         119.231         36.4703         127.324 
        0.96953         118.572         35.4262         125.251 
       0.981769         114.787         34.4205         124.103 
       0.994071         114.032         33.4493         122.326 
         1.0064         111.281          32.514         120.526 
        1.01868         110.241         31.6174         119.148 
        1.03092         108.277         30.7588         117.672 
         1.0432         106.419         29.9291         116.112 
        1.05553         103.944         29.1269         114.966 
        1.06777         103.767         28.3601         113.632 
           1.08         101.715         27.6217         112.116 
        1.09227         100.303         26.9074         110.784 
         1.1046         98.5446         26.2158         109.419 
         1.1169         97.3955         25.5498         107.923 
        1.12915         95.9927         24.9103         106.798 
        1.14142         94.4068         24.2915         105.466 
        1.15365          92.598         23.6956         104.287 
        1.16585         91.5035         23.1214         103.034 
        1.17807          90.062         22.5655         102.126 
        1.19037         89.8911         22.0244         101.056 
        1.20276         87.9096         21.4973         99.8533 
        1.21504         87.2849         20.9918         98.6718 
        1.22728         85.3686         20.5047         97.6767 
        1.23954         84.7242         20.0319         96.5651 
        1.25184         83.0313         19.5731         95.6526 
        1.26414         81.9597         19.1286         94.6712 
        1.27632         81.1633         18.7019         94.0081 
         1.2886         79.8245         18.2853          92.663 
        1.30093         78.6846         17.8799         91.6233 
        1.31316         77.8914         17.4898         90.9351 
        1.32541         77.1219         17.1113         90.0407 
        1.33772         75.9185          16.742         89.1085 
        1.35005         75.2214         16.3833         88.2253 
        1.36225         74.0561         16.0388          87.354 
        1.37447         72.4409         15.7036         86.4235 
        1.38676         72.4795         15.3764         85.4897 
        1.39907         71.0549         15.0581         84.8749 
        1.41133         69.8256         14.7501         84.2135 
        1.42358         69.0569         14.4511         83.1705 
        1.43591         68.5604         14.1584         82.4351 
        1.44818         67.5738         13.8753          81.601 
        1.46037         66.7281         13.6018         80.9749 
        1.47263         65.7122          13.334          80.318 
        1.48494         65.0325         13.0725         79.5011 
        1.49724         63.9838         12.8183         78.6946 
        1.50952         63.5076         12.5713          77.949 
        1.52178         62.6712         12.3312         77.3514 
        1.53409         62.1281         12.0964         76.6838 
        1.54637         60.6379         11.8682         75.9339 
        1.55858         60.0492         11.6472         75.2073 
        1.57081         59.5719         11.4316         74.6662 
        1.58313         58.5981           11.22         74.0487 
        1.59544         57.8548          11.014         73.3121 
        1.60767         57.2815         10.8144         72.7064 
        1.61994         56.4084         10.6191         72.1779 
        1.63225         55.6996         10.4283          71.388 
        1.64452         55.0982         10.2426          70.887 
        1.65676         54.2765         10.0621         70.2106 
          1.669         53.9058         9.88579         69.6842 
        1.68133         53.3349          9.7126         69.0419 
        1.69363         52.4041         9.54406         68.5562 
        1.70585         52.1027         9.38061         67.9695 
        1.71809         51.0007         9.22066          67.433 
        1.73038          50.624         9.06393          66.852 
        1.74268         49.9151         8.91076         66.2869 
        1.75493         49.3923         8.76183         65.7324 
        1.76714         48.7812         8.61669         65.1782 
        1.77942          48.487         8.47411         64.6794 
        1.79173         47.6391         8.33439         64.0812 
        1.80402         47.2041         8.19811         63.6632 
         1.8163         46.5816         8.06496         63.0576 
         1.8286         45.9244         7.93454          62.688 
         1.8409         45.3628         7.80712         62.0651 
        1.85315         44.8732         7.68293         61.7111 
        1.86537         44.3461         7.56168         61.1883 
        1.87765         43.9232         7.44261         60.6202 
        1.88995         43.3186         7.32581         60.1311 
        1.90221         42.9608         7.21194         59.6624 
        1.91445         42.2813         7.10067         59.2697 
        1.92674         41.8612         6.99136         58.7544 
        1.93902         41.4022         6.88436         58.2823 
        1.95124         40.9939         6.78016         57.9134 
         1.9635         40.3212         6.67785         57.4061 
        1.97583         39.9631         6.57702         57.0389 
        1.98812         39.3005         6.47865         56.5428 
        2.00039         39.0759         6.38248         56.0982 
        2.01264         38.4473         6.28836         55.7248 
        2.02492         38.1234         6.19601         55.3043 
        2.03717          37.567         6.10566         54.8381 
        2.04942         37.1249         6.01723         54.4436 
        2.06171         36.7872         5.93026         53.9843 
        2.07397         36.2723         5.84519          53.635 
        2.08629         35.8862         5.76145          53.203 
        2.09857         35.5649         5.67954         52.8508 
        2.11081         35.0524         5.59956         52.4171 
        2.12309         34.7368         5.52093          52.019 
        2.13538         34.2498          5.4437         51.6856 
        2.14763         33.9416         5.36821         51.2855 
        2.15986         33.7381         5.29432          50.881 
        2.17214         33.1224         5.22152          50.584 
        2.18443         32.8687         5.15003         50.1299 
        2.19671         32.3634         5.07996         49.7713 
        2.20898         31.9405         5.01127         49.3961 
        2.22126         31.7894         4.94379         49.0295 
        2.23354         31.3754         4.87757         48.7345 
         2.2458         31.0495         4.81268         48.3547 
        2.25807         30.5313         4.74891          47.984 
        2.27035         30.2377         4.68624         47.6598 
        2.28263         29.8905         4.62474         47.3285 
         2.2949         29.6361         4.56437         46.9933 
        2.30718         29.3217         4.50506          46.639 
        2.31946         29.0071         4.44677         46.3127 
        2.33169         28.7137         4.38977         45.9706 
        2.34393         28.3219         4.33368         45.6182 
        2.35622         28.0007         4.27839         45.3533 
        2.36847         27.6847         4.22422          44.983 
        2.38076         27.4481         4.17083         44.7153 
        2.39305         27.1216         4.11837          44.405 
        2.40534         26.8671         4.06682         44.0291 
        2.41762         26.4952         4.01615         43.7514 
        2.42989         26.3147         3.96642         43.4457 
        2.44216         25.9939         3.91755         43.1511 
         2.4544         25.7329          3.8696         42.8631 
        2.46667         25.3809         3.82235         42.5477 
        2.47897         25.1825         3.77578         42.2692 
        2.49124         24.9598         3.73011         41.9662 
        2.50349         24.6388         3.68526         41.7056 
        2.51578         24.3013         3.64101         41.4221 
        2.52805         24.1418         3.59757         41.1176 
        2.54029         23.9437         3.55495         40.8399 
        2.55257          23.691         3.51289         40.5598 
        2.56487         23.4749         3.47143         40.2859 
        2.57716         23.2086          3.4307          39.999 
        2.58942           22.97         3.39071         39.7601 
        2.60167         22.7433          3.3514          39.467 
        2.61395         22.5329         3.31265          39.201 
        2.62624         22.3407         3.27446         38.9527 
        2.63849         22.1676           3.237         38.6871 
        2.65073         21.8937         3.20016         38.4102 
        2.66302         21.6184         3.16376         38.1767 
         2.6753         21.5053         3.12795         37.9255 
        2.68756         21.3407         3.09277         37.6924 
        2.69983         21.1483         3.05811         37.4134 
        2.71213         20.9548          3.0239         37.1737 
        2.72441          20.789         2.99028         36.9103 
        2.73665         20.5712         2.95725         36.6679 
         2.7489         20.3656         2.92474         36.4328 
        2.76118         20.2421         2.89262         36.1694 
        2.77349         20.1324          2.8609         35.9564 
        2.78576         19.9025         2.82979         35.7305 
        2.79802         19.7017         2.79915         35.4896 
        2.81031         19.6007          2.7689         35.2764 
        2.82259         19.5007          2.7391         35.0414 
        2.83483         19.2502         2.70986         34.7981 
         2.8471         19.1977         2.68099          34.565 
         2.8594         19.0327         2.65244         34.3531 
         2.8717          18.855         2.62433          34.123 
        2.88396         18.6915         2.59673         33.8943 
        2.89619         18.6593         2.56957         33.6871 
        2.90847         18.5156          2.5427         33.4689 
        2.92072         18.3636         2.51626         33.2674 
        2.93299         18.3066         2.49018         33.0616 
        2.94526          18.215         2.46445         32.8455 
        2.95753         18.1201         2.43909         32.6338 
        2.96982         18.0553         2.41404         32.4323 
        2.98209         17.9052          2.3894         32.2315 
        2.99436          17.878         2.36508         32.0274 
        3.00666         17.7535         2.34105         31.8191 
        3.01894         17.6955         2.31741         31.6098 
        3.03119         17.5489         2.29413         31.4114 
        3.04345          17.586         2.27116         31.2234 
        3.05573         17.4994         2.24847         31.0288 
          3.068         17.4259         2.22611         30.8226 
        3.08026         17.4149         2.20407         30.6338 
        3.09254          17.338         2.18229         30.4506 
        3.10483         17.3031         2.16081         30.2651 
         3.1171         17.3119         2.13964         30.0801 
        3.12933         17.2537         2.11881         29.8932 
        3.14159         17.1876         2.09822         29.7025 
