# k  (h/Mpc)    P(k)  (Mpc/h)^3    P_linear(k)  (Mpc/h)^3     P_NL(k)  ShotnoiseSubtracted = false
      0.0156606         1615.54         1637.86         1630.07 
      0.0273761         1404.09         1415.78         1412.45 
      0.0384619         1066.22         1066.54          1065.9 
      0.0498308         837.008         838.869         838.889 
      0.0625568         706.158          712.92          712.21 
      0.0751274         608.223         605.697         604.132 
      0.0867833         484.294          487.65         487.495 
      0.0984825         390.526         385.911         387.007 
       0.111151         326.634         322.228         323.262 
       0.123864         293.329         290.392         291.063 
       0.135742         263.304         261.134         261.752 
        0.14762         223.673         223.283         224.883 
       0.160083         185.898         186.119         187.996 
       0.172465         163.288         162.446         164.672 
       0.184281         151.285         149.756         152.095 
       0.196406          138.14         138.299         140.056 
       0.209011         124.023         123.051          125.08 
       0.221538         109.681         107.535         110.401 
       0.233611         98.4894         96.2157         99.3931 
       0.245665         92.2479         88.8033         91.6163 
       0.258103         83.2481         82.6684          85.462 
       0.270422         78.0293         75.9626         78.6546 
       0.282519         70.7688         68.9402         71.8465 
       0.294636         66.6252         62.8122         65.8762 
       0.306978         59.3037         58.1119         61.2687 
       0.319417         56.4022         54.3312         57.3905 
        0.33169         52.4161         50.7124         53.6649 
       0.343948         49.4743          46.988         49.9549 
       0.356249          45.284         43.4951         46.8154 
       0.368458         42.9731         40.5695         43.5713 
        0.38068         40.1364         38.1232         41.1062 
       0.392856         37.6383         35.8898         38.9012 
       0.405069         35.5568         33.7059         36.5885 
       0.417459         33.0011         31.5915         34.5551 
       0.429752         31.5013         29.6934         32.6369 
       0.441978         29.9382         28.0274         31.1081 
       0.454294         27.9101         26.5146         29.4306 
        0.46658         27.3666         25.0951         27.9726 
       0.478753          25.512          23.756         26.6328 
       0.490964         24.5526         22.4981         25.4744 
       0.503334         23.4542         21.3372         24.1811 
       0.515665          22.138         20.2785         23.2498 
       0.527909         21.1927         19.3012         22.0471 
       0.540159         20.1808         18.3764         21.1036 
        0.55248         18.8856         17.4991         20.1501 
       0.564743           18.58         16.6868         19.4391 
        0.57686         17.8588         15.9401         18.6273 
       0.589077         16.7795         15.2353         17.9697 
       0.601441         16.1181         14.5651         17.2566 
        0.61382         15.5024         13.9332         16.5357 
       0.626067         14.8591         13.3436         15.9454 
       0.638306          14.323         12.7883           15.33 
       0.650632         13.9343         12.2622         14.8193 
       0.662899         13.2592         11.7692         14.2595 
       0.675076          12.622         11.3072         13.7666 
       0.687267         12.3191         10.8694         13.2614 
       0.699615         11.9334         10.4493         12.8292 
       0.711937         11.3099         10.0522          12.424 
       0.724148         11.1863         9.67905         12.0342 
       0.736433         10.5589         9.32302         11.6145 
       0.748747          10.284         8.98438          11.288 
       0.761037         10.0236         8.66337         10.9376 
       0.773197         9.58544         8.36137         10.6337 
       0.785376         9.25754         8.07342         10.3069 
       0.797761         8.98842         7.79458         9.98309 
       0.810096         8.74375         7.53002         9.74215 
       0.822371         8.51815         7.27902         9.42575 
       0.834626         8.22815         7.03992         9.17338 
       0.846916          7.9399           6.811         8.93048 
       0.859215         7.63988         6.59218         8.70051 
       0.871383         7.44493          6.3852          8.4793 
        0.88363         7.25517         6.18592         8.24853 
       0.895928         7.09625         5.99443         8.02262 
       0.908253         6.88173         5.81073         7.82506 
       0.920535         6.64743         5.63539         7.61672 
       0.932774         6.51015         5.46792         7.39955 
        0.94508         6.29838         5.30645          7.2472 
       0.957324         6.14788         5.15232         7.09234 
        0.96953         5.93304         5.00481         6.91653 
       0.981769         5.80922         4.86274         6.73523 
       0.994071         5.68931         4.72553          6.5946 
         1.0064         5.49072          4.5934         6.44416 
        1.01868         5.35043         4.46673         6.29446 
        1.03092         5.25132         4.34543         6.14412 
         1.0432         5.05585         4.22822         6.01342 
        1.05553          4.9613         4.11489         5.89531 
        1.06777         4.80856         4.00655         5.77225 
           1.08         4.72741         3.90225         5.64207 
        1.09227         4.59591         3.80133         5.51896 
         1.1046         4.48905         3.70362         5.40375 
         1.1169         4.34486         3.60954         5.29581 
        1.12915         4.30888          3.5192          5.2027 
        1.14142         4.16006         3.43177         5.08217 
        1.15365          4.0758         3.34759         4.98932 
        1.16585         4.00892         3.26646         4.89899 
        1.17807          3.9177         3.18794          4.7928 
        1.19037         3.79187         3.11148         4.70097 
        1.20276          3.7139         3.03703         4.60492 
        1.21504         3.63452         2.96561         4.53369 
        1.22728          3.5506         2.89679         4.43669 
        1.23954         3.48886            2.83         4.37502 
        1.25184         3.40612         2.76519         4.28236 
        1.26414         3.35236         2.70239         4.19859 
        1.27632         3.24572         2.64211         4.13945 
         1.2886         3.20748         2.58325         4.06034 
        1.30093         3.12125         2.52599         3.99929 
        1.31316         3.03564         2.47087         3.92393 
        1.32541         2.99713          2.4174         3.86558 
        1.33772         2.94405         2.36522         3.79501 
        1.35005         2.88458         2.31455         3.73493 
        1.36225         2.82545         2.26588         3.66742 
        1.37447         2.76545         2.21852         3.61776 
        1.38676         2.70583          2.1723         3.55144 
        1.39907         2.64476         2.12733         3.50324 
        1.41133         2.59986         2.08382         3.44675 
        1.42358         2.56262         2.04158         3.38536 
        1.43591         2.51731         2.00022         3.34831 
        1.44818         2.45353         1.96024         3.29345 
        1.46037         2.40095         1.92159         3.23882 
        1.47263         2.35771         1.88377         3.19415 
        1.48494         2.32329         1.84682         3.14643 
        1.49724         2.27319          1.8109         3.09768 
        1.50952         2.25868         1.77601         3.05295 
        1.52178         2.19758         1.74208         3.01416 
        1.53409         2.15361         1.70892         2.96251 
        1.54637         2.11531         1.67668         2.92137 
        1.55858         2.08186         1.64546          2.8757 
        1.57081          2.0459         1.61499          2.8423 
        1.58313         2.00378         1.58511         2.80379 
        1.59544         1.97382           1.556         2.76667 
        1.60767          1.9452         1.52781         2.72758 
        1.61994         1.90176         1.50022         2.69299 
        1.63225         1.87706         1.47325         2.65763 
        1.64452          1.8446         1.44703         2.61968 
        1.65676         1.80501         1.42152         2.58707 
          1.669         1.78238         1.39662         2.55165 
        1.68133         1.74028         1.37215         2.52351 
        1.69363         1.73216         1.34834         2.48973 
        1.70585         1.70133         1.32525         2.45784 
        1.71809         1.67603         1.30265         2.42678 
        1.73038         1.64188         1.28051         2.39597 
        1.74268         1.61227         1.25887         2.36687 
        1.75493         1.59502         1.23783         2.34023 
        1.76714         1.56953         1.21732         2.30645 
        1.77942         1.54143         1.19718         2.28158 
        1.79173         1.51933         1.17744         2.25263 
        1.80402         1.49616         1.15819          2.2266 
         1.8163         1.47602         1.13938         2.20021 
         1.8286         1.44578         1.12095         2.17951 
         1.8409         1.43384         1.10295         2.15329 
        1.85315         1.41227         1.08541          2.1236 
        1.86537          1.3872         1.06828         2.10357 
        1.87765         1.37049         1.05146          2.0801 
        1.88995         1.34799         1.03496         2.05589 
        1.90221          1.3293         1.01887         2.03218 
        1.91445         1.30837         1.00315         2.01296 
        1.92674         1.29196        0.987706         1.98743 
        1.93902         1.26843        0.972588         1.96412 
        1.95124         1.25102        0.957868         1.94548 
         1.9635         1.23489        0.943415         1.92291 
        1.97583         1.21354        0.929169         1.90173 
        1.98812         1.19922        0.915272         1.88409 
        2.00039         1.18061        0.901686         1.86249 
        2.01264         1.16191         0.88839         1.84586 
        2.02492         1.15194        0.875342         1.82768 
        2.03717         1.14164        0.862578         1.80758 
        2.04942         1.11805        0.850086         1.78693 
        2.06171         1.10337        0.837799         1.76866 
        2.07397         1.08892        0.825781         1.75286 
        2.08629         1.07739        0.813949         1.73652 
        2.09857         1.06048        0.802378         1.71896 
        2.11081         1.04674        0.791079         1.70079 
        2.12309         1.03534        0.779971         1.68644 
        2.13538         1.02216         0.76906         1.66786 
        2.14763         1.01294        0.758395         1.65223 
        2.15986        0.999052        0.747956         1.63849 
        2.17214        0.978682        0.737672         1.61884 
        2.18443        0.970335        0.727571         1.60661 
        2.19671        0.960544        0.717672         1.59163 
        2.20898        0.946473        0.707969         1.57658 
        2.22126        0.934132        0.698435         1.56211 
        2.23354         0.92202         0.68908          1.5474 
         2.2458        0.913678        0.679913         1.53235 
        2.25807        0.899698        0.670904           1.518 
        2.27035        0.892288        0.662051         1.50548 
        2.28263         0.87628        0.653361         1.49283 
         2.2949        0.868501        0.644833         1.47895 
        2.30718        0.860182        0.636454         1.46652 
        2.31946        0.847074        0.628219         1.45347 
        2.33169        0.837424        0.620167         1.44103 
        2.34393        0.833671        0.612243         1.42861 
        2.35622        0.818416        0.604432          1.4162 
        2.36847        0.812316        0.596779         1.40398 
        2.38076        0.798272        0.589236          1.3918 
        2.39305        0.794568        0.581825         1.37977 
        2.40534        0.783207        0.574541         1.36863 
        2.41762        0.775288        0.567383         1.35626 
        2.42989        0.765438        0.560358         1.34681 
        2.44216        0.760012        0.553453         1.33522 
         2.4544        0.752688         0.54668         1.32443 
        2.46667        0.743044        0.540004         1.31349 
        2.47897        0.735308        0.533424         1.30242 
        2.49124        0.724811        0.526972          1.2919 
        2.50349        0.719416        0.520637         1.28114 
        2.51578        0.712504        0.514386         1.27027 
        2.52805        0.703303        0.508249         1.26091 
        2.54029        0.697731        0.502227         1.25073 
        2.55257        0.689403        0.496285         1.24136 
        2.56487        0.681919        0.490428         1.23226 
        2.57716        0.677522        0.484673         1.22167 
        2.58942        0.672771        0.479024         1.21318 
        2.60167        0.666189         0.47347         1.20346 
        2.61395        0.658293        0.467996         1.19423 
        2.62624        0.653059        0.462601         1.18583 
        2.63849        0.645453        0.457308         1.17643 
        2.65073        0.639689        0.452104         1.16742 
        2.66302         0.63532        0.446962         1.15827 
         2.6753        0.631369        0.441903         1.15025 
        2.68756        0.624304        0.436933         1.14259 
        2.69983        0.618993        0.432036         1.13399 
        2.71213        0.611152        0.427204         1.12584 
        2.72441        0.608854        0.422454         1.11745 
        2.73665        0.604804        0.417788         1.11037 
         2.7489        0.599066        0.413195         1.10284 
        2.76118        0.594082        0.408656         1.09356 
        2.77349        0.590533        0.404176         1.08634 
        2.78576        0.587497         0.39978         1.07853 
        2.79802         0.58168        0.395452         1.07045 
        2.81031        0.577965        0.391178         1.06418 
        2.82259        0.574076        0.386968         1.05576 
        2.83483        0.570671        0.382837         1.04875 
         2.8471        0.566069        0.378758         1.04128 
         2.8594        0.563774        0.374726         1.03453 
         2.8717        0.558752        0.370754          1.0282 
        2.88396        0.555142        0.366854         1.02098 
        2.89619        0.552665        0.363017         1.01414 
        2.90847        0.549473        0.359221         1.00761 
        2.92072        0.548512        0.355486         1.00081 
        2.93299        0.542347        0.351802        0.993614 
        2.94526        0.542042        0.348166        0.987398 
        2.95753        0.540032        0.344584        0.981288 
        2.96982        0.537598        0.341045        0.974456 
        2.98209        0.535643        0.337564        0.968041 
        2.99436        0.532839        0.334128        0.961962 
        3.00666        0.532276        0.330734        0.955992 
        3.01894        0.531258        0.327394        0.950299 
        3.03119         0.52802        0.324104        0.943764 
        3.04345         0.52609         0.32086        0.937771 
        3.05573        0.525947        0.317654        0.932722 
          3.068        0.524349        0.314495        0.926892 
        3.08026        0.524629        0.311382        0.920682 
        3.09254        0.522968        0.308305        0.914556 
        3.10483        0.521355        0.305269        0.909229 
         3.1171        0.522549        0.302279        0.904129 
        3.12933        0.522048        0.299336        0.898494 
        3.14159        0.522206        0.296427        0.892985 
