# k  (h/Mpc)    Pcb(k)  (Mpc/h)^3    Pcb_linear(k) (Mpc/h)^3    Pcb_NL(k) (Mpc/h)^3   ShotnoiseSubtracted = false
      0.0156606           12843         12885.9         12802.9 
      0.0273761         11064.4         11143.3         11065.1 
      0.0384619         8391.38         8395.93         8334.12 
      0.0498308         6514.85         6604.26         6544.72 
      0.0625568         5499.91         5612.96         5557.65 
      0.0751274         4857.68         4768.89          4688.8 
      0.0867833          3789.1         3839.52         3817.62 
      0.0984825         3154.11         3038.51         3067.14 
       0.111151         2674.69         2537.11         2568.65 
       0.123864         2400.46         2286.46         2312.72 
       0.135742         2174.23          2056.1         2082.98 
        0.14762         1874.46         1758.07         1827.43 
       0.160083         1568.21         1465.46         1547.45 
       0.172465         1397.61         1279.06         1381.98 
       0.184281         1282.74         1179.15         1285.22 
       0.196406         1184.98         1088.94         1178.73 
       0.209011         1093.75         968.878          1064.2 
       0.221538         986.362         846.709         978.372 
       0.233611         923.001         757.585          905.61 
       0.245665         849.753         699.222         833.423 
       0.258103         810.375         650.916         784.143 
       0.270422         734.212         598.116         731.389 
       0.282519         679.382         542.824         682.978 
       0.294636         673.162         494.573          641.53 
       0.306978          602.08         457.563         610.085 
       0.319417         581.158         427.795         573.939 
        0.33169         547.248         399.301         540.481 
       0.343948         521.469         369.976         519.369 
       0.356249         489.127         342.474          496.88 
       0.368458         474.524         319.438         469.592 
        0.38068         455.854         300.174         448.771 
       0.392856         428.364         282.589          430.52 
       0.405069         411.034         265.395         416.236 
       0.417459         393.352         248.745         395.393 
       0.429752          381.19           233.8         380.771 
       0.441978         368.777         220.683         369.269 
       0.454294         346.974         208.771         352.572 
        0.46658         343.153         197.594         343.109 
       0.478753         329.981         187.051         331.156 
       0.490964         318.551         177.147         319.708 
       0.503334         300.584         168.005         310.673 
       0.515665         298.272         159.669         303.644 
       0.527909         288.549         151.974         293.766 
       0.540159         280.774         144.694          285.36 
        0.55248         275.237         137.786         277.015 
       0.564743         269.109         131.389         271.218 
        0.57686         259.142          125.51         262.884 
       0.589077         249.169          119.96         257.187 
       0.601441         245.904         114.683         251.028 
        0.61382         242.889         109.708          245.26 
       0.626067         237.312         105.065         239.551 
       0.638306         226.378         100.693         234.819 
       0.650632         221.121         96.5507         227.527 
       0.662899         220.364         92.6689         223.934 
       0.675076         212.155         89.0311         219.074 
       0.687267         206.743         85.5839         214.238 
       0.699615         203.015         82.2762         210.089 
       0.711937         198.666         79.1493         206.028 
       0.724148         194.279         76.2114         202.966 
       0.736433         189.902         73.4081         198.435 
       0.748747          185.94         70.7417         194.457 
       0.761037         183.097         68.2141         190.713 
       0.773197         179.631         65.8362         188.462 
       0.785376         177.595         63.5689         184.399 
       0.797761         173.531         61.3734         182.021 
       0.810096         170.177         59.2902         178.729 
       0.822371         164.208         57.3139         175.742 
       0.834626         162.823         55.4313           172.8 
       0.846916         160.574         53.6288         170.251 
       0.859215         159.138         51.9059         167.563 
       0.871383         155.454         50.2761         164.772 
        0.88363         153.102          48.707         162.922 
       0.895928         149.898         47.1993         160.571 
       0.908253         145.814         45.7529         157.661 
       0.920535         145.234         44.3722         155.638 
       0.932774         140.612         43.0536         153.149 
        0.94508          139.56         41.7822         151.347 
       0.957324         138.535         40.5686         149.114 
        0.96953         137.283         39.4072         146.745 
       0.981769         132.983         38.2885         145.432 
       0.994071         132.261         37.2081         143.401 
         1.0064         129.009         36.1678         141.254 
        1.01868         127.629         35.1704         139.691 
        1.03092           125.5         34.2153         138.025 
         1.0432         123.237         33.2924         136.229 
        1.05553         120.689            32.4         134.811 
        1.06777         120.442          31.547         133.329 
           1.08         117.897         30.7257          131.54 
        1.09227         116.481         29.9311         130.125 
         1.1046         114.444         29.1618         128.513 
         1.1169         113.078         28.4209         126.779 
        1.12915         111.284         27.7096         125.455 
        1.14142          109.57         27.0212         123.866 
        1.15365         107.676         26.3584         122.517 
        1.16585         106.303         25.7196          121.02 
        1.17807         104.618         25.1013         120.054 
        1.19037         104.334         24.4994         118.778 
        1.20276          102.02         23.9131         117.346 
        1.21504         101.158         23.3508         116.002 
        1.22728         99.0077         22.8089         114.771 
        1.23954         98.2947          22.283         113.566 
        1.25184         96.1981         21.7727         112.422 
        1.26414         95.0741         21.2782         111.288 
        1.27632         94.2247         20.8036         110.619 
         1.2886         92.5376         20.3401         108.984 
        1.30093         90.9427         19.8892         107.797 
        1.31316         90.2898         19.4553         106.887 
        1.32541         89.1858         19.0342         105.929 
        1.33772         87.9498         18.6234         104.826 
        1.35005         87.0419         18.2244         103.741 
        1.36225         85.8009         17.8412         102.761 
        1.37447         83.9721         17.4683         101.657 
        1.38676         83.8672         17.1044         100.545 
        1.39907          82.069         16.7503         99.8006 
        1.41133         80.7739         16.4077         99.0144 
        1.42358         79.8907         16.0751         97.8557 
        1.43591         79.3093         15.7494         96.9095 
        1.44818         78.2338         15.4346         96.0164 
        1.46037         77.0645         15.1303         95.2021 
        1.47263         75.8003         14.8325         94.4432 
        1.48494           75.26         14.5416          93.488 
        1.49724         73.9351         14.2587         92.5046 
        1.50952         73.1527          13.984         91.6598 
        1.52178         72.2459         13.7169         90.9283 
        1.53409         71.6593         13.4557         90.1361 
        1.54637          69.885         13.2019         89.2659 
        1.55858         69.2743         12.9561          88.428 
        1.57081         68.5359         12.7162         87.7363 
        1.58313         67.4646         12.4809         86.9906 
        1.59544         66.7051         12.2517         86.1521 
        1.60767         65.9567         12.0297         85.4183 
        1.61994         65.0375         11.8125         84.8334 
        1.63225         64.0632         11.6002         83.8586 
        1.64452         63.3546         11.3937         83.2594 
        1.65676         62.3926         11.1929          82.484 
          1.669          61.964         10.9967         81.8312 
        1.68133         61.2816         10.8041         81.0858 
        1.69363         60.2413         10.6166         80.5067 
        1.70585         59.8007         10.4348         79.7732 
        1.71809         58.5331         10.2569         79.2006 
        1.73038         57.9663         10.0825         78.4446 
        1.74268         57.1933         9.91213          77.824 
        1.75493         56.6153         9.74647         77.1421 
        1.76714         55.8598         9.58502         76.4822 
        1.77942         55.5351         9.42641         75.8768 
        1.79173         54.5402         9.27099         75.1809 
        1.80402         53.9852          9.1194         74.6649 
         1.8163         53.3048         8.97128         73.9547 
         1.8286         52.4944         8.82621         73.5019 
         1.8409         51.7576         8.68447         72.7924 
        1.85315         51.1496         8.54632         72.3503 
        1.86537         50.6033         8.41145         71.7084 
        1.87765         50.0248         8.27899         71.0262 
        1.88995         49.3948         8.14907         70.4916 
        1.90221         48.9837          8.0224         69.9234 
        1.91445         48.1933         7.89862         69.4362 
        1.92674         47.7021         7.77704         68.8464 
        1.93902         47.1165           7.658         68.2643 
        1.95124         46.7326          7.5421         67.8354 
         1.9635         45.8645          7.4283         67.2101 
        1.97583         45.4232         7.31613          66.772 
        1.98812         44.7286          7.2067         66.1851 
        2.00039         44.4197         7.09973         65.6597 
        2.01264         43.6648         6.99504         65.1904 
        2.02492         43.2624          6.8923         64.7013 
        2.03717         42.6414          6.7918         64.1408 
        2.04942         42.1196         6.69344         63.6965 
        2.06171         41.6725         6.59669         63.1325 
        2.07397         41.0644         6.50207         62.7218 
        2.08629         40.6243         6.40891         62.1892 
        2.09857         40.3004         6.31779         61.7773 
        2.11081         39.6024         6.22883         61.2509 
        2.12309         39.2324         6.14136         60.7931 
        2.13538         38.7582         6.05545         60.3681 
        2.14763         38.4053         5.97147         59.9082 
        2.15986         38.1593         5.88928         59.4322 
        2.17214         37.4098         5.80831         59.0735 
        2.18443         37.2203         5.72878         58.5488 
        2.19671         36.5493         5.65083         58.0995 
        2.20898          36.128         5.57443         57.6596 
        2.22126         35.8231         5.49936         57.2266 
        2.23354         35.3473          5.4257         56.8656 
         2.2458         35.0648         5.35352         56.4234 
        2.25807         34.4829         5.28259         55.9768 
        2.27035         34.1248         5.21288         55.5822 
        2.28263         33.6978         5.14446         55.1832 
         2.2949         33.3019          5.0773         54.7888 
        2.30718         33.0172         5.01133         54.3849 
        2.31946         32.5815         4.94649         53.9994 
        2.33169         32.2923         4.88309         53.5821 
        2.34393         31.8074         4.82069         53.1717 
        2.35622         31.4695         4.75919          52.831 
        2.36847         31.0965         4.69893         52.4096 
        2.38076         30.8966         4.63954         52.0801 
        2.39305         30.5043         4.58119         51.7088 
        2.40534         30.1863         4.52384         51.2647 
        2.41762         29.8055         4.46748         50.9179 
        2.42989          29.462         4.41216         50.5826 
        2.44216         29.1918         4.35779         50.2146 
         2.4544         28.8958         4.30446         49.8758 
        2.46667         28.4105          4.2519         49.4914 
        2.47897         28.2288         4.20009         49.1664 
        2.49124         27.9325         4.14929         48.8018 
        2.50349         27.5832          4.0994          48.496 
        2.51578         27.2295         4.05019         48.1585 
        2.52805         27.0141         4.00186         47.7945 
        2.54029          26.839         3.95445         47.4718 
        2.55257         26.4878         3.90766         47.1454 
        2.56487         26.2676         3.86154          46.816 
        2.57716         25.9783         3.81623         46.4946 
        2.58942         25.6588         3.77175         46.1874 
        2.60167         25.3703         3.72802         45.8336 
        2.61395         25.1479         3.68492         45.5291 
        2.62624         24.8936         3.64244         45.2318 
        2.63849         24.7062         3.60077         44.9157 
        2.65073         24.4302         3.55979          44.587 
        2.66302         24.1052          3.5193         44.3115 
         2.6753         23.9155         3.47947         44.0078 
        2.68756         23.6793         3.44033           43.72 
        2.69983         23.5113         3.40177         43.4094 
        2.71213         23.2464         3.36372         43.1263 
        2.72441         23.0967         3.32633         42.8129 
        2.73665         22.8301         3.28959         42.5297 
         2.7489         22.6487         3.25342         42.2508 
        2.76118         22.4689         3.21769         41.9388 
        2.77349         22.3073         3.18241         41.6869 
        2.78576         22.1346          3.1478         41.4085 
        2.79802         21.8171         3.11371         41.1286 
        2.81031         21.7124         3.08006         40.8755 
        2.82259         21.5699         3.04692         40.5909 
        2.83483          21.336         3.01439         40.3105 
         2.8471         21.2702         2.98227          40.043 
         2.8594           21.03         2.95052          39.794 
         2.8717         20.8293         2.91925         39.5225 
        2.88396         20.6947         2.88854         39.2516 
        2.89619         20.6231         2.85833         39.0026 
        2.90847         20.4518         2.82844         38.7421 
        2.92072         20.2762         2.79903         38.5106 
        2.93299         20.2192         2.77002         38.2562 
        2.94526          20.087          2.7414         38.0055 
        2.95753         19.9336         2.71319         37.7648 
        2.96982         19.9003         2.68533         37.5219 
        2.98209         19.7123         2.65791         37.2845 
        2.99436          19.687         2.63086         37.0463 
        3.00666         19.5271         2.60414         36.8022 
        3.01894         19.4825         2.57784         36.5538 
        3.03119         19.3228         2.55194         36.3152 
        3.04345         19.2795         2.52639          36.094 
        3.05573         19.2039         2.50114         35.8699 
          3.068         19.1776         2.47627         35.6266 
        3.08026         19.1628         2.45176         35.4026 
        3.09254         19.0498         2.42753         35.1899 
        3.10483         19.0183         2.40363         34.9728 
         3.1171         18.9752         2.38009         34.7514 
        3.12933         18.9364         2.35692         34.5305 
        3.14159         18.9128         2.33401         34.3086 
