# k  (h/Mpc)    Pcb(k)  (Mpc/h)^3    Pcb_linear(k) (Mpc/h)^3    Pcb_NL(k) (Mpc/h)^3   ShotnoiseSubtracted = false
      0.0156606         8681.47         8701.19         8650.58 
      0.0273761         7501.05         7525.83         7486.29 
      0.0384619         5695.47          5670.8         5643.33 
      0.0498308          4436.3         4460.87         4435.87 
      0.0625568         3744.04         3791.41         3766.97 
      0.0751274         3287.07         3221.33         3184.68 
      0.0867833         2576.95         2593.58         2584.89 
      0.0984825         2126.13         2052.52         2068.42 
       0.111151         1794.51         1713.83         1730.48 
       0.123864         1611.75         1544.52         1558.53 
       0.135742         1455.35         1388.92         1403.33 
        0.14762         1246.98          1187.6         1223.18 
       0.160083         1037.89         989.936         1031.02 
       0.172465         922.981         864.028         914.955 
       0.184281         851.984         796.533         849.883 
       0.196406         780.742         735.597         779.118 
       0.209011         714.783         654.495         701.689 
       0.221538         642.838         571.967         637.821 
       0.233611         592.612         511.763         585.606 
       0.245665         551.867         472.338         538.662 
       0.258103         512.841         439.706         505.672 
       0.270422         472.221         404.039          469.56 
       0.282519         432.338         366.689          435.48 
       0.294636          426.12         334.094         406.511 
       0.306978         377.725         309.093         384.374 
       0.319417         362.626         288.985         361.226 
        0.33169         339.982         269.736          339.46 
       0.343948         324.347         249.926         323.308 
       0.356249         302.429         231.348         307.936 
       0.368458         292.406         215.787         289.535 
        0.38068         278.335         202.774          275.64 
       0.392856         260.129         190.895         263.727 
       0.405069         249.261          179.28         253.066 
       0.417459         237.675         168.033         239.516 
       0.429752         228.945         157.937         229.983 
       0.441978         220.847         149.076         222.299 
       0.454294         206.001         141.029         211.436 
        0.46658         206.003         133.479         204.628 
       0.478753         194.754         126.357         197.095 
       0.490964         188.662         119.667         189.712 
       0.503334         178.792         113.491         183.593 
       0.515665         175.058          107.86         178.933 
       0.527909         169.765         102.662         171.575 
       0.540159         164.253         97.7438         166.563 
        0.55248         159.774         93.0772         161.005 
       0.564743         155.081         88.7562         156.944 
        0.57686         150.048         84.7848         151.807 
       0.589077         143.571         81.0359         148.249 
       0.601441         140.646         77.4712         144.362 
        0.61382         138.694         74.1102         140.126 
       0.626067          133.67         70.9739         136.573 
       0.638306         128.553         68.0204          133.38 
       0.650632         124.185         65.2222         128.763 
       0.662899         124.157            62.6         126.002 
       0.675076         119.726         60.1425         122.986 
       0.687267         116.855         57.8139         120.129 
       0.699615         113.619         55.5794         117.663 
       0.711937         110.396         53.4671         114.583 
       0.724148          109.17         51.4825         112.976 
       0.736433          105.33         49.5888         110.028 
       0.748747         103.163         47.7876         107.654 
       0.761037         101.135         46.0802         105.141 
       0.773197         98.9191         44.4739          103.93 
       0.785376         96.9223         42.9423         101.318 
       0.797761          95.747         41.4591         99.8357 
       0.810096         92.4673         40.0519         97.6179 
       0.822371         90.5564         38.7169          95.813 
       0.834626         88.6445         37.4451         94.1779 
       0.846916         87.5761         36.2275         92.5686 
       0.859215         85.8257         35.0636         90.7489 
       0.871383         84.6067         33.9627         89.2278 
        0.88363         82.3432         32.9027         88.0233 
       0.895928         80.7587         31.8842         86.5844 
       0.908253         78.7072         30.9071         85.0483 
       0.920535         78.3387         29.9745         83.7987 
       0.932774         76.6066         29.0837         82.3238 
        0.94508         75.6678         28.2249         80.9536 
       0.957324          73.903          27.405         79.9086 
        0.96953         73.9766         26.6205         78.4991 
       0.981769         71.4896         25.8647         77.6325 
       0.994071         70.7234         25.1349         76.4858 
         1.0064         69.1649         24.4321         75.3441 
        1.01868         68.3443         23.7584         74.3579 
        1.03092         67.1024         23.1132         73.2992 
         1.0432         65.9608         22.4898         72.1947 
        1.05553         64.2597          21.887         71.5914 
        1.06777         63.9759         21.3107          70.565 
           1.08         62.5768         20.7559         69.5852 
        1.09227         61.6951         20.2192         68.5753 
         1.1046         60.7395         19.6995         67.7229 
         1.1169         60.0499          19.199         66.7417 
        1.12915         59.1616         18.7185         66.0617 
        1.14142         58.0203         18.2535         65.2475 
        1.15365         57.0485         17.8057         64.5011 
        1.16585         56.2428         17.3742         63.6163 
        1.17807         55.3664         16.9565         62.8712 
        1.19037         55.2532         16.5499         62.2736 
        1.20276         54.1833         16.1539         61.5375 
        1.21504         53.6696          15.774         60.8158 
        1.22728         52.5448         15.4079         60.1586 
        1.23954         51.9646         15.0527         59.3562 
        1.25184         51.1142          14.708         58.8393 
        1.26414         50.3082         14.3739         58.1079 
        1.27632         49.8986         14.0533         57.5507 
         1.2886         49.3688         13.7402         56.8912 
        1.30093         48.6329         13.4356         56.1601 
        1.31316         47.8743         13.1425         55.7639 
        1.32541         47.5873         12.8581         55.1228 
        1.33772         46.7066         12.5805          54.547 
        1.35005         46.2222          12.311         54.0273 
        1.36225         45.4268         12.0521         53.4882 
        1.37447         44.3574         11.8002         52.9194 
        1.38676         44.5336         11.5544         52.4243 
        1.39907         43.8244         11.3152         51.9801 
        1.41133         42.9202         11.0838         51.4982 
        1.42358         42.4467         10.8591         50.9163 
        1.43591          42.064         10.6391         50.5011 
        1.44818         41.5564         10.4264         49.9005 
        1.46037          41.013         10.2209          49.508 
        1.47263         40.6935         10.0197           49.11 
        1.48494         39.8882         9.82318         48.5861 
        1.49724         39.6517          9.6321         48.1416 
        1.50952         39.2242         9.44651          47.725 
        1.52178         38.6151         9.26609         47.3158 
        1.53409         38.3078         9.08966         46.8945 
        1.54637          37.685         8.91821         46.4362 
        1.55858         36.9001         8.75215         46.0115 
        1.57081         36.9318          8.5901          45.687 
        1.58313         36.5012         8.43115         45.2817 
        1.59544         35.8538         8.27631         44.8685 
        1.60767         35.4059         8.12636         44.4543 
        1.61994         34.9719         7.97961         44.0969 
        1.63225         34.7493         7.83619         43.7321 
        1.64452          34.331         7.69669         43.3871 
        1.65676         33.8964         7.56103         42.9957 
          1.669         33.5826         7.42855         42.7006 
        1.68133         33.2558          7.2984         42.2921 
        1.69363         32.6955         7.17176         41.9335 
        1.70585         32.4812         7.04893         41.6848 
        1.71809         31.9177         6.92874         41.2392 
        1.73038         31.7442         6.81097         40.9954 
        1.74268          31.267         6.69587           40.58 
        1.75493         30.9496         6.58396         40.2939 
        1.76714         30.6691          6.4749         40.0038 
        1.77942          30.352         6.36776         39.6785 
        1.79173         29.9354         6.26277         39.3526 
        1.80402         29.6008         6.16037         39.1402 
         1.8163          29.396         6.06031         38.6872 
         1.8286         28.8985         5.96231         38.4641 
         1.8409         28.6505         5.86656         38.1479 
        1.85315         28.3292         5.77324         37.9057 
        1.86537         27.9619         5.68213         37.6204 
        1.87765         27.8258         5.59265         37.3187 
        1.88995         27.4006         5.50489         36.9763 
        1.90221         27.1374         5.41932         36.7138 
        1.91445          26.748          5.3357         36.4672 
        1.92674          26.511         5.25357         36.1769 
        1.93902         26.2143         5.17316         35.9358 
        1.95124         25.7732         5.09486         35.7184 
         1.9635         25.6213         5.01799         35.4148 
        1.97583         25.3506         4.94222          35.185 
        1.98812          25.123         4.86829         34.9246 
        2.00039         24.8192         4.79603         34.6656 
        2.01264         24.5228         4.72531         34.4407 
        2.02492         24.3453         4.65591         34.1628 
        2.03717         23.9694         4.58802         33.9278 
        2.04942          23.765         4.52157         33.6666 
        2.06171         23.5853         4.45622         33.4538 
        2.07397         23.3259          4.3923          33.185 
        2.08629         23.0813         4.32936          32.947 
        2.09857         22.8164         4.26782          32.736 
        2.11081         22.5595         4.20772         32.4993 
        2.12309         22.3961         4.14863         32.2686 
        2.13538         22.0508          4.0906         32.0706 
        2.14763         21.9231         4.03387         31.8364 
        2.15986         21.6569         3.97835         31.6101 
        2.17214         21.4445         3.92365         31.4135 
        2.18443         21.2339         3.86992         31.1649 
        2.19671          20.969         3.81727         30.9551 
        2.20898         20.7831         3.76566         30.7332 
        2.22126          20.661         3.71495         30.5369 
        2.23354         20.4609         3.66519         30.3506 
         2.2458          20.268         3.61643         30.1526 
        2.25807         19.9676         3.56851         29.9108 
        2.27035         19.7767         3.52142         29.7339 
        2.28263         19.6255          3.4752         29.5403 
         2.2949         19.4516         3.42984         29.3474 
        2.30718         19.2636         3.38527          29.141 
        2.31946         19.1324         3.34147         28.9446 
        2.33169         18.8948         3.29864         28.7548 
        2.34393          18.719         3.25649         28.5802 
        2.35622         18.5317         3.21494         28.3964 
        2.36847         18.3246         3.17424         28.1879 
        2.38076         18.1716         3.13412         28.0338 
        2.39305         18.0169          3.0947         27.8536 
        2.40534         17.8281         3.05596         27.6325 
        2.41762         17.6457         3.01789         27.5027 
        2.42989         17.5291         2.98052         27.2825 
        2.44216         17.2984         2.94379         27.1301 
         2.4544          17.287         2.90776         26.9407 
        2.46667         17.0531         2.87226         26.7782 
        2.47897         16.8428         2.83726         26.5954 
        2.49124         16.7748         2.80294         26.4279 
        2.50349         16.5484         2.76924         26.2516 
        2.51578         16.4486         2.73599         26.1112 
        2.52805         16.2857         2.70335         25.9353 
        2.54029         16.1556         2.67132          25.771 
        2.55257         16.0463         2.63972         25.6027 
        2.56487          15.854         2.60856         25.4524 
        2.57716         15.7481         2.57795         25.2714 
        2.58942         15.6584         2.54791         25.1386 
        2.60167         15.4285         2.51837         24.9769 
        2.61395         15.3696         2.48925         24.8203 
        2.62624         15.2775         2.46055         24.6577 
        2.63849         15.1044          2.4324         24.5302 
        2.65073         14.9747         2.40472         24.3631 
        2.66302           14.88         2.37737          24.227 
         2.6753          14.817         2.35046         24.0689 
        2.68756         14.6679         2.32402         23.9323 
        2.69983         14.5368         2.29798          23.771 
        2.71213         14.4079         2.27227         23.6155 
        2.72441         14.3251         2.24701         23.4796 
        2.73665         14.2137         2.22219         23.3396 
         2.7489         14.1725         2.19776         23.1967 
        2.76118         14.0191         2.17362         23.0591 
        2.77349         13.9387         2.14979         22.9229 
        2.78576         13.8337         2.12641         22.7944 
        2.79802         13.7697         2.10339         22.6449 
        2.81031         13.6731         2.08065         22.5044 
        2.82259         13.5372         2.05826         22.3854 
        2.83483         13.5332         2.03629         22.2513 
         2.8471         13.4564         2.01459         22.1047 
         2.8594         13.3457         1.99315         21.9671 
         2.8717         13.2895         1.97202         21.8468 
        2.88396         13.2063         1.95128         21.7148 
        2.89619         13.1766         1.93087          21.584 
        2.90847         13.0802         1.91068         21.4722 
        2.92072         13.0384         1.89081         21.3214 
        2.93299         12.9326         1.87121         21.2131 
        2.94526         12.8889         1.85188         21.0977 
        2.95753           12.86         1.83282         20.9632 
        2.96982           12.79           1.814         20.8421 
        2.98209          12.757         1.79548         20.7242 
        2.99436         12.7056         1.77721         20.5955 
        3.00666          12.687         1.75915         20.4739 
        3.01894         12.6329         1.74139         20.3706 
        3.03119         12.6157         1.72389         20.2503 
        3.04345         12.5388         1.70664         20.1217 
        3.05573         12.5373         1.68958         20.0089 
          3.068         12.4913         1.67278         19.9009 
        3.08026         12.4879         1.65622         19.7732 
        3.09254          12.436         1.63986         19.6671 
        3.10483         12.4522         1.62371         19.5649 
         3.1171         12.4823          1.6078         19.4497 
        3.12933         12.4412         1.59215         19.3372 
        3.14159         12.3958         1.57668         19.2204 
