# k  (h/Mpc)    Pcb(k)  (Mpc/h)^3    Pcb_linear(k) (Mpc/h)^3    Pcb_NL(k) (Mpc/h)^3   ShotnoiseSubtracted = false
      0.0156606         17678.1         17758.4         17629.5 
      0.0273761         15185.4         15354.7         15213.1 
      0.0384619         11499.4         11568.2         11446.9 
      0.0498308         8900.71          9099.2         8978.66 
      0.0625568         7517.81          7733.2         7624.43 
      0.0751274         6674.61         6570.19         6415.95 
      0.0867833          5184.3         5289.73         5243.62 
      0.0984825          4354.3         4186.14         4232.53 
       0.111151         3711.37         3495.34         3550.13 
       0.123864         3327.99         3150.01          3194.8 
       0.135742         3025.53         2832.64         2877.96 
        0.14762         2624.23         2422.05         2542.23 
       0.160083         2213.61         2018.91         2164.82 
       0.172465         1974.57         1762.13         1947.13 
       0.184281         1799.53         1624.47         1811.86 
       0.196406         1681.66         1500.19         1665.36 
       0.209011         1564.98         1334.79         1507.08 
       0.221538         1411.51         1166.48         1399.72 
       0.233611         1340.68         1043.69         1306.01 
       0.245665         1221.35          963.29         1204.01 
       0.258103         1193.19          896.74         1135.29 
       0.270422         1068.55             824         1063.72 
       0.282519         1001.25         747.826         1001.58 
       0.294636         989.212         681.353         946.009 
       0.306978         895.474         630.365         904.151 
       0.319417         871.787         589.355         851.702 
        0.33169         821.243           550.1         804.543 
       0.343948         784.859         509.699         777.998 
       0.356249         740.468         471.811         747.478 
       0.368458         716.077         440.076         710.926 
        0.38068         697.428         413.537         682.137 
       0.392856         659.621         389.311         656.609 
       0.405069         629.418         365.622         636.301 
       0.417459         604.754         342.686         609.711 
       0.429752         594.268         322.096         588.049 
       0.441978         574.137         304.025         572.061 
       0.454294         545.915         287.614          547.87 
        0.46658         532.805         272.217         535.553 
       0.478753         519.463         257.691         518.279 
       0.490964         499.942         244.047         501.788 
       0.503334         475.016         231.453         489.393 
       0.515665         474.045         219.969         478.761 
       0.527909         455.938         209.368         466.688 
       0.540159         444.472         199.338         453.925 
        0.55248         435.822         189.821         441.802 
       0.564743          431.33         181.009         433.948 
        0.57686         414.859         172.909           421.8 
       0.589077         402.872         165.264         412.369 
       0.601441         397.655         157.994          403.52 
        0.61382         388.852          151.14         396.221 
       0.626067         383.431         144.743         387.983 
       0.638306         367.952          138.72         380.504 
       0.650632         363.129         133.013         370.138 
       0.662899         360.005         127.666         365.753 
       0.675076         346.362         122.654         359.473 
       0.687267         337.715         117.905         350.958 
       0.699615         333.609         113.348         345.222 
       0.711937         328.631          109.04         339.005 
       0.724148         317.878         104.993         333.998 
       0.736433         310.813         101.131         327.512 
       0.748747         306.476         97.4576         321.448 
       0.761037         300.747         93.9754         316.829 
       0.773197         297.173         90.6995         312.284 
       0.785376         292.637          87.576         307.139 
       0.797761         285.204         84.5513         302.339 
       0.810096         282.559         81.6814         298.353 
       0.822371         272.417         78.9587         293.418 
       0.834626         271.497         76.3652         289.358 
       0.846916         265.605         73.8819         285.044 
       0.859215         265.573         71.5083         280.967 
       0.871383         258.487         69.2631         276.871 
        0.88363          256.96         67.1014         274.017 
       0.895928         251.299         65.0243         269.657 
       0.908253         244.743         63.0316          265.32 
       0.920535         243.226         61.1296          261.84 
       0.932774         236.346          59.313          258.21 
        0.94508         233.877         57.5614         255.519 
       0.957324         233.092         55.8895         251.845 
        0.96953         229.736         54.2894         248.449 
       0.981769         222.909         52.7483         246.009 
       0.994071         222.037         51.2599         242.857 
         1.0064          217.19         49.8266         239.239 
        1.01868         214.372         48.4526         236.351 
        1.03092         209.629         47.1368         234.023 
         1.0432         206.042         45.8653         231.156 
        1.05553         203.339          44.636         228.183 
        1.06777         202.887         43.4609         225.845 
           1.08         197.887         42.3294          223.07 
        1.09227         195.518         41.2347         220.578 
         1.1046         192.674         40.1748         218.309 
         1.1169         188.928         39.1542         215.314 
        1.12915         186.297         38.1742         213.367 
        1.14142          183.35         37.2259         210.608 
        1.15365         180.828         36.3127         208.392 
        1.16585         178.241         35.4327         205.737 
        1.17807         175.988         34.5809         204.095 
        1.19037         174.353         33.7516          202.11 
        1.20276         171.703          32.944          199.56 
        1.21504         168.357         32.1693         197.411 
        1.22728         165.254         31.4227         194.886 
        1.23954         164.765         30.6982         193.484 
        1.25184         161.654         29.9952         191.276 
        1.26414         158.988          29.314         189.299 
        1.27632         158.433         28.6601         188.024 
         1.2886         156.354         28.0216         185.538 
        1.30093         151.826         27.4004         183.485 
        1.31316         150.194         26.8026         181.411 
        1.32541         148.641         26.2226         179.999 
        1.33772         147.252         25.6565          178.08 
        1.35005         144.972         25.1069          176.08 
        1.36225         142.959          24.579         174.487 
        1.37447         140.866         24.0652         172.422 
        1.38676         139.172         23.5639         170.896 
        1.39907         136.709          23.076         169.132 
        1.41133         134.731         22.6041         167.646 
        1.42358         132.909         22.1459         166.072 
        1.43591         131.469         21.6973         164.256 
        1.44818         130.009         21.2635         162.817 
        1.46037         127.802         20.8443          161.12 
        1.47263          126.51          20.434         159.879 
        1.48494         124.535         20.0333         157.981 
        1.49724         122.873         19.6436         156.604 
        1.50952         120.631         19.2651         155.127 
        1.52178         120.158         18.8971           153.5 
        1.53409         117.708         18.5373         152.236 
        1.54637         116.292         18.1877         150.936 
        1.55858         114.224          17.849         149.348 
        1.57081          112.77         17.5185         148.088 
        1.58313         111.424         17.1944         146.609 
        1.59544         110.032         16.8786         145.342 
        1.60767         108.749         16.5728         143.946 
        1.61994         106.901         16.2735         142.883 
        1.63225         105.593          15.981         141.212 
        1.64452         103.686         15.6965         139.962 
        1.65676          102.21         15.4199         138.824 
          1.669         101.631         15.1497         137.678 
        1.68133         99.5498         14.8843         136.392 
        1.69363         98.5932          14.626         135.199 
        1.70585         96.7983         14.3755         133.982 
        1.71809         95.6285         14.1304         132.661 
        1.73038         94.9129         13.8902         131.565 
        1.74268         93.6284         13.6555         130.353 
        1.75493         92.0541         13.4272         129.202 
        1.76714         90.7938         13.2048         128.167 
        1.77942         89.7419         12.9863         126.894 
        1.79173         88.3866         12.7722         125.909 
        1.80402         87.7213         12.5634         124.836 
         1.8163         85.9978         12.3593         123.631 
         1.8286         84.8249         12.1595         122.586 
         1.8409         84.1742         11.9642         121.509 
        1.85315          82.824         11.7739         120.544 
        1.86537         81.8467         11.5881         119.528 
        1.87765         81.1422         11.4056         118.459 
        1.88995         79.7865         11.2266         117.498 
        1.90221         78.7469         11.0521         116.487 
        1.91445         77.5607         10.8816         115.438 
        1.92674         76.3949         10.7141         114.504 
        1.93902         75.4785         10.5501         113.475 
        1.95124         74.7983         10.3904         112.593 
         1.9635          73.656         10.2336         111.515 
        1.97583          72.593         10.0791         110.718 
        1.98812          71.667         9.92834         109.769 
        2.00039         70.6838         9.78097         108.834 
        2.01264         70.0838         9.63673         107.921 
        2.02492         69.0721          9.4952         107.019 
        2.03717         67.9357         9.35675         106.085 
        2.04942         67.6316         9.22124         105.331 
        2.06171         66.1564         9.08795          104.41 
        2.07397         65.4582         8.95759         103.596 
        2.08629         64.7299         8.82925         102.691 
        2.09857         63.7454         8.70373          101.88 
        2.11081         62.7729         8.58116         100.947 
        2.12309         62.2247         8.46067         100.265 
        2.13538         61.3285         8.34231         99.4025 
        2.14763         60.5039         8.22662         98.6061 
        2.15986         59.4118         8.11339         97.7808 
        2.17214         59.0026         8.00183         96.9728 
        2.18443         58.2945         7.89227         96.3272 
        2.19671         57.2455         7.78489         95.4991 
        2.20898         57.0264         7.67963         94.7158 
        2.22126         56.1201         7.57621         93.9371 
        2.23354         55.4018         7.47474         93.2333 
         2.2458         54.6858         7.37529         92.5248 
        2.25807         53.9594         7.27757         91.7378 
        2.27035         53.4317         7.18153         91.0049 
        2.28263         52.5819         7.08728         90.2845 
         2.2949         52.1408         6.99476         89.5845 
        2.30718         51.1503         6.90388         88.9194 
        2.31946         50.7405         6.81455         88.2162 
        2.33169         49.9535          6.7272         87.5352 
        2.34393         49.2945         6.64125         86.8758 
        2.35622         48.8819         6.55652         86.1935 
        2.36847          48.294          6.4735         85.6027 
        2.38076         47.5324         6.39168         84.8497 
        2.39305         46.9961         6.31129         84.2596 
        2.40534         46.5106         6.23228         83.5674 
        2.41762         46.0089         6.15464          82.888 
        2.42989         45.4636         6.07843         82.3397 
        2.44216         44.9576         6.00353         81.6759 
         2.4544         44.3957         5.93006         81.0515 
        2.46667         43.9035         5.85764         80.4131 
        2.47897         43.4105         5.78627         79.8206 
        2.49124         42.8261         5.71628         79.2457 
        2.50349         42.4074         5.64756         78.6196 
        2.51578         41.8159         5.57975         78.1106 
        2.52805         41.4257         5.51318         77.4825 
        2.54029         40.9474         5.44786         76.8627 
        2.55257         40.3401          5.3834         76.3363 
        2.56487         40.0187         5.31987         75.8076 
        2.57716         39.5013         5.25745         75.2611 
        2.58942         38.9797         5.19617         74.6827 
        2.60167         38.6499         5.13592         74.1367 
        2.61395         38.1279         5.07654         73.6006 
        2.62624         37.9135         5.01802         73.0289 
        2.63849         37.4738         4.96061         72.5218 
        2.65073         37.0888         4.90415         71.9774 
        2.66302         36.5554         4.84837         71.4517 
         2.6753         36.1402          4.7935         70.9484 
        2.68756         35.7147         4.73959         70.4091 
        2.69983         35.4774         4.68646         69.9489 
        2.71213          35.106         4.63405         69.4634 
        2.72441         34.7338         4.58252         68.9483 
        2.73665         34.2904         4.53191         68.4485 
         2.7489          34.214         4.48208         67.9685 
        2.76118         33.6834         4.43286         67.5023 
        2.77349          33.492         4.38425          67.018 
        2.78576         33.2264         4.33657         66.5213 
        2.79802         32.7806         4.28962         66.1082 
        2.81031          32.439         4.24326         65.6273 
        2.82259         32.3523          4.1976         65.1437 
        2.83483         31.9173         4.15278         64.7172 
         2.8471          31.567         4.10853         64.2715 
         2.8594         31.4293         4.06479          63.811 
         2.8717         31.1918         4.02171         63.3783 
        2.88396         30.8721         3.97941         62.9271 
        2.89619         30.6645         3.93779         62.4686 
        2.90847         30.4302         3.89661         62.0521 
        2.92072          30.177         3.85609         61.6385 
        2.93299         30.0022         3.81613          61.215 
        2.94526          29.737          3.7767         60.8107 
        2.95753         29.5719         3.73783         60.3986 
        2.96982         29.4729         3.69945         59.9848 
        2.98209          29.159         3.66168         59.5856 
        2.99436         29.0115         3.62441         59.1611 
        3.00666         28.8928          3.5876         58.7767 
        3.01894         28.6662         3.55136         58.3675 
        3.03119         28.5336         3.51568         57.9871 
        3.04345         28.3561         3.48049         57.6243 
        3.05573         28.2496         3.44571         57.2414 
          3.068         28.1959         3.41144          56.856 
        3.08026          28.002         3.37767         56.4733 
        3.09254         27.8918          3.3443         56.1004 
        3.10483         27.9001         3.31137         55.7396 
         3.1171         27.7484         3.27893         55.3761 
        3.12933         27.7139         3.24701         55.0031 
        3.14159         27.5686         3.21545         54.6345 
