# k  (h/Mpc)    Pcb(k)  (Mpc/h)^3    Pcb_linear(k) (Mpc/h)^3    Pcb_NL(k) (Mpc/h)^3   ShotnoiseSubtracted = false
      0.0156606         4139.56         4143.96         4122.61 
      0.0273761         3590.87         3585.31         3573.19 
      0.0384619         2728.65         2701.94         2696.19 
      0.0498308         2134.95         2125.62         2121.45 
      0.0625568         1801.33         1806.71         1801.55 
      0.0751274         1565.95         1535.09         1526.46 
      0.0867833         1237.64         1235.97         1234.54 
      0.0984825         1008.32         978.136         983.144 
       0.111151         846.223         816.743         821.715 
       0.123864         760.252         736.062         740.081 
       0.135742         683.966          661.91         665.993 
        0.14762         582.039         565.971         575.567 
       0.160083         483.188         471.772         482.658 
       0.172465          427.16         411.769         424.972 
       0.184281         395.907         379.604          393.63 
       0.196406         361.072         350.564         361.532 
       0.209011         326.831         311.914         324.199 
       0.221538         291.517         272.584         289.756 
       0.233611         264.103         243.892         263.026 
       0.245665         248.112         225.104          242.16 
       0.258103         224.543         209.553         226.545 
       0.270422         210.347         192.555         209.177 
       0.282519          191.08         174.754         192.366 
       0.294636          184.28         159.221         177.803 
       0.306978         162.644         147.306         166.564 
       0.319417         155.497         137.723         156.296 
        0.33169         144.758          128.55         146.498 
       0.343948         137.901         119.109         137.582 
       0.356249         127.105         110.255         130.108 
       0.368458         121.795         102.839         121.462 
        0.38068         114.703         96.6372         115.068 
       0.392856         107.003          90.976         109.529 
       0.405069         101.521         85.4404         103.723 
       0.417459         95.8081         80.0805         98.1798 
       0.429752         91.9372          75.269         93.4737 
       0.441978         87.7989         71.0461         89.7911 
       0.454294         81.6617         67.2112         85.0401 
        0.46658         81.4673         63.6131         81.4818 
       0.478753         75.8277         60.2187         78.1281 
       0.490964         73.4306         57.0303         74.9916 
       0.503334         70.3599         54.0873         71.7897 
       0.515665         67.3513         51.4036         69.6012 
       0.527909         64.6238         48.9262          66.018 
       0.540159         62.2211         46.5824         63.7616 
        0.55248         58.5869         44.3584         61.2493 
       0.564743          57.594         42.2991         59.3167 
        0.57686         55.7848         40.4065         57.2138 
       0.589077         52.7771         38.6198         55.4968 
       0.601441         51.2095          36.921         53.6527 
        0.61382          49.614         35.3192         51.6738 
       0.626067         47.5738         33.8245         50.2314 
       0.638306         46.1344          32.417         48.5416 
       0.650632         44.7003         31.0834         46.9292 
       0.662899         43.3831         29.8337         45.4802 
       0.675076         41.5199         28.6625         44.1665 
       0.687267         40.9967         27.5528          42.867 
       0.699615         39.5243         26.4879         41.8468 
       0.711937         37.7791         25.4812         40.4275 
       0.724148         37.6046         24.5354         39.6195 
       0.736433         35.4863         23.6329          38.428 
       0.748747         35.0146         22.7745         37.4138 
       0.761037         34.0503         21.9608         36.5256 
       0.773197         33.1593         21.1952         35.7146 
       0.785376         31.9112         20.4653         34.7917 
       0.797761         31.4306         19.7585         34.0179 
       0.810096         30.7014         19.0878         33.1772 
       0.822371         29.9194         18.4516          32.314 
       0.834626         29.0399         17.8455         31.7309 
       0.846916         28.2769         17.2652          30.959 
       0.859215         27.3373         16.7105         30.2704 
       0.871383         26.9363         16.1858         29.6959 
        0.88363         26.2535         15.6807         29.1039 
       0.895928         25.6831         15.1953         28.3909 
       0.908253         25.1382         14.7296         27.9153 
       0.920535         24.5615         14.2851         27.3084 
       0.932774         24.1602         13.8606         26.7371 
        0.94508         23.5458         13.4513          26.202 
       0.957324         23.0893         13.0606         25.7341 
        0.96953         22.4563         12.6867         25.2089 
       0.981769         22.1693         12.3265         24.8055 
       0.994071          21.587         11.9787         24.3134 
         1.0064         21.0702         11.6438         23.8961 
        1.01868          20.645         11.3227         23.4976 
        1.03092         20.4657         11.0152         23.0528 
         1.0432          19.821         10.7181         22.6078 
        1.05553         19.4863         10.4308         22.3573 
        1.06777         18.9405         10.1562         21.8673 
           1.08         18.5825          9.8918         21.5292 
        1.09227         18.2822         9.63599         21.2312 
         1.1046         18.0136         9.38831         20.8305 
         1.1169         17.6223         9.14981         20.5013 
        1.12915         17.4891          8.9208         20.2172 
        1.14142          16.882         8.69919         19.8768 
        1.15365         16.7615         8.48579         19.5804 
        1.16585         16.5543         8.28014         19.3223 
        1.17807         16.0934         8.08109         18.9584 
        1.19037         15.9227         7.88729         18.7643 
        1.20276         15.6415         7.69856         18.4566 
        1.21504         15.3803         7.51752         18.2299 
        1.22728         15.0267         7.34306         17.9456 
        1.23954         14.8281         7.17375         17.6937 
        1.25184         14.5565         7.00948         17.4644 
        1.26414         14.3598         6.85029         17.1972 
        1.27632         14.0907         6.69748         16.9659 
         1.2886         13.9404         6.54828         16.7605 
        1.30093         13.6216         6.40311         16.5905 
        1.31316         13.4478         6.26341         16.3262 
        1.32541         13.2591         6.12786         16.1667 
        1.33772         13.0114         5.99559         15.9369 
        1.35005         12.8577         5.86714         15.7574 
        1.36225         12.6513         5.74377          15.541 
        1.37447         12.4201         5.62372         15.3531 
        1.38676         12.2474         5.50657         15.1849 
        1.39907         12.0442         5.39256         14.9956 
        1.41133         11.8777         5.28228         14.8226 
        1.42358         11.6909          5.1752         14.6323 
        1.43591          11.542         5.07036         14.5015 
        1.44818         11.3372           4.969          14.336 
        1.46037         11.2528         4.87103          14.144 
        1.47263         11.0438         4.77515         14.0231 
        1.48494         10.9569          4.6815         13.8257 
        1.49724         10.7499         4.59044         13.7096 
        1.50952          10.667         4.50199          13.566 
        1.52178         10.4823         4.41601         13.4011 
        1.53409         10.2875         4.33193         13.2604 
        1.54637         10.2417         4.25021          13.094 
        1.55858         10.1106         4.17108         12.9793 
        1.57081         9.88731         4.09384         12.8607 
        1.58313         9.82711         4.01809         12.7273 
        1.59544         9.64106          3.9443         12.6081 
        1.60767         9.54457         3.87284          12.467 
        1.61994          9.3909          3.8029         12.3587 
        1.63225         9.30837         3.73455          12.244 
        1.64452         9.18138         3.66807           12.13 
        1.65676         9.05417         3.60342         12.0026 
          1.669         8.98644         3.54028          11.881 
        1.68133         8.80095         3.47825         11.7666 
        1.69363          8.7045          3.4179         11.6549 
        1.70585         8.59787         3.35936         11.5634 
        1.71809         8.50348         3.30208         11.4546 
        1.73038         8.42625         3.24595         11.3602 
        1.74268         8.31754          3.1911         11.2515 
        1.75493         8.18272         3.13777         11.1334 
        1.76714         8.17417         3.08579         11.0532 
        1.77942         8.05396         3.03473         10.9376 
        1.79173         7.91679         2.98469         10.8523 
        1.80402          7.8718         2.93589         10.7608 
         1.8163         7.76964         2.88821         10.6749 
         1.8286         7.64718          2.8415         10.5842 
         1.8409         7.57516         2.79587         10.5001 
        1.85315         7.48579         2.75139            10.4 
        1.86537         7.42827         2.70797         10.3194 
        1.87765         7.34758         2.66533         10.2339 
        1.88995         7.21281          2.6235         10.1559 
        1.90221         7.18441         2.58272         10.0564 
        1.91445         7.08586         2.54287         9.99821 
        1.92674         7.01291         2.50373         9.90251 
        1.93902            6.96         2.46541         9.83714 
        1.95124         6.86548          2.4281         9.74487 
         1.9635         6.80376         2.39146          9.6795 
        1.97583         6.74722         2.35535         9.59295 
        1.98812         6.67426         2.32012         9.50752 
        2.00039         6.59603         2.28568         9.45741 
        2.01264         6.53864         2.25197          9.3852 
        2.02492         6.47874          2.2189         9.30505 
        2.03717         6.39609         2.18655         9.23748 
        2.04942         6.31058         2.15488          9.1748 
        2.06171         6.28716         2.12373         9.10731 
        2.07397         6.21164         2.09327         9.04082 
        2.08629         6.14752         2.06328          8.9785 
        2.09857         6.08476         2.03394         8.90854 
        2.11081         6.04236          2.0053         8.85681 
        2.12309         5.96616         1.97714         8.77385 
        2.13538         5.91588         1.94949         8.72366 
        2.14763         5.84899         1.92245         8.66169 
        2.15986          5.8138         1.89599         8.60182 
        2.17214         5.75888         1.86992         8.53093 
        2.18443         5.69839         1.84432         8.47999 
        2.19671         5.65002         1.81922         8.42359 
        2.20898         5.58211         1.79463         8.36665 
        2.22126         5.53949         1.77046         8.30514 
        2.23354         5.49728         1.74675         8.24321 
         2.2458         5.43752         1.72351         8.19115 
        2.25807         5.39968         1.70067         8.13709 
        2.27035         5.34999         1.67823          8.0864 
        2.28263         5.31049          1.6562            8.03 
         2.2949         5.25791         1.63458         7.98284 
        2.30718         5.21296         1.61334         7.94107 
        2.31946         5.18092         1.59247         7.88645 
        2.33169         5.12462         1.57206         7.83159 
        2.34393         5.10075         1.55197         7.78014 
        2.35622         5.06067         1.53217         7.73036 
        2.36847         5.01477         1.51277         7.68127 
        2.38076         4.97721         1.49365         7.63308 
        2.39305         4.91913         1.47486         7.57784 
        2.40534         4.89264          1.4564         7.53039 
        2.41762         4.84076         1.43826         7.49376 
        2.42989         4.82343         1.42045         7.45005 
        2.44216         4.79309         1.40294         7.40089 
         2.4544         4.73782         1.38577         7.35287 
        2.46667         4.72561         1.36885         7.30934 
        2.47897         4.67899         1.35217         7.26072 
        2.49124          4.6337         1.33582         7.21732 
        2.50349         4.61615         1.31976         7.18323 
        2.51578          4.5612         1.30391         7.13967 
        2.52805         4.54231         1.28836         7.09631 
        2.54029         4.50868         1.27309         7.05498 
        2.55257         4.49748         1.25803         7.01636 
        2.56487         4.45092         1.24318         6.96726 
        2.57716         4.42738         1.22859         6.92989 
        2.58942         4.39218         1.21427          6.8906 
        2.60167         4.36748          1.2002         6.84873 
        2.61395         4.31969         1.18632         6.81243 
        2.62624         4.32584         1.17264         6.77519 
        2.63849         4.29356         1.15923         6.73386 
        2.65073         4.25928         1.14603         6.69269 
        2.66302         4.24321           1.133         6.65476 
         2.6753         4.21014         1.12018         6.61866 
        2.68756         4.18453         1.10758         6.58623 
        2.69983           4.166         1.09516         6.54389 
        2.71213         4.14147         1.08291         6.50765 
        2.72441          4.1181         1.07087         6.47367 
        2.73665         4.10291         1.05905         6.43523 
         2.7489         4.07383          1.0474         6.40346 
        2.76118         4.04835          1.0359         6.37583 
        2.77349         4.04256         1.02454         6.33383 
        2.78576         4.02257          1.0134         6.29996 
        2.79802         4.00827         1.00243         6.26835 
        2.81031         3.98056        0.991592         6.23609 
        2.82259         3.96648        0.980922         6.20273 
        2.83483         3.96187        0.970449         6.16906 
         2.8471          3.9423        0.960109         6.13761 
         2.8594         3.93081        0.949888         6.10687 
         2.8717         3.90494        0.939819         6.07056 
        2.88396         3.90177        0.929934         6.03928 
        2.89619          3.8692        0.920209         6.01186 
        2.90847         3.86719        0.910586         5.97575 
        2.92072          3.8692        0.901117         5.94568 
        2.93299         3.86241        0.891778         5.91725 
        2.94526         3.85461        0.882563         5.88523 
        2.95753          3.8366        0.873481         5.85464 
        2.96982         3.81473        0.864511         5.82627 
        2.98209         3.81838        0.855686         5.79506 
        2.99436         3.81134        0.846976         5.76583 
        3.00666         3.81943        0.838373         5.73886 
        3.01894         3.80895        0.829906         5.70484 
        3.03119         3.80962        0.821568         5.67817 
        3.04345         3.79873        0.813344         5.65192 
        3.05573         3.80189        0.805216         5.62122 
          3.068         3.78916        0.797208         5.59646 
        3.08026         3.80552        0.789317         5.56984 
        3.09254         3.80676        0.781518         5.54084 
        3.10483         3.80956        0.773823         5.51538 
         3.1171         3.81545        0.766242            5.49 
        3.12933         3.82636        0.758784         5.46016 
        3.14159         3.81828        0.751409         5.43203 
