# k  (h/Mpc)    P(k)  (Mpc/h)^3    P_linear(k)  (Mpc/h)^3     P_NL(k)  ShotnoiseSubtracted = false
      0.0156606         12477.3         12665.9         12584.3 
      0.0273761           10735         10935.4         10858.6 
      0.0384619         8135.71         8232.49         8171.89 
      0.0498308         6315.15         6472.48         6414.13 
      0.0625568         5329.66         5499.08         5444.89 
      0.0751274          4704.7         4671.13         4592.68 
      0.0867833         3670.65          3760.3         3738.86 
      0.0984825         3053.68         2975.53         3003.56 
       0.111151         2588.68         2484.33         2515.22 
       0.123864         2323.49         2238.76         2264.47 
       0.135742         2104.03         2013.13         2039.44 
        0.14762         1813.25         1721.27         1789.17 
       0.160083         1516.52         1434.74         1515.01 
       0.172465         1351.43         1252.23         1352.99 
       0.184281         1241.01         1154.39         1258.23 
       0.196406         1145.78         1066.06         1153.97 
       0.209011         1057.13         948.507         1041.82 
       0.221538         953.326         828.897          957.79 
       0.233611         891.268         741.641         886.551 
       0.245665         821.214         684.502         815.877 
       0.258103         781.873         637.209          767.63 
       0.270422         709.232         585.517         715.983 
       0.282519         655.782         531.387         668.588 
       0.294636         649.811          484.15          628.01 
       0.306978         580.814         447.919         597.225 
       0.319417         560.483         418.777         561.839 
        0.33169         527.736         390.882         529.085 
       0.343948         502.914         362.173         508.417 
       0.356249         471.635         335.251         486.401 
       0.368458         457.572           312.7         459.687 
        0.38068          439.31         293.844         439.307 
       0.392856         412.665         276.629         421.439 
       0.405069         396.116         259.795         407.454 
       0.417459         379.038         243.498         387.052 
       0.429752         367.144         228.868         372.739 
       0.441978         355.197         216.026         361.477 
       0.454294         334.025         204.366         345.132 
        0.46658         330.697         193.425         335.868 
       0.478753         317.718         183.103         324.167 
       0.490964         306.843         173.407          312.96 
       0.503334         289.552          164.46         304.117 
       0.515665         287.144         156.299         297.235 
       0.527909         277.957         148.766         287.565 
       0.540159         270.421         141.639         279.335 
        0.55248         265.094         134.876         271.167 
       0.564743         259.032         128.615         265.492 
        0.57686          249.55          122.86         257.334 
       0.589077         239.886         117.428         251.757 
       0.601441         236.694         112.262         245.728 
        0.61382         233.907         107.392         240.082 
       0.626067         228.407         102.847         234.493 
       0.638306         217.914         98.5671         229.861 
       0.650632         212.718         94.5122         222.723 
       0.662899         212.154         90.7123         219.206 
       0.675076         204.321         87.1512         214.448 
       0.687267         199.129         83.7768         209.714 
       0.699615         195.489         80.5389         205.653 
       0.711937         191.222          77.478         201.678 
       0.724148         187.195         74.6021          198.68 
       0.736433         182.951          71.858         194.244 
       0.748747         179.102         69.2478         190.351 
       0.761037         176.414         66.7736         186.686 
       0.773197         173.022         64.4459         184.482 
       0.785376         171.084         62.2265         180.505 
       0.797761         167.261         60.0773         178.178 
       0.810096         163.895         58.0381         174.955 
       0.822371         158.286         56.1035         172.031 
       0.834626         156.849         54.2607         169.151 
       0.846916         154.825         52.4962         166.655 
       0.859215         153.313         50.8096         164.024 
       0.871383         149.894         49.2143         161.292 
        0.88363          147.53         47.6784         159.481 
       0.895928         144.509         46.2025          157.18 
       0.908253         140.623         44.7866         154.331 
       0.920535         140.058         43.4351         152.351 
       0.932774         135.706         42.1443         149.914 
        0.94508         134.708         40.8998          148.15 
       0.957324         133.614         39.7118         145.964 
        0.96953         132.559         38.5749         143.646 
       0.981769         128.408         37.4798          142.36 
       0.994071          127.71         36.4222         140.372 
         1.0064         124.591         35.4039         138.271 
        1.01868         123.322         34.4276          136.74 
        1.03092          121.28         33.4926          135.11 
         1.0432         119.136         32.5892         133.352 
        1.05553         116.608         31.7157         131.964 
        1.06777         116.403         30.8807         130.513 
           1.08         114.015         30.0768         128.762 
        1.09227         112.612         29.2989         127.377 
         1.1046          110.66         28.5458         125.799 
         1.1169         109.372         27.8207         124.102 
        1.12915         107.694         27.1244         122.806 
        1.14142         106.033         26.4505          121.25 
        1.15365         104.164         25.8017         119.929 
        1.16585         102.886         25.1764         118.464 
        1.17807         101.267         24.5711         117.519 
        1.19037         101.041         23.9819         116.269 
        1.20276          98.815          23.408         114.868 
        1.21504         98.0411         22.8576         113.552 
        1.22728         95.9604         22.3271         112.347 
        1.23954         95.2711         21.8123         111.167 
        1.25184         93.2888         21.3128         110.047 
        1.26414         92.2054         20.8288         108.937 
        1.27632          91.365         20.3642         108.282 
         1.2886         89.7762         19.9105         106.682 
        1.30093          88.336         19.4691          105.52 
        1.31316         87.6409         19.0443         104.629 
        1.32541         86.6464         18.6322         103.692 
        1.33772         85.4157           18.23         102.612 
        1.35005         84.5844         17.8394          101.55 
        1.36225         83.3687         17.4643          100.59 
        1.37447         81.5951         17.0993           99.51 
        1.38676         81.5493         16.7431         98.4211 
        1.39907         79.8513         16.3964         97.6925 
        1.41133         78.5761         16.0611          96.923 
        1.42358         77.7404         15.7355         95.7887 
        1.43591          77.183         15.4168         94.8625 
        1.44818         76.1378         15.1086         93.9883 
        1.46037         75.0609         14.8107         93.1912 
        1.47263         73.8621         14.5192         92.4483 
        1.48494         73.2935         14.2344         91.5133 
        1.49724          72.038         13.9575         90.5506 
        1.50952         71.3513         13.6886         89.7237 
        1.52178         70.4718         13.4272         89.0076 
        1.53409         69.9104         13.1715         88.2321 
        1.54637         68.1924         12.9231         87.3803 
        1.55858         67.6012         12.6824         86.5601 
        1.57081         66.9488         12.4476          85.883 
        1.58313         65.9002         12.2173          85.153 
        1.59544         65.1384         11.9929         84.3322 
        1.60767         64.4605         11.7756         83.6139 
        1.61994         63.5548          11.563         83.0414 
        1.63225         62.6426         11.3551         82.0872 
        1.64452         61.9723          11.153         81.5007 
        1.65676         61.0387         10.9564         80.7416 
          1.669         60.6371         10.7644         80.1026 
        1.68133         59.9905         10.5759          79.373 
        1.69363          58.962         10.3923         78.8061 
        1.70585         58.5776         10.2144         78.0881 
        1.71809         57.3332         10.0402         77.5276 
        1.73038         56.8252         9.86953         76.7876 
        1.74268         56.0809         9.70275         76.1801 
        1.75493         55.5073         9.54058         75.5125 
        1.76714         54.8058         9.38255         74.8666 
        1.77942         54.4953         9.22729          74.274 
        1.79173         53.5281         9.07515         73.5928 
        1.80402         53.0095         8.92676         73.0877 
         1.8163         52.3469         8.78178         72.3925 
         1.8286         51.5662         8.63977         71.9493 
         1.8409         50.8824         8.50102         71.2547 
        1.85315         50.3017         8.36579          70.822 
        1.86537         49.7627         8.23377         70.1937 
        1.87765         49.2279         8.10411         69.5258 
        1.88995         48.6068         7.97693         69.0025 
        1.90221         48.2134         7.85293         68.4464 
        1.91445         47.4588         7.73178         67.9695 
        1.92674         46.9803         7.61276         67.3921 
        1.93902         46.4285         7.49624         66.8223 
        1.95124         46.0399         7.38278         66.4024 
         1.9635         45.2071         7.27138         65.7904 
        1.97583         44.7957         7.16158         65.3615 
        1.98812         44.0979         7.05447          64.787 
        2.00039         43.8346         6.94976         64.2728 
        2.01264         43.0954         6.84727         63.8133 
        2.02492         42.7218         6.74671         63.3345 
        2.03717          42.105         6.64833         62.7859 
        2.04942         41.6066         6.55205         62.3509 
        2.06171         41.1926         6.45734         61.7989 
        2.07397         40.5948         6.36472         61.3969 
        2.08629         40.1776         6.27352         60.8755 
        2.09857         39.8561         6.18434         60.4724 
        2.11081         39.2079         6.09725         59.9571 
        2.12309         38.8409         6.01163         59.5089 
        2.13538         38.3736         5.92754         59.0929 
        2.14763          38.029         5.84533         58.6427 
        2.15986         37.8111         5.76488         58.1767 
        2.17214          37.067         5.68561         57.8256 
        2.18443         36.8703         5.60776          57.312 
        2.19671         36.2334         5.53146         56.8722 
        2.20898         35.7963         5.45668         56.4416 
        2.22126         35.5375         5.38319         56.0177 
        2.23354         35.0783         5.31109         55.6644 
         2.2458         34.7919         5.24043         55.2315 
        2.25807         34.1993         5.17099         54.7944 
        2.27035         33.8646         5.10276         54.4081 
        2.28263         33.4518         5.03579         54.0175 
         2.2949         33.1017         4.97005         53.6314 
        2.30718         32.7979         4.90547         53.2361 
        2.31946         32.3963           4.842         52.8587 
        2.33169         32.1115         4.77994         52.4502 
        2.34393         31.6376         4.71886         52.0485 
        2.35622         31.3002         4.65866         51.7149 
        2.36847         30.9402         4.59967         51.3024 
        2.38076           30.73         4.54153           50.98 
        2.39305         30.3536         4.48442         50.6165 
        2.40534         30.0505         4.42828         50.1818 
        2.41762         29.6608         4.37311         49.8423 
        2.42989         29.3548         4.31896          49.514 
        2.44216         29.0691         4.26574         49.1539 
         2.4544         28.7713         4.21353         48.8222 
        2.46667         28.3145         4.16208         48.4459 
        2.47897         28.1314         4.11137         48.1278 
        2.49124         27.8596         4.06164         47.7708 
        2.50349         27.5063         4.01281         47.4716 
        2.51578         27.1469         3.96463         47.1412 
        2.52805         26.9435         3.91733         46.7849 
        2.54029         26.7666         3.87091          46.469 
        2.55257         26.4338         3.82512         46.1495 
        2.56487         26.2199         3.77997         45.8271 
        2.57716         25.9251         3.73562         45.5125 
        2.58942          25.626         3.69208         45.2117 
        2.60167         25.3464         3.64927         44.8654 
        2.61395         25.1263         3.60708         44.5673 
        2.62624         24.8752          3.5655         44.2763 
        2.63849         24.6936          3.5247         43.9669 
        2.65073         24.4193         3.48459         43.6451 
        2.66302         24.0934         3.44496         43.3755 
         2.6753         23.9219         3.40597         43.0782 
        2.68756         23.7008         3.36766         42.7965 
        2.69983         23.5311         3.32991         42.4924 
        2.71213         23.2937         3.29267         42.2153 
        2.72441         23.1229         3.25606         41.9086 
        2.73665         22.8574          3.2201         41.6313 
         2.7489         22.6705         3.18469         41.3583 
        2.76118         22.5069         3.14972         41.0529 
        2.77349         22.3594         3.11518         40.8063 
        2.78576          22.174          3.0813         40.5338 
        2.79802         21.8681         3.04794         40.2598 
        2.81031         21.7741           3.015          40.012 
        2.82259         21.6401         2.98255         39.7334 
        2.83483         21.3985         2.95071          39.459 
         2.8471         21.3335         2.91927         39.1971 
         2.8594         21.1083         2.88819         38.9534 
         2.8717         20.9092         2.85758         38.6876 
        2.88396         20.7585         2.82752         38.4225 
        2.89619          20.703         2.79795         38.1787 
        2.90847         20.5326         2.76869         37.9237 
        2.92072          20.358          2.7399         37.6971 
        2.93299         20.3026         2.71151         37.4481 
        2.94526         20.1771         2.68349         37.2026 
        2.95753         20.0371         2.65587         36.9671 
        2.96982         19.9956          2.6286         36.7292 
        2.98209          19.815         2.60177         36.4969 
        2.99436         19.7992         2.57528         36.2638 
        3.00666          19.641         2.54913         36.0248 
        3.01894         19.5868         2.52338         35.7817 
        3.03119         19.4345         2.49803         35.5481 
        3.04345          19.414         2.47303         35.3316 
        3.05573         19.3331         2.44831         35.1122 
          3.068         19.2961         2.42396          34.874 
        3.08026         19.2812         2.39997         34.6548 
        3.09254          19.171         2.37626         34.4466 
        3.10483         19.1354         2.35286          34.234 
         3.1171         19.1082         2.32981         34.0173 
        3.12933         19.0648         2.30713         33.8011 
        3.14159         19.0265         2.28471         33.5839 
