# k  (h/Mpc)    Pcb(k)  (Mpc/h)^3    Pcb_linear(k) (Mpc/h)^3    Pcb_NL(k) (Mpc/h)^3   ShotnoiseSubtracted = false
      0.0156606         20671.6         20780.5         20620.1 
      0.0273761         17726.7         17966.4         17778.7 
      0.0384619         13408.9         13535.3         13370.2 
      0.0498308         10360.2         10646.2         10480.6 
      0.0625568         8752.13         9047.84         8899.94 
      0.0751274         7789.23         7687.04         7478.86 
      0.0867833         6037.05         6188.87         6124.91 
      0.0984825         5094.47         4897.67         4956.21 
       0.111151         4354.23         4089.45         4161.37 
       0.123864          3901.4         3685.41         3743.73 
       0.135742         3554.74         3314.09          3372.7 
        0.14762         3092.13         2833.71         2989.34 
       0.160083         2622.37         2362.05         2553.32 
       0.172465         2338.99         2061.62         2304.96 
       0.184281          2122.5         1900.57         2145.15 
       0.196406         1997.81         1755.16         1974.88 
       0.209011         1866.85         1561.65         1789.51 
       0.221538         1681.67         1364.73         1669.17 
       0.233611            1609         1221.08         1562.96 
       0.245665          1459.7         1127.01         1442.87 
       0.258103         1441.23         1049.15         1362.04 
       0.270422         1286.15         964.045         1278.95 
       0.282519         1212.79         874.925         1209.48 
       0.294636         1192.82         797.153          1145.1 
       0.306978         1087.49           737.5         1096.83 
       0.319417          1064.3          689.52         1033.98 
        0.33169         1000.99         643.593          978.73 
       0.343948          959.74         596.326         948.281 
       0.356249          908.68         551.998         912.783 
       0.368458         874.416          514.87         871.399 
        0.38068         858.432          483.82         837.832 
       0.392856         814.356         455.476         808.186 
       0.405069         773.645         427.762         782.518 
       0.417459         744.031         400.927         753.773 
       0.429752         738.129         376.838         727.412 
       0.441978         712.334         355.695         708.751 
       0.454294         680.203         336.496          679.69 
        0.46658         661.323         318.482         665.545 
       0.478753         647.942         301.487         645.133 
       0.490964         622.771         285.524         625.323 
       0.503334         595.218          270.79         611.112 
       0.515665         593.461         257.354         597.563 
       0.527909         569.269         244.951         584.446 
       0.540159         554.996         233.216         569.359 
        0.55248         544.047         222.082         554.526 
       0.564743         539.671         211.772         545.094 
        0.57686         520.727         202.296         530.552 
       0.589077         509.637         193.351         518.782 
       0.601441         499.575         184.846         508.475 
        0.61382          486.29         176.827         499.638 
       0.626067         480.679         169.343         490.054 
       0.638306          462.77         162.296         480.281 
       0.650632         458.225          155.62         468.416 
       0.662899         454.267         149.363         462.888 
       0.675076         438.576           143.5         456.161 
       0.687267         426.565         137.944         445.302 
       0.699615         423.859         132.612         438.281 
       0.711937         416.205         127.572         430.177 
       0.724148         402.346         122.837         424.228 
       0.736433         392.913         118.319          416.54 
       0.748747         387.922         114.021         409.108 
       0.761037         380.772         109.947         403.961 
       0.773197         375.632         106.114          397.58 
       0.785376         370.235          102.46         391.708 
       0.797761         359.537         98.9212         385.638 
       0.810096         356.442         95.5635         380.822 
       0.822371         345.719         92.3781          374.59 
       0.834626         343.043         89.3437         370.012 
       0.846916         336.716         86.4385         364.274 
       0.859215         334.396         83.6614         359.028 
       0.871383         326.291         81.0346           354.2 
        0.88363         323.579         78.5056         350.591 
       0.895928         317.966         76.0754         345.073 
       0.908253         309.999         73.7441         339.503 
       0.920535          305.49         71.5188         335.548 
       0.932774         299.666         69.3935         330.622 
        0.94508         295.399         67.3442         327.226 
       0.957324         293.365         65.3882         322.805 
        0.96953         289.293         63.5162         318.835 
       0.981769         281.787          61.713         315.389 
       0.994071         280.754         59.9717         311.493 
         1.0064         275.018         58.2949         306.952 
        1.01868         271.967         56.6873         303.034 
        1.03092         263.941         55.1479         300.327 
         1.0432         261.021         53.6603         296.691 
        1.05553         257.958         52.2221         292.666 
        1.06777         255.619         50.8472         289.482 
           1.08         249.579         49.5234         286.211 
        1.09227         248.061         48.2427         282.781 
         1.1046         243.684         47.0027          280.04 
         1.1169         238.101         45.8086         276.272 
        1.12915         235.045         44.6621         273.645 
        1.14142          230.65         43.5526         270.292 
        1.15365         227.864         42.4842         267.442 
        1.16585         223.842         41.4547         264.324 
        1.17807         221.535         40.4581         261.747 
        1.19037         218.443         39.4878         259.453 
        1.20276         215.398         38.5429         256.069 
        1.21504         210.778         37.6366          253.24 
        1.22728         207.534         36.7631         250.204 
        1.23954         206.495         35.9155          248.07 
        1.25184         202.031          35.093          245.38 
        1.26414         198.059          34.296         242.999 
        1.27632         196.977          33.531         240.919 
         1.2886         195.459          32.784         238.056 
        1.30093         190.287         32.0573         235.174 
        1.31316         186.518         31.3578         232.703 
        1.32541           185.4         30.6792          230.51 
        1.33772         182.815          30.017         228.268 
        1.35005         180.283         29.3739         225.704 
        1.36225          176.94         28.7562         223.602 
        1.37447          174.39         28.1552         220.857 
        1.38676         172.529         27.5687         219.223 
        1.39907          169.93         26.9979          216.66 
        1.41133         166.873         26.4458         214.502 
        1.42358          164.92         25.9097          212.48 
        1.43591         162.922         25.3848         210.439 
        1.44818         159.938         24.8774         208.346 
        1.46037         158.342         24.3869          206.13 
        1.47263         155.575         23.9069         204.353 
        1.48494         153.744          23.438         201.845 
        1.49724         151.459         22.9821         200.455 
        1.50952         148.647         22.5393         198.319 
        1.52178         147.667         22.1088         196.176 
        1.53409         144.619         21.6878         194.507 
        1.54637         142.742         21.2787         192.901 
        1.55858         140.794         20.8825         190.799 
        1.57081         138.492         20.4959         189.089 
        1.58313         136.639         20.1166          187.16 
        1.59544         134.179         19.7472         185.492 
        1.60767         133.115         19.3894          183.82 
        1.61994         130.697         19.0393         182.135 
        1.63225         128.903         18.6971         180.206 
        1.64452         126.685         18.3642         178.596 
        1.65676         124.942         18.0405         177.059 
          1.669         123.784         17.7244         175.441 
        1.68133         121.271         17.4139          173.84 
        1.69363         119.301         17.1117         172.312 
        1.70585         117.352         16.8187         170.777 
        1.71809         115.892         16.5319         168.934 
        1.73038         114.854         16.2509         167.577 
        1.74268         113.694         15.9763         165.953 
        1.75493         110.707         15.7093         164.569 
        1.76714         110.223          15.449         163.186 
        1.77942         108.104         15.1934         161.567 
        1.79173         106.395         14.9429         160.181 
        1.80402         105.387         14.6986         158.758 
         1.8163         103.191         14.4598         157.414 
         1.8286         101.917          14.226          155.93 
         1.8409         101.112         13.9975         154.479 
        1.85315         98.9387         13.7749         153.227 
        1.86537         98.1533         13.5575         151.957 
        1.87765         96.9321          13.344         150.659 
        1.88995         95.1941         13.1346         149.261 
        1.90221         93.9739         12.9304          148.06 
        1.91445         92.7637         12.7309         146.638 
        1.92674         91.2734          12.535         145.388 
        1.93902         90.0418         12.3431         144.081 
        1.95124         88.9383         12.1563         142.869 
         1.9635         87.4681         11.9729         141.609 
        1.97583         86.1332         11.7921          140.43 
        1.98812         85.0234         11.6157         139.356 
        2.00039         84.0204         11.4433         138.057 
        2.01264         82.9467         11.2745         136.923 
        2.02492         82.0528         11.1089         135.691 
        2.03717         80.6261          10.947           134.6 
        2.04942         79.9265         10.7884         133.509 
        2.06171         78.2039         10.6325         132.348 
        2.07397         77.4074           10.48         131.303 
        2.08629         76.4124         10.3298         130.161 
        2.09857         75.3472          10.183         129.112 
        2.11081         74.0516         10.0396          127.92 
        2.12309         73.0335         9.89859         126.993 
        2.13538         72.0651         9.76012         125.873 
        2.14763         71.1597         9.62477         124.869 
        2.15986         70.1444         9.49229         123.766 
        2.17214         69.3458         9.36178         122.777 
        2.18443         68.4121         9.23359          121.94 
        2.19671         67.3719         9.10796          120.89 
        2.20898         66.6953         8.98482         119.819 
        2.22126         65.6905         8.86382         118.907 
        2.23354         64.9494          8.7451         117.962 
         2.2458         63.7245         8.62875         117.013 
        2.25807         63.0252         8.51442         116.052 
        2.27035         62.1439         8.40207         115.104 
        2.28263         61.3213         8.29179         114.214 
         2.2949         60.3693         8.18355         113.318 
        2.30718          59.485         8.07722         112.426 
        2.31946         59.0632         7.97271         111.462 
        2.33169         58.0019         7.87052         110.618 
        2.34393         57.5563         7.76995          109.82 
        2.35622         56.4532         7.67082         108.923 
        2.36847         56.0438          7.5737         108.179 
        2.38076         55.0896         7.47797         107.195 
        2.39305         54.4851         7.38392         106.472 
        2.40534         53.7555         7.29148         105.592 
        2.41762         53.1355         7.20064         104.733 
        2.42989          52.296         7.11149          103.99 
        2.44216         51.7819         7.02385         103.123 
         2.4544         50.9606         6.93789         102.366 
        2.46667         50.3812         6.85318         101.577 
        2.47897         49.8241         6.76967         100.761 
        2.49124         49.3066         6.68779         100.034 
        2.50349         48.7769         6.60738         99.2674 
        2.51578         48.0353         6.52805         98.6102 
        2.52805         47.4688         6.45017         97.7786 
        2.54029         46.9921         6.37375         97.0125 
        2.55257         46.3761         6.29833         96.3488 
        2.56487         46.1002           6.224         95.6576 
        2.57716          45.374         6.15097         94.9345 
        2.58942         44.7462         6.07927         94.2257 
        2.60167         44.2338         6.00879         93.5384 
        2.61395         43.7815         5.93932         92.8477 
        2.62624         43.1648         5.87085         92.1067 
        2.63849          42.692         5.80368         91.4515 
        2.65073         42.2669         5.73763         90.7862 
        2.66302         41.7746         5.67237         90.0966 
         2.6753         41.3526         5.60817         89.4757 
        2.68756         40.9281          5.5451         88.7979 
        2.69983         40.3913         5.48295         88.1865 
        2.71213         40.0048         5.42162         87.5533 
        2.72441         39.5874         5.36134         86.9101 
        2.73665         39.1041         5.30212         86.3087 
         2.7489         38.7002         5.24383         85.6984 
        2.76118         38.3494         5.18624         85.0731 
        2.77349         37.9048         5.12937         84.4722 
        2.78576         37.5507         5.07359         83.8403 
        2.79802         37.2288         5.01866         83.3249 
        2.81031         36.7144         4.96441         82.7132 
        2.82259         36.5263         4.91099         82.0989 
        2.83483         36.0487         4.85856         81.5727 
         2.8471         35.7509         4.80679         80.9804 
         2.8594         35.4154         4.75562          80.395 
         2.8717           35.24         4.70521         79.8725 
        2.88396         34.8379         4.65572         79.3086 
        2.89619         34.6235         4.60703         78.7126 
        2.90847         34.2421         4.55886         78.1479 
        2.92072         34.0485         4.51145         77.6614 
        2.93299         33.8914         4.46469         77.1471 
        2.94526         33.5013         4.41856         76.6086 
        2.95753         33.2858         4.37309          76.068 
        2.96982          32.978         4.32818         75.5593 
        2.98209         32.7919           4.284         75.0611 
        2.99436         32.5277         4.24039         74.5158 
        3.00666         32.4785         4.19732         74.0178 
        3.01894         32.1332         4.15493         73.5181 
        3.03119         32.0911         4.11319         73.0447 
        3.04345         31.9332         4.07202         72.5715 
        3.05573         31.6176         4.03132          72.078 
          3.068         31.5494         3.99123         71.5979 
        3.08026         31.3791         3.95172         71.1154 
        3.09254         31.3119         3.91268         70.6531 
        3.10483         31.2817         3.87415         70.1932 
         3.1171         31.1137          3.8362         69.7242 
        3.12933         30.9724         3.79886         69.2579 
        3.14159         30.8578         3.76193         68.7876 
