# k  (h/Mpc)    Pcb(k)  (Mpc/h)^3    Pcb_linear(k) (Mpc/h)^3    Pcb_NL(k) (Mpc/h)^3   ShotnoiseSubtracted = false
      0.0156606         4878.12         4884.26         4858.52 
      0.0273761         4228.44         4225.54          4209.9 
      0.0384619         3212.92         3184.35         3176.05 
      0.0498308         2511.76         2505.09         2498.58 
      0.0625568         2119.32         2129.23         2121.83 
      0.0751274         1846.07         1809.12         1797.13 
      0.0867833         1456.67         1456.59         1454.42 
      0.0984825         1189.62         1152.74         1159.29 
       0.111151         999.347         962.532         969.108 
       0.123864         897.837         867.448          872.86 
       0.135742         808.263         780.059         785.591 
        0.14762         688.502         666.995         680.059 
       0.160083         571.634         555.982         570.815 
       0.172465         506.039         485.268         503.346 
       0.184281         468.835         447.362         466.537 
       0.196406         427.727         413.138         428.252 
       0.209011         387.981         367.589         384.406 
       0.221538         346.701         321.239         344.747 
       0.233611         314.979         287.426          313.66 
       0.245665         295.716         265.283         288.695 
       0.258103         268.537         246.956         270.278 
       0.270422         251.029         226.925         249.821 
       0.282519          228.24         205.947         230.131 
       0.294636         221.244         187.641         213.157 
       0.306978         195.224         173.599         200.075 
       0.319417         186.784         162.305         187.806 
        0.33169         174.068         151.495          176.13 
       0.343948         165.994         140.369         165.868 
       0.356249         153.358         129.935         157.125 
       0.368458          147.22         121.195         146.883 
        0.38068          138.95         113.886         139.288 
       0.392856         129.569         107.215         132.752 
       0.405069         123.152         100.691         126.033 
       0.417459         116.578         94.3743         119.286 
       0.429752         111.953          88.704         113.803 
       0.441978         107.107         83.7273         109.486 
       0.454294         99.6293          79.208         103.755 
        0.46658          99.584         74.9676         99.6338 
       0.478753         92.8365         70.9673         95.6605 
       0.490964         89.9737         67.2098         91.8612 
       0.503334         86.1161         63.7415         88.1663 
       0.515665           82.77         60.5788         85.5925 
       0.527909         79.5975         57.6592         81.3012 
       0.540159         76.7429         54.8971         78.6652 
        0.55248         72.6755         52.2761         75.6675 
       0.564743          71.237         49.8492         73.3591 
        0.57686         69.0198         47.6187         70.8293 
       0.589077         65.4681         45.5132         68.8011 
       0.601441         63.6812         43.5111         66.6326 
        0.61382         61.8647         41.6234         64.2748 
       0.626067         59.2952         39.8619         62.5389 
       0.638306         57.5278         38.2032          60.567 
       0.650632         55.6286         36.6315         58.4968 
       0.662899          54.401         35.1588          56.821 
       0.675076         52.1649         33.7786         55.2658 
       0.687267         51.4305         32.4707         53.7163 
       0.699615         49.5919         31.2158         52.5248 
       0.711937         47.5893         30.0294         50.7576 
       0.724148         47.3479         28.9148         49.8658 
       0.736433         44.7886         27.8512         48.3973 
       0.748747           44.21         26.8396         47.1713 
       0.761037         42.9819         25.8806         46.0654 
       0.773197          41.967         24.9784         45.1727 
       0.785376         40.4849         24.1182         44.0029 
       0.797761         39.9827         23.2852         43.1137 
       0.810096         38.9691         22.4949         42.0579 
       0.822371         38.0577          21.745         41.0333 
       0.834626         36.9976         21.0308         40.3344 
       0.846916         36.1031         20.3469          39.412 
       0.859215         34.9885         19.6932         38.5487 
       0.871383         34.5033         19.0749         37.8504 
        0.88363         33.6302         18.4796         37.1719 
       0.895928         32.8664         17.9075         36.3036 
       0.908253         32.1959         17.3588         35.7239 
       0.920535         31.6136         16.8349         34.9881 
       0.932774         31.0707         16.3346         34.3252 
        0.94508         30.4034         15.8523         33.6242 
       0.957324          29.756         15.3918          33.069 
        0.96953         29.1298         14.9512         32.4214 
       0.981769         28.5784         14.5267         31.9476 
       0.994071         27.9418         14.1169         31.3638 
         1.0064         27.3212         13.7221          30.837 
        1.01868         26.7662         13.3437         30.3567 
        1.03092         26.5571         12.9814         29.8135 
         1.0432         25.8387         12.6312          29.249 
        1.05553         25.3582         12.2927         28.9772 
        1.06777         24.7077          11.969         28.3719 
           1.08         24.1985         11.6574         27.9351 
        1.09227         23.8769         11.3559         27.5896 
         1.1046         23.5292         11.0641         27.0931 
         1.1169         23.1196          10.783         26.6974 
        1.12915         22.8621         10.5131         26.3241 
        1.14142         22.1683         10.2519         25.9181 
        1.15365         21.9772         10.0004         25.5629 
        1.16585         21.6925         9.75809         25.2248 
        1.17807          21.177          9.5235         24.7739 
        1.19037         20.9906         9.29512         24.5637 
        1.20276         20.6725          9.0727         24.1763 
        1.21504         20.2647         8.85934         23.9068 
        1.22728         19.8633         8.65375         23.5517 
        1.23954         19.6135         8.45422         23.2112 
        1.25184         19.2439         8.26062         22.9414 
        1.26414         19.0097         8.07301         22.6136 
        1.27632         18.7317         7.89294          22.325 
         1.2886         18.5275          7.7171         22.0716 
        1.30093         18.0826         7.54602         21.8411 
        1.31316         17.8885         7.38138         21.5316 
        1.32541         17.6687         7.22164         21.3193 
        1.33772         17.3463         7.06576         21.0517 
        1.35005         17.1253         6.91438          20.827 
        1.36225          16.889         6.76899         20.5695 
        1.37447         16.5527         6.62752          20.312 
        1.38676         16.3652         6.48945         20.1109 
        1.39907         16.1144         6.35509         19.8807 
        1.41133         15.8757         6.22513         19.6489 
        1.42358         15.6784         6.09893         19.4196 
        1.43591         15.4445         5.97538         19.2514 
        1.44818         15.2263         5.85593         19.0471 
        1.46037         15.1397         5.74047         18.8005 
        1.47263         14.8549         5.62749         18.6539 
        1.48494         14.7409         5.51712         18.4113 
        1.49724         14.5193          5.4098         18.2587 
        1.50952         14.3183         5.30557         18.0873 
        1.52178         14.1305         5.20423         17.8705 
        1.53409         13.8711         5.10515         17.6978 
        1.54637         13.8434         5.00885          17.487 
        1.55858         13.6123         4.91558         17.3413 
        1.57081         13.3891         4.82457         17.1877 
        1.58313         13.2916         4.73529         17.0166 
        1.59544         13.0617         4.64833         16.8688 
        1.60767         12.9356         4.56411         16.6863 
        1.61994         12.7067         4.48169         16.5491 
        1.63225         12.6428         4.40114         16.4162 
        1.64452         12.4729         4.32279         16.2728 
        1.65676         12.3084          4.2466         16.0993 
          1.669         12.2076         4.17219         15.9515 
        1.68133         11.9716          4.0991         15.8046 
        1.69363         11.8372         4.02797         15.6352 
        1.70585         11.7015         3.95898         15.5474 
        1.71809          11.582         3.89148         15.4015 
        1.73038         11.4568         3.82533          15.284 
        1.74268          11.344         3.76069          15.131 
        1.75493         11.1455         3.69784         14.9977 
        1.76714         11.1568         3.63658         14.8823 
        1.77942         11.0104         3.57641         14.7352 
        1.79173          10.791         3.51744         14.6343 
        1.80402         10.7329         3.45993         14.5203 
         1.8163         10.6063         3.40373         14.3992 
         1.8286         10.4496         3.34869         14.2873 
         1.8409         10.3514         3.29491         14.1725 
        1.85315         10.2456          3.2425         14.0486 
        1.86537         10.1532         3.19133         13.9465 
        1.87765         10.0632         3.14107         13.8357 
        1.88995         9.88087         3.09178         13.7321 
        1.90221         9.84458         3.04372         13.6043 
        1.91445         9.71751         2.99676          13.522 
        1.92674         9.61197         2.95063         13.4065 
        1.93902         9.52795         2.90547         13.3255 
        1.95124         9.40553         2.86149         13.2213 
         1.9635         9.31419         2.81832         13.1128 
        1.97583         9.23637         2.77576         12.9971 
        1.98812         9.16186         2.73424          12.901 
        2.00039          9.0758         2.69366         12.8234 
        2.01264         8.98398         2.65394         12.7356 
        2.02492         8.90911         2.61496         12.6266 
        2.03717         8.77212         2.57683         12.5399 
        2.04942         8.67789         2.53951         12.4504 
        2.06171         8.65321          2.5028         12.3648 
        2.07397         8.54348          2.4669          12.283 
        2.08629         8.46733         2.43156         12.2036 
        2.09857         8.38954         2.39699         12.1087 
        2.11081         8.31882         2.36323         12.0406 
        2.12309         8.20953         2.33005          11.933 
        2.13538         8.13967         2.29746         11.8587 
        2.14763         8.05673         2.26559         11.7814 
        2.15986         8.02148         2.23441         11.7096 
        2.17214         7.94404         2.20369         11.6101 
        2.18443         7.84245         2.17351         11.5454 
        2.19671         7.81543         2.14394         11.4678 
        2.20898         7.70027         2.11496         11.3952 
        2.22126         7.62273         2.08647         11.3154 
        2.23354         7.58969         2.05853         11.2325 
         2.2458         7.50037         2.03114         11.1726 
        2.25807         7.44007         2.00423          11.088 
        2.27035          7.3833         1.97778         11.0212 
        2.28263         7.32209         1.95182         10.9461 
         2.2949         7.23882         1.92634         10.8822 
        2.30718         7.18462         1.90131         10.8259 
        2.31946          7.1335         1.87671         10.7524 
        2.33169          7.0702         1.85266         10.6862 
        2.34393         7.02211         1.82899          10.613 
        2.35622         6.97224         1.80565         10.5509 
        2.36847          6.9083         1.78279         10.4828 
        2.38076         6.84981         1.76025           10.42 
        2.39305         6.76579         1.73812         10.3455 
        2.40534         6.73043         1.71636         10.2789 
        2.41762         6.68125         1.69497          10.233 
        2.42989         6.64279         1.67399         10.1714 
        2.44216         6.58689         1.65336         10.1018 
         2.4544         6.52416         1.63313         10.0433 
        2.46667         6.51394         1.61318         9.98413 
        2.47897         6.45631         1.59353         9.91488 
        2.49124         6.38156         1.57425         9.85799 
        2.50349         6.35042         1.55533         9.80959 
        2.51578         6.29386         1.53665         9.75476 
        2.52805          6.2608         1.51832         9.69792 
        2.54029         6.20169         1.50033         9.64254 
        2.55257         6.19055         1.48258         9.58525 
        2.56487         6.12149         1.46508         9.52033 
        2.57716         6.08315         1.44789         9.47368 
        2.58942         6.06027         1.43101         9.42091 
        2.60167         6.01478         1.41442          9.3642 
        2.61395         5.95815         1.39807         9.31366 
        2.62624         5.94188         1.38195         9.25982 
        2.63849         5.91948         1.36614         9.20973 
        2.65073         5.86618         1.35059         9.15191 
        2.66302         5.83248         1.33523         9.09832 
         2.6753         5.79276         1.32012         9.04868 
        2.68756          5.7652         1.30527         9.00701 
        2.69983         5.72853         1.29064         8.94777 
        2.71213         5.69323         1.27621         8.89816 
        2.72441         5.65832         1.26202         8.85181 
        2.73665         5.64485         1.24808         8.79863 
         2.7489         5.62302         1.23436         8.75289 
        2.76118         5.57164          1.2208          8.7137 
        2.77349         5.55033         1.20741         8.66046 
        2.78576         5.53312         1.19428         8.61452 
        2.79802         5.49464         1.18135         8.56807 
        2.81031         5.47717         1.16858          8.5256 
        2.82259         5.44456         1.15601         8.47992 
        2.83483         5.43129         1.14367         8.43231 
         2.8471          5.4127         1.13148         8.39177 
         2.8594          5.4046         1.11944         8.34845 
         2.8717         5.36123         1.10757         8.29723 
        2.88396         5.34467         1.09592         8.25633 
        2.89619         5.31194         1.08446         8.21919 
        2.90847         5.31064         1.07312         8.16971 
        2.92072         5.31077         1.06196          8.1262 
        2.93299         5.30188         1.05095         8.09045 
        2.94526         5.28115         1.04009         8.04489 
        2.95753         5.26409         1.02939         8.00124 
        2.96982         5.24325         1.01882         7.96282 
        2.98209         5.23693         1.00842         7.91659 
        2.99436         5.23076        0.998155         7.87762 
        3.00666         5.24056        0.988017         7.84188 
        3.01894         5.21338        0.978038         7.79692 
        3.03119         5.21788        0.968212         7.75841 
        3.04345         5.21232         0.95852         7.72053 
        3.05573         5.20369        0.948941         7.67858 
          3.068         5.19702        0.939504         7.64345 
        3.08026         5.22158        0.930204         7.60707 
        3.09254         5.21451        0.921014         7.56642 
        3.10483         5.20786        0.911945         7.53126 
         3.1171         5.21787        0.903011         7.49635 
        3.12933         5.22265        0.894221         7.45467 
        3.14159         5.21123         0.88553         7.41862 
