# k  (h/Mpc)    P(k)  (Mpc/h)^3    P_linear(k)  (Mpc/h)^3     P_NL(k)  ShotnoiseSubtracted = false
      0.0156606           15542         15766.6         15657.3 
      0.0273761         13345.9         13610.9         13497.1 
      0.0384619         10104.6         10245.9           10151 
      0.0498308         7827.09         8055.04         7961.64 
      0.0625568         6607.34         6843.36         6758.32 
      0.0751274          5853.1         5812.85          5691.5 
      0.0867833         4553.24         4679.31         4644.03 
      0.0984825         3810.06         3702.68         3741.42 
       0.111151         3240.51         3091.41          3135.9 
       0.123864         2906.87         2785.81         2822.42 
       0.135742         2638.37         2505.02         2542.25 
        0.14762         2282.95         2141.84         2239.88 
       0.160083         1918.73         1785.29         1903.14 
       0.172465         1711.19         1558.18         1707.11 
       0.184281         1564.19         1436.43         1588.23 
       0.196406         1454.44         1326.52         1458.34 
       0.209011         1349.11         1180.24         1318.53 
       0.221538         1217.22         1031.41         1220.22 
       0.233611         1149.29         922.834         1135.25 
       0.245665         1051.14         851.733         1045.74 
       0.258103         1017.48         792.885         985.245 
       0.270422         914.877         728.564         921.589 
       0.282519          852.91         661.208         864.975 
       0.294636         844.412         602.431          815.39 
       0.306978          760.47         557.347          777.94 
       0.319417         737.587         521.086         732.423 
        0.33169         695.143         486.376         690.957 
       0.343948         663.177         450.653          666.86 
       0.356249         624.146         417.153         639.734 
       0.368458         605.002         389.093         606.881 
        0.38068         585.711          365.63         581.435 
       0.392856         552.592         344.209         558.896 
       0.405069         528.801         323.263          541.53 
       0.417459         507.357         302.984         516.991 
       0.429752         495.302          284.78          498.38 
       0.441978         478.949         268.801         484.257 
       0.454294         453.585         254.292         463.306 
        0.46658         444.814         240.678         452.198 
       0.478753         431.536         227.835         437.136 
       0.490964         415.861          215.77         422.814 
       0.503334         393.546         204.636         411.781 
       0.515665         392.304         194.483         402.826 
       0.527909         378.205         185.109         391.615 
       0.540159         368.705         176.241         380.627 
        0.55248         361.545         167.826         370.206 
       0.564743         356.279         160.036         363.265 
        0.57686         342.519         152.875         352.729 
       0.589077          330.96         146.115         344.934 
       0.601441          327.41         139.687         337.149 
        0.61382         321.513         133.627         330.605 
       0.626067          316.16         127.972           323.4 
       0.638306         302.399         122.647         317.231 
       0.650632         297.322         117.601         308.088 
       0.662899         295.132         112.873         304.173 
       0.675076         283.816         108.442         298.357 
       0.687267          276.82         104.243         291.458 
       0.699615         272.686         100.214         286.417 
       0.711937           268.3         96.4055         281.261 
       0.724148         260.392          92.827         277.025 
       0.736433         254.816         89.4125         271.356 
       0.748747         250.627         86.1648          266.19 
       0.761037         246.244         83.0861         261.913 
       0.773197           242.9         80.1897          258.43 
       0.785376         239.564         77.4282         253.706 
       0.797761         233.829         74.7539         249.998 
       0.810096          230.88         72.2165         246.338 
       0.822371         222.194         69.8093          242.25 
       0.834626         221.617         67.5163         238.598 
       0.846916         217.128         65.3208         235.119 
       0.859215         216.932         63.2222         231.699 
       0.871383          211.15         61.2371         228.094 
        0.88363         209.446         59.3259         225.723 
       0.895928         204.629         57.4895         222.208 
       0.908253         199.065         55.7277         218.512 
       0.920535         198.421          54.046         215.573 
       0.932774         191.952         52.4399         212.565 
        0.94508         190.258         50.8914         210.333 
       0.957324         189.838         49.4132         207.171 
        0.96953         187.285         47.9985          204.16 
       0.981769         181.495         46.6359         202.285 
       0.994071         180.691           45.32         199.627 
         1.0064         176.545         44.0528         196.593 
        1.01868         174.206          42.838         194.375 
        1.03092          171.21         41.6747         192.296 
         1.0432         167.898         40.5505           189.9 
        1.05553         165.321         39.4637         187.612 
        1.06777         165.171         38.4247         185.713 
           1.08         161.135         37.4243         183.291 
        1.09227         159.279         36.4565         181.412 
         1.1046         156.805         35.5194         179.385 
         1.1169         154.474         34.6171         176.938 
        1.12915         152.124         33.7507         175.256 
        1.14142         149.734         32.9122         172.968 
        1.15365         147.806         32.1049         171.154 
        1.16585          145.76         31.3268         168.922 
        1.17807         143.762         30.5737         167.704 
        1.19037         142.863         29.8405         165.963 
        1.20276         140.203         29.1265         163.924 
        1.21504         138.175         28.4415         162.162 
        1.22728         135.489         27.7815         160.158 
        1.23954         134.874         27.1409         158.907 
        1.25184         132.227         26.5194         157.101 
        1.26414         130.327         25.9171         155.452 
        1.27632          129.82          25.339         154.599 
         1.2886         127.506         24.7745         152.398 
        1.30093         124.155         24.2253         150.772 
        1.31316         123.706         23.6967         149.143 
        1.32541         121.926         23.1839         148.026 
        1.33772         120.743         22.6835         146.423 
        1.35005         119.127         22.1975         144.791 
        1.36225         117.698         21.7307         143.502 
        1.37447         115.564         21.2766         141.896 
        1.38676         114.652         20.8333          140.47 
        1.39907         112.204          20.402         139.183 
        1.41133         110.747         19.9848         138.034 
        1.42358         109.203         19.5796         136.701 
        1.43591         108.402          19.183         135.163 
        1.44818         107.364         18.7995         134.054 
        1.46037         105.268         18.4288         132.688 
        1.47263         104.092         18.0661         131.689 
        1.48494         102.894         17.7118         130.226 
        1.49724         101.367         17.3673         128.924 
        1.50952         99.6212         17.0326         127.793 
        1.52178          98.981         16.7073         126.577 
        1.53409         97.5886         16.3892         125.494 
        1.54637         95.9355         16.0801         124.376 
        1.55858         94.6452         15.7807         123.153 
        1.57081         93.3256         15.4885         122.093 
        1.58313         92.2815         15.2019         120.947 
        1.59544         91.2893         14.9227         119.885 
        1.60767         89.9293         14.6523          118.73 
        1.61994         88.6311         14.3877         117.956 
        1.63225         87.4001         14.1291         116.524 
        1.64452         86.1028         13.8776         115.565 
        1.65676         84.9648          13.633         114.611 
          1.669         84.3823         13.3941         113.686 
        1.68133         83.1281         13.1595         112.606 
        1.69363         82.1928         12.9311         111.692 
        1.70585         80.9777         12.7097         110.654 
        1.71809         79.7657         12.4929         109.731 
        1.73038         79.0316         12.2806         108.721 
        1.74268         77.7628         12.0731         107.795 
        1.75493         77.0601         11.8713         106.824 
        1.76714         75.7854         11.6746         105.957 
        1.77942         75.2162         11.4815         104.982 
        1.79173         73.9318         11.2922         104.132 
        1.80402         73.2292         11.1075          103.31 
         1.8163         72.1993         10.9271         102.261 
         1.8286         71.1747         10.7504         101.502 
         1.8409         70.3631         10.5778         100.621 
        1.85315          69.274         10.4095         99.8544 
        1.86537          68.573         10.2452           98.98 
        1.87765         67.8616         10.0839         98.0451 
        1.88995         66.8228         9.92565         97.3343 
        1.90221         66.0349         9.77135         96.4938 
        1.91445         64.8184          9.6206         95.7004 
        1.92674         64.2205          9.4725         94.9304 
        1.93902         63.4118         9.32752         94.0763 
        1.95124         62.9513         9.18635         93.4167 
         1.9635         61.8264         9.04773         92.4824 
        1.97583         61.1878         8.91111         91.8742 
        1.98812         60.4613         8.77783         91.0597 
        2.00039         59.4763         8.64754         90.3218 
        2.01264         58.9626         8.52002         89.5655 
        2.02492         58.0999         8.39489         88.8661 
        2.03717         57.2833         8.27248         88.0771 
        2.04942         56.7091         8.15267         87.4676 
        2.06171         55.8026         8.03483         86.7058 
        2.07397         55.2123         7.91957         86.0683 
        2.08629         54.7006          7.8061         85.3162 
        2.09857         53.9702         7.69513         84.6647 
        2.11081         52.8594         7.58677         83.9136 
        2.12309         52.6018         7.48023         83.3317 
        2.13538         51.8329         7.37559          82.643 
        2.14763           51.27         7.27331         81.9969 
        2.15986         50.3821          7.1732         81.3364 
        2.17214         49.8651         7.07457         80.7143 
        2.18443         49.4379          6.9777         80.1186 
        2.19671         48.5396         6.88276          79.436 
        2.20898         48.3105         6.78971         78.8218 
        2.22126         47.5581         6.69827         78.1738 
        2.23354         46.9238         6.60855         77.6137 
         2.2458          46.437         6.52063         77.0397 
        2.25807         45.9914         6.43423         76.3826 
        2.27035         45.3773         6.34933         75.7964 
        2.28263         44.6685         6.26599         75.1968 
         2.2949         44.2417          6.1842         74.6358 
        2.30718         43.6408         6.10384          74.093 
        2.31946         43.0552         6.02487         73.5473 
        2.33169         42.5673         5.94764         72.9702 
        2.34393         41.8682         5.87165         72.4151 
        2.35622         41.6365         5.79674         71.8564 
        2.36847         41.1087         5.72334         71.3484 
        2.38076         40.6469           5.651         70.7762 
        2.39305         40.1173         5.57993         70.2684 
        2.40534         39.7333         5.51008         69.6892 
        2.41762         39.3224         5.44143         69.1462 
        2.42989         38.6802         5.37405         68.6921 
        2.44216         38.4247         5.30783         68.1599 
         2.4544          37.979         5.24287         67.6501 
        2.46667         37.5187         5.17885          67.115 
        2.47897         37.0911         5.11575           66.64 
        2.49124         36.5993         5.05387         66.1554 
        2.50349          36.107         4.99311         65.6576 
        2.51578          35.721         4.93316         65.2171 
        2.52805         35.6137          4.8743          64.715 
        2.54029         35.0736         4.81655         64.2249 
        2.55257         34.5761         4.75957         63.7765 
        2.56487         34.2968         4.70339          63.333 
        2.57716         33.8868          4.6482         62.8989 
        2.58942         33.4921         4.59403         62.4165 
        2.60167         33.0189         4.54076         61.9497 
        2.61395         32.7803         4.48826         61.5169 
        2.62624         32.5217         4.43652         61.0686 
        2.63849         32.1974         4.38576         60.6449 
        2.65073         31.8512         4.33585           60.18 
        2.66302         31.5106         4.28654         59.7625 
         2.6753         31.1237         4.23802         59.3465 
        2.68756         30.6951         4.19035         58.8987 
        2.69983         30.4923         4.14339         58.5133 
        2.71213         30.1947         4.09704         58.1186 
        2.72441         29.9936         4.05149         57.6867 
        2.73665          29.693         4.00674          57.275 
         2.7489          29.478         3.96269          56.881 
        2.76118         29.0707         3.91917         56.4864 
        2.77349         28.9222          3.8762         56.1007 
        2.78576         28.7229         3.83404         55.6911 
        2.79802          28.336         3.79253         55.3251 
        2.81031         28.0921         3.75154          54.948 
        2.82259          27.871         3.71117         54.5466 
        2.83483         27.6003         3.67155         54.1731 
         2.8471         27.2861         3.63243         53.8119 
         2.8594         27.1565         3.59376         53.4571 
         2.8717         26.8548         3.55567         53.0849 
        2.88396         26.6873         3.51827         52.7002 
        2.89619         26.4533         3.48147         52.3427 
        2.90847         26.2714         3.44507         52.0019 
        2.92072         26.1318         3.40924         51.6401 
        2.93299         25.9914         3.37391         51.2837 
        2.94526         25.7158         3.33905         50.9576 
        2.95753         25.5786         3.30469         50.6254 
        2.96982         25.5279         3.27075         50.2814 
        2.98209          25.283         3.23736         49.9497 
        2.99436         25.0658         3.20441         49.6052 
        3.00666         25.0611         3.17186         49.2793 
        3.01894          24.861         3.13983         48.9318 
        3.03119          24.739         3.10828         48.6145 
        3.04345         24.6355         3.07717          48.314 
        3.05573         24.5753         3.04642         47.9968 
          3.068         24.4615         3.01612         47.6779 
        3.08026         24.3184         2.98626         47.3603 
        3.09254         24.2487         2.95676         47.0541 
        3.10483         24.2474         2.92765         46.7535 
         3.1171         24.1875         2.89897         46.4494 
        3.12933          24.137         2.87075         46.1455 
        3.14159         24.0064         2.84284         45.8439 
