# k  (h/Mpc)    P(k)  (Mpc/h)^3    P_linear(k)  (Mpc/h)^3     P_NL(k)  ShotnoiseSubtracted = false
      0.0156606         23992.8         24138.5         23938.8 
      0.0273761         20504.6         20833.6         20585.8 
      0.0384619         15475.8         15680.7         15457.8 
      0.0498308         11929.2         12326.4         12101.2 
      0.0625568         10076.1         10471.3         10272.5 
      0.0751274         8986.09         8893.98         8615.94 
      0.0867833          6949.6          7159.3         7072.24 
      0.0984825         5893.64          5664.9         5738.66 
       0.111151         5052.27         4729.56         4824.47 
       0.123864         4522.98         4261.93         4338.36 
       0.135742         4131.42          3832.3         3908.57 
        0.14762         3603.46         3276.65         3477.19 
       0.160083         3076.27         2731.16         2980.54 
       0.172465         2743.24          2383.7         2701.71 
       0.184281         2478.44         2197.43         2514.65 
       0.196406         2351.93         2029.28         2319.96 
       0.209011         2207.43          1805.5         2105.73 
       0.221538         1984.52         1577.81         1972.32 
       0.233611          1911.8         1411.71         1853.31 
       0.245665         1730.08         1302.94          1714.2 
       0.258103         1723.54         1212.91         1620.34 
       0.270422         1536.94         1114.51         1525.14 
       0.282519         1457.93         1011.47         1449.23 
       0.294636          1425.4         921.557         1375.39 
       0.306978         1309.28          852.59         1320.54 
       0.319417         1288.77         797.118         1245.94 
        0.33169         1209.52          744.02         1182.38 
       0.343948         1164.92         689.374         1147.39 
       0.356249         1108.02         638.127         1106.68 
       0.368458         1059.49         595.203         1060.99 
        0.38068         1047.67          559.31         1022.64 
       0.392856          997.32         526.542         989.065 
       0.405069         943.218           494.5         955.982 
       0.417459         907.164         463.478         926.157 
       0.429752         908.326          435.63         894.335 
       0.441978         876.347         411.187         872.793 
       0.454294         839.546         388.992         838.604 
        0.46658         816.162         368.166         822.252 
       0.478753         802.475         348.519          798.65 
       0.490964         772.569         330.064         775.016 
       0.503334         740.759         313.032          759.11 
       0.515665         737.157           297.5         741.681 
       0.527909         705.724         283.162         727.738 
       0.540159         690.155         269.596         710.653 
        0.55248         675.577         256.724          692.87 
       0.564743         669.027         244.806          681.23 
        0.57686         649.342         233.852          663.98 
       0.589077         641.096         223.512         650.076 
       0.601441         623.009          213.68         638.129 
        0.61382         604.802         204.409         626.775 
       0.626067         599.197         195.758         616.004 
       0.638306          577.71         187.612         603.436 
       0.650632          572.22         179.894         590.407 
       0.662899         567.535         172.661         582.907 
       0.675076          551.36         165.883         575.777 
       0.687267         534.831          159.46         562.658 
       0.699615         534.997         153.297         553.767 
       0.711937         521.509         147.471          543.21 
       0.724148         505.627         141.997         536.579 
       0.736433         494.252         136.774         527.457 
       0.748747         487.968         131.806         518.473 
       0.761037         479.585         127.096         512.578 
       0.773197         470.849         122.666         503.718 
       0.785376         466.268         118.441         496.712 
       0.797761          452.37         114.351         490.132 
       0.810096         445.154         110.469         483.664 
       0.822371         435.267         106.787         476.048 
       0.834626         430.111         103.279         470.893 
       0.846916         425.016         99.9207         463.584 
       0.859215         418.084         96.7105         456.732 
       0.871383         409.423          93.674         450.895 
        0.88363         403.147         90.7505         446.396 
       0.895928          398.61         87.9412         439.642 
       0.908253         389.078         85.2462         432.316 
       0.920535         379.338         82.6738         428.175 
       0.932774         374.691          80.217         421.508 
        0.94508         369.024         77.8481          417.54 
       0.957324         363.483          75.587         411.996 
        0.96953           358.9         73.4229         407.004 
       0.981769         350.748         71.3386         402.467 
       0.994071         349.494         69.3256         397.697 
         1.0064          343.16         67.3872         391.956 
        1.01868          338.71          65.529         387.123 
        1.03092         329.112         63.7494         383.778 
         1.0432         325.791         62.0298         379.156 
        1.05553         322.629         60.3672         373.906 
        1.06777         317.446         58.7779         369.548 
           1.08         310.438         57.2476         365.514 
        1.09227         310.151         55.7672         361.191 
         1.1046          303.25         54.3337         357.944 
         1.1169         297.617         52.9534         353.275 
        1.12915         292.758         51.6281          349.47 
        1.14142         286.973         50.3455         345.521 
        1.15365         283.429         49.1105         341.922 
        1.16585         279.188         47.9203         338.164 
        1.17807         276.286         46.7683         334.255 
        1.19037         270.366         45.6467         331.407 
        1.20276           267.9         44.5544         327.149 
        1.21504         262.575         43.5067         323.456 
        1.22728         258.526         42.4971         320.335 
        1.23954         256.744         41.5172         316.701 
        1.25184         250.897         40.5664         313.437 
        1.26414         246.283         39.6451         310.484 
        1.27632         243.233         38.7608         307.554 
         1.2886         240.445         37.8973         304.162 
        1.30093          235.67         37.0572         300.197 
        1.31316         230.866         36.2487         297.607 
        1.32541         229.565         35.4642         294.178 
        1.33772         225.108         34.6987         291.652 
        1.35005         222.285         33.9553         288.341 
        1.36225         218.228         33.2413         285.661 
        1.37447         214.558         32.5465         282.327 
        1.38676         212.434         31.8685         280.298 
        1.39907         209.247         31.2087         276.833 
        1.41133         205.301         30.5705         273.906 
        1.42358         202.542         29.9508         271.356 
        1.43591         199.617          29.344         268.991 
        1.44818         195.789         28.7574         266.048 
        1.46037         194.141         28.1904         263.226 
        1.47263         190.576         27.6356         260.549 
        1.48494         189.109         27.0935         257.529 
        1.49724         185.259         26.5665         255.977 
        1.50952         182.378         26.0547          252.78 
        1.52178         179.564          25.557         250.583 
        1.53409         176.813         25.0704         248.104 
        1.54637         173.816         24.5975         246.069 
        1.55858         171.872         24.1395          243.53 
        1.57081         168.878         23.6926         241.004 
        1.58313         166.895         23.2541         238.587 
        1.59544         163.669         22.8271         236.478 
        1.60767          162.27         22.4135         234.402 
        1.61994         159.333         22.0088         231.943 
        1.63225         156.718         21.6132         229.607 
        1.64452         154.164         21.2284         227.583 
        1.65676         152.303         20.8543         225.681 
          1.669         150.436         20.4888         223.312 
        1.68133         147.365         20.1299          221.27 
        1.69363         144.934         19.7806         219.501 
        1.70585         142.721         19.4418         217.363 
        1.71809         140.747         19.1103         215.086 
        1.73038         138.579         18.7855         213.227 
        1.74268         137.363          18.468          211.16 
        1.75493         134.732         18.1594         209.478 
        1.76714         133.613         17.8586         207.603 
        1.77942          131.02         17.5631         205.777 
        1.79173         129.325         17.2735         203.713 
        1.80402         127.243          16.991         201.914 
         1.8163         125.169         16.7151         200.327 
         1.8286         123.231         16.4448          198.37 
         1.8409         121.571         16.1807         196.532 
        1.85315         119.394         15.9233         194.898 
        1.86537         118.005          15.672         193.226 
        1.87765         116.509         15.4252         191.565 
        1.88995         114.597         15.1831         189.745 
        1.90221         113.088         14.9471         188.264 
        1.91445         111.285         14.7165         186.512 
        1.92674         109.363           14.49         184.806 
        1.93902         108.137         14.2682         183.143 
        1.95124         106.511         14.0522         181.622 
         1.9635         104.863         13.8402         180.047 
        1.97583         103.297         13.6312         178.409 
        1.98812         101.724         13.4273         177.202 
        2.00039          100.62          13.228         175.471 
        2.01264         99.3147          13.033         174.017 
        2.02492         97.5606         12.8416         172.423 
        2.03717         96.2677         12.6543         171.083 
        2.04942         94.9748          12.471         169.575 
        2.06171         93.4355         12.2908         168.037 
        2.07397         92.0763         12.1145         166.799 
        2.08629         90.7085         11.9409         165.358 
        2.09857           89.62         11.7711         164.036 
        2.11081         88.2287         11.6054         162.531 
        2.12309         87.0403         11.4424         161.253 
        2.13538          85.646         11.2824         159.887 
        2.14763         84.3298         11.1259         158.559 
        2.15986         83.4976         10.9728         157.141 
        2.17214         82.2481         10.8219         156.003 
        2.18443         81.3562         10.6737          154.81 
        2.19671         80.2944         10.5285         153.453 
        2.20898         79.0148         10.3861         152.078 
        2.22126         77.9842         10.2463         150.963 
        2.23354         76.9124          10.109         149.806 
         2.2458         75.3825         9.97453         148.489 
        2.25807         74.8472         9.84237         147.322 
        2.27035         73.7649         9.71249         146.157 
        2.28263         72.7976         9.58502         145.039 
         2.2949          71.592          9.4599         143.893 
        2.30718         70.4673         9.33698         142.706 
        2.31946          69.675         9.21618         141.487 
        2.33169         68.6332         9.09804         140.432 
        2.34393         67.8158         8.98179         139.466 
        2.35622         66.8788          8.8672         138.244 
        2.36847         65.9741         8.75493         137.266 
        2.38076         64.8568         8.64427         136.124 
        2.39305         64.2976         8.53555         135.141 
        2.40534         63.2335          8.4287         134.022 
        2.41762         62.6725         8.32369         132.981 
        2.42989         61.5676         8.22062         131.987 
        2.44216         61.0351         8.11932         130.908 
         2.4544         60.2961         8.01996         129.977 
        2.46667         59.2069         7.92203          128.99 
        2.47897           58.81          7.8255           127.9 
        2.49124         57.9762         7.73084         126.941 
        2.50349         56.9431          7.6379         126.018 
        2.51578         56.5247         7.54619         125.131 
        2.52805         55.5682         7.45616         124.126 
        2.54029         55.0624         7.36782         123.199 
        2.55257         54.3713         7.28065         122.322 
        2.56487         53.8702         7.19472         121.417 
        2.57716         53.2369          7.1103           120.5 
        2.58942         52.4928         7.02742         119.625 
        2.60167         51.8052         6.94595         118.773 
        2.61395         51.3693         6.86564         117.862 
        2.62624         50.6624          6.7865         116.942 
        2.63849         50.0378         6.70885         116.147 
        2.65073         49.3437          6.6325         115.259 
        2.66302         48.9078         6.55706         114.464 
         2.6753          48.219         6.48285         113.642 
        2.68756         47.8525         6.40993         112.791 
        2.69983         47.3274         6.33809         111.978 
        2.71213         46.8112          6.2672         111.179 
        2.72441         46.3171         6.19752         110.362 
        2.73665         45.7644         6.12906         109.601 
         2.7489         45.3279         6.06168         108.835 
        2.76118         44.9018         5.99511          108.03 
        2.77349         44.4477         5.92937         107.284 
        2.78576         43.9806         5.86488         106.512 
        2.79802         43.6025         5.80139         105.814 
        2.81031         43.1298         5.73868          105.06 
        2.82259         42.6817         5.67693         104.271 
        2.83483         42.2279         5.61632         103.588 
         2.8471         41.7624         5.55648         102.846 
         2.8594         41.3995         5.49733         102.131 
         2.8717         41.0832         5.43906         101.464 
        2.88396         40.6291         5.38185         100.763 
        2.89619         40.4097         5.32556         100.038 
        2.90847         40.0045         5.26987         99.3054 
        2.92072         39.6391         5.21507         98.6985 
        2.93299          39.394         5.16103         98.0352 
        2.94526         39.0807          5.1077         97.3335 
        2.95753         38.8354         5.05513         96.6777 
        2.96982         38.3849         5.00322         96.0495 
        2.98209         38.1485         4.95215         95.3866 
        2.99436         38.0097         4.90174         94.7211 
        3.00666         37.7725         4.85195         94.0863 
        3.01894         37.5093         4.80295         93.4629 
        3.03119         37.2663          4.7547          92.869 
        3.04345         37.0265          4.7071         92.2661 
        3.05573         37.0025         4.66006         91.6435 
          3.068         36.6815         4.61372         91.0439 
        3.08026         36.4719         4.56805         90.4412 
        3.09254         36.5018         4.52291         89.8528 
        3.10483         36.2835         4.47838         89.2665 
         3.1171          36.177         4.43451         88.6718 
        3.12933          36.027         4.39134         88.0858 
        3.14159         35.9365         4.34866           87.51 
