# k  (h/Mpc)    Pcb(k)  (Mpc/h)^3    Pcb_linear(k) (Mpc/h)^3    Pcb_NL(k) (Mpc/h)^3   ShotnoiseSubtracted = false
      0.0156606         13812.1         13861.7         13770.1 
      0.0273761         11891.9         11986.7         11897.2 
      0.0384619          9016.4         9031.27         8959.01 
      0.0498308         6995.43         7103.95         7033.75 
      0.0625568         5906.15         6037.61         5972.89 
      0.0751274          5222.6         5129.67         5036.46 
      0.0867833         4069.81         4129.98         4103.88 
      0.0984825         3394.16         3268.37         3300.35 
       0.111151         2881.31         2729.04         2764.76 
       0.123864         2585.44         2459.42         2489.05 
       0.135742         2343.47         2211.64          2241.9 
        0.14762         2023.04         1891.06         1969.79 
       0.160083         1695.04         1576.31         1669.92 
       0.172465          1511.1         1375.82         1493.62 
       0.184281          1384.9         1268.34         1389.28 
       0.196406         1282.15         1171.31          1274.6 
       0.209011          1185.5         1042.17         1151.34 
       0.221538         1069.37         910.757         1061.01 
       0.233611         1003.89         814.891         983.881 
       0.245665         921.949         752.113           905.7 
       0.258103         884.037         700.153         852.559 
       0.270422         798.531         643.359         796.002 
       0.282519         740.844         583.885         744.593 
       0.294636         734.038         531.984         700.308 
       0.306978         658.074         492.174         666.764 
       0.319417         636.179         460.155         627.423 
        0.33169         599.343         429.505         591.183 
       0.343948         571.206         397.961         569.039 
       0.356249         536.389         368.379         544.933 
       0.368458         520.366         343.601         515.644 
        0.38068         501.159          322.88         493.214 
       0.392856         471.605         303.965         473.461 
       0.405069         452.166          285.47         458.232 
       0.417459         433.089         267.561         435.951 
       0.429752         420.637         251.485         419.996 
       0.441978         406.922         237.376         407.582 
       0.454294         383.745         224.563         389.453 
        0.46658         378.322         212.541         379.407 
       0.478753         365.012           201.2         366.382 
       0.490964          352.11         190.547         353.958 
       0.503334         332.423         180.713         344.217 
       0.515665         330.523         171.747         336.573 
       0.527909         319.338          163.47         326.194 
       0.540159         311.014         155.639         316.905 
        0.55248         304.935         148.208         307.879 
       0.564743         298.956         141.327         301.686 
        0.57686         287.636         135.004         292.596 
       0.589077         276.954         129.034         286.233 
       0.601441          273.69         123.358         279.499 
        0.61382         269.849         118.007         273.465 
       0.626067         264.307         113.012         267.239 
       0.638306          252.23          108.31         262.063 
       0.650632         246.961         103.854         254.125 
       0.662899           245.7         99.6786          250.43 
       0.675076         236.407         95.7655         245.189 
       0.687267         230.448         92.0577         239.704 
       0.699615         226.543         88.4997          235.23 
       0.711937         222.165         85.1363         230.849 
       0.724148         216.622         81.9762         227.385 
       0.736433         211.905         78.9608         222.464 
       0.748747          207.78         76.0927         218.086 
       0.761037         204.464          73.374         214.132 
       0.773197         200.988         70.8162         211.505 
       0.785376         198.605         68.3774         207.181 
       0.797761         193.915         66.0158         204.422 
       0.810096          190.69         63.7751         200.981 
       0.822371         183.679         61.6492         197.633 
       0.834626         182.645         59.6242         194.419 
       0.846916         179.653         57.6854         191.585 
       0.859215         178.631         55.8321         188.671 
       0.871383         174.163         54.0791         185.577 
        0.88363         172.006         52.3913         183.571 
       0.895928         168.227         50.7695         180.854 
       0.908253         163.603         49.2137         177.665 
       0.920535         163.042         47.7286         175.336 
       0.932774         157.648         46.3103          172.69 
        0.94508          156.42         44.9427         170.772 
       0.957324         155.715         43.6373         168.194 
        0.96953         153.933          42.388         165.591 
       0.981769         149.155         41.1847         164.118 
       0.994071         148.435         40.0226         161.881 
         1.0064         144.813         38.9035         159.425 
        1.01868         143.088         37.8308         157.684 
        1.03092         140.783         36.8034          155.87 
         1.0432         138.129         35.8107         153.873 
        1.05553         135.567         34.8508         152.185 
        1.06777         135.337         33.9333          150.58 
           1.08         132.262         33.0499          148.56 
        1.09227         130.806         32.1952         147.057 
         1.1046         128.578         31.3676          145.27 
         1.1169         126.977         30.5708         143.312 
        1.12915         124.919         29.8056         141.844 
        1.14142         123.008         29.0652         140.021 
        1.15365         121.166         28.3522         138.529 
        1.16585         119.506         27.6651         136.785 
        1.17807         117.677              27         135.773 
        1.19037         117.241         26.3525         134.324 
        1.20276         114.715         25.7219         132.694 
        1.21504          113.54         25.1171         131.222 
        1.22728         111.218         24.5342         129.744 
        1.23954         110.473         23.9685         128.507 
        1.25184         108.112         23.4196         127.139 
        1.26414         106.805         22.8877         125.843 
        1.27632         106.036         22.3772         125.168 
         1.2886         104.066         21.8787         123.307 
        1.30093         101.909         21.3937         121.985 
        1.31316         101.453         20.9269         120.842 
        1.32541         100.033          20.474         119.848 
        1.33772         98.8263         20.0321         118.583 
        1.35005         97.6748         19.6029         117.311 
        1.36225         96.3903         19.1907         116.241 
        1.37447         94.4075         18.7896         114.985 
        1.38676         94.1089         18.3982         113.737 
        1.39907         91.9935         18.0173          112.84 
        1.41133         90.6879         17.6488         111.937 
        1.42358         89.6117          17.291         110.724 
        1.43591           89.01         16.9408         109.566 
        1.44818         87.9126         16.6021         108.629 
        1.46037         86.4143         16.2748         107.622 
        1.47263         85.0337         15.9544         106.785 
        1.48494         84.4727         15.6415         105.684 
        1.49724         83.0093         15.3373         104.563 
        1.50952         81.8859         15.0418         103.642 
        1.52178         81.0021         14.7545         102.768 
        1.53409         80.2664         14.4736         101.865 
        1.54637         78.3887         14.2005         100.908 
        1.55858         77.6511         13.9361         99.9625 
        1.57081         76.6475         13.6781         99.1306 
        1.58313         75.5941          13.425         98.2608 
        1.59544         74.7889         13.1784         97.3476 
        1.60767         73.7753         12.9397         96.4779 
        1.61994         72.8152          12.706         95.8483 
        1.63225         71.7038         12.4776          94.709 
        1.64452         70.8425         12.2555         94.0062 
        1.65676         69.7876         12.0395         93.1653 
          1.669         69.3013         11.8285         92.4138 
        1.68133         68.4968         11.6213          91.559 
        1.69363         67.4754         11.4197         90.8802 
        1.70585          66.807         11.2241         90.0292 
        1.71809         65.5026         11.0327         89.3904 
        1.73038          64.793         10.8452          88.508 
        1.74268         63.8649         10.6619         87.8151 
        1.75493         63.3127         10.4837         87.0273 
        1.76714         62.3297           10.31         86.2919 
        1.77942         61.9727         10.1394         85.5731 
        1.79173         60.8843         9.97226          84.814 
        1.80402         60.2177         9.80921         84.2031 
         1.8163         59.4871         9.64989         83.3796 
         1.8286         58.5963         9.49384           82.84 
         1.8409         57.7074         9.34138         82.0737 
        1.85315         56.9696         9.19278         81.5337 
        1.86537         56.4086         9.04771          80.795 
        1.87765         55.7031         8.90523         80.0204 
        1.88995         55.0059         8.76548         79.4434 
        1.90221         54.5026         8.62923          78.786 
        1.91445         53.5607         8.49609         78.2012 
        1.92674         53.0602         8.36531         77.5548 
        1.93902         52.3952         8.23727         76.8778 
        1.95124         51.9872          8.1126         76.3835 
         1.9635         50.9974         7.99019          75.651 
        1.97583          50.501         7.86953          75.156 
        1.98812         49.8125         7.75183         74.4854 
        2.00039         49.2724         7.63677          73.897 
        2.01264         48.5369         7.52415         73.3281 
        2.02492         47.9893         7.41365         72.7782 
        2.03717         47.3469         7.30555         72.1349 
        2.04942         46.7369         7.19974         71.6459 
        2.06171         46.1683         7.09567         71.0081 
        2.07397         45.5388         6.99389         70.5287 
        2.08629         45.0395         6.89369         69.9112 
        2.09857         44.6649         6.79568         69.4308 
        2.11081         43.7474         6.69999         68.8265 
        2.12309         43.4154         6.60591         68.3244 
        2.13538         42.8902          6.5135         67.8093 
        2.14763         42.4729         6.42317         67.2945 
        2.15986         42.0561         6.33476         66.7592 
        2.17214         41.3273         6.24766         66.3249 
        2.18443         41.1235         6.16211         65.7597 
        2.19671         40.3549         6.07827         65.2285 
        2.20898         39.9784         5.99609         64.7332 
        2.22126         39.5294         5.91534         64.2328 
        2.23354         38.9955         5.83611         63.8091 
         2.2458         38.6551         5.75847          63.321 
        2.25807         38.1669         5.68217         62.8042 
        2.27035          37.689         5.60719         62.3459 
        2.28263         37.2039          5.5336           61.88 
         2.2949         36.6921         5.46136         61.4347 
        2.30718         36.3839          5.3904         60.9872 
        2.31946         35.8698         5.32066          60.552 
        2.33169         35.5204         5.25245         60.0769 
        2.34393         34.9753         5.18534         59.6194 
        2.35622         34.6672         5.11919         59.1984 
        2.36847         34.2233         5.05437         58.7472 
        2.38076         34.0001         4.99048         58.3457 
        2.39305         33.5635         4.92772         57.9221 
        2.40534          33.193         4.86603         57.4297 
        2.41762         32.7987         4.80541         57.0195 
        2.42989         32.3351         4.74591         56.6514 
        2.44216         32.0997         4.68742         56.2223 
         2.4544         31.7958         4.63006         55.8328 
        2.46667         31.2337         4.57352         55.3897 
        2.47897         31.0113         4.51779         55.0154 
        2.49124         30.6304         4.46315         54.6109 
        2.50349         30.2693         4.40949          54.248 
        2.51578         29.9249         4.35655         53.8684 
        2.52805         29.7321         4.30457         53.4565 
        2.54029         29.4591         4.25357         53.0875 
        2.55257         29.0674         4.20325         52.7209 
        2.56487         28.7761         4.15364          52.348 
        2.57716         28.5025          4.1049         52.0007 
        2.58942         28.1157         4.05705         51.6253 
        2.60167         27.7938         4.01002         51.2248 
        2.61395         27.5563         3.96366         50.8868 
        2.62624         27.3044         3.91796         50.5373 
        2.63849         27.0736         3.87313          50.182 
        2.65073         26.7564         3.82906         49.8102 
        2.66302          26.443         3.78551         49.4927 
         2.6753         26.1907         3.74266         49.1466 
        2.68756         25.8983         3.70057         48.8048 
        2.69983         25.7052         3.65909         48.4693 
        2.71213         25.3468         3.61816         48.1493 
        2.72441         25.2506         3.57793          47.794 
        2.73665         24.9774         3.53842          47.471 
         2.7489         24.7999         3.49951         47.1544 
        2.76118         24.5493         3.46108         46.8097 
        2.77349         24.3417         3.42313         46.5183 
        2.78576         24.1608          3.3859         46.1931 
        2.79802         23.8519         3.34924         45.8785 
        2.81031         23.6825         3.31304         45.5856 
        2.82259         23.4983         3.27739         45.2616 
        2.83483         23.2496          3.2424         44.9518 
         2.8471         23.1443         3.20785         44.6557 
         2.8594         22.8922          3.1737         44.3728 
         2.8717         22.6641         3.14006         44.0655 
        2.88396         22.5827         3.10703          43.757 
        2.89619         22.4316         3.07454         43.4716 
        2.90847         22.2528         3.04239         43.1792 
        2.92072         22.1023         3.01075         42.9106 
        2.93299         22.0112         2.97955         42.6156 
        2.94526         21.8529         2.94876         42.3411 
        2.95753         21.6654         2.91842         42.0768 
        2.96982         21.6516         2.88845         41.7961 
        2.98209         21.4391         2.85896         41.5241 
        2.99436         21.3356         2.82986         41.2551 
        3.00666         21.2105         2.80112         40.9836 
        3.01894          21.151         2.77283         40.7029 
        3.03119         20.9715         2.74497         40.4328 
        3.04345         20.8782         2.71749         40.1808 
        3.05573         20.8051         2.69034         39.9283 
          3.068         20.7747         2.66358         39.6622 
        3.08026         20.7566         2.63721         39.4043 
        3.09254         20.6242         2.61116         39.1618 
        3.10483         20.6229         2.58545         38.9173 
         3.1171         20.5338         2.56012         38.6662 
        3.12933         20.5247          2.5352         38.4191 
        3.14159         20.5075         2.51056         38.1698 
