# k  (h/Mpc)    P(k)  (Mpc/h)^3    P_linear(k)  (Mpc/h)^3     P_NL(k)  ShotnoiseSubtracted = false
      0.0156606         2825.07         2775.23         2761.53 
      0.0273761         2450.85         2398.17         2391.44 
      0.0384619         1861.22         1806.32         1804.01 
      0.0498308          1458.2         1420.61          1419.4 
      0.0625568         1230.06         1207.24         1205.08 
      0.0751274         1064.77         1025.63         1021.63 
      0.0867833          844.31         825.724         825.205 
      0.0984825         684.559         653.442         656.032 
       0.111151         573.491         545.604          548.12 
       0.123864         515.146         491.694         493.595 
       0.135742         462.905         442.152         444.034 
        0.14762         393.381         378.059         382.537 
       0.160083         326.641         315.132         320.241 
       0.172465         287.917         275.049         281.181 
       0.184281         266.914         253.562         260.073 
       0.196406         243.439         234.163          239.17 
       0.209011         219.471         208.345          214.03 
       0.221538         194.995         182.073         190.031 
       0.233611         175.819         162.908         171.748 
       0.245665         165.126         150.358         158.218 
       0.258103         148.876          139.97         147.797 
       0.270422         139.743         128.616         136.216 
       0.282519         126.802         116.726         124.843 
       0.294636         120.961          106.35          114.91 
       0.306978         107.006          98.392         107.237 
       0.319417          102.11         91.9907         100.545 
        0.33169         94.9265         85.8634         94.1297 
       0.343948         90.1237         79.5574         87.9632 
       0.356249         82.7261         73.6435         82.8478 
       0.368458         78.9504           68.69         77.1779 
        0.38068         74.0365         64.5481         72.9652 
       0.392856          69.194         60.7665         69.2564 
       0.405069         65.4768         57.0688         65.3126 
       0.417459         61.3264         53.4889         61.7924 
       0.429752         58.7348         50.2752         58.5841 
       0.441978         55.9314         47.4543         56.0739 
       0.454294         52.0409         44.8929         53.0678 
        0.46658         51.6001         42.4895          50.626 
       0.478753         47.9843         40.2222         48.3802 
       0.490964         46.3555         38.0924          46.382 
       0.503334         44.4143         36.1268         44.1851 
       0.515665         42.2039         34.3343         42.6866 
       0.527909         40.3865         32.6795         40.4444 
       0.540159         38.7156         31.1139          38.887 
        0.55248         36.2072         29.6284         37.2435 
       0.564743         35.7091          28.253         36.0055 
        0.57686         34.5122         26.9888          34.625 
       0.589077         32.5077         25.7955         33.4956 
       0.601441         31.3728         24.6607         32.2699 
        0.61382         30.2839         23.5909         30.9887 
       0.626067         29.0616         22.5925          30.023 
       0.638306         28.1027         21.6524         28.9181 
       0.650632         27.3188         20.7616         27.9909 
       0.662899         26.1683         19.9269         27.0141 
       0.675076         24.9761         19.1446         26.1462 
       0.687267         24.6124         18.4034         25.2884 
       0.699615         23.7639         17.6921         24.5768 
       0.711937         22.5702         17.0197         23.7712 
       0.724148         22.4488          16.388         23.1586 
       0.736433         21.1455         15.7852         22.4152 
       0.748747         20.7679         15.2118         21.7958 
       0.761037         20.2442         14.6683         21.2195 
       0.773197          19.545         14.1569         20.6654 
       0.785376          18.802         13.6694          20.103 
       0.797761          18.394         13.1973         19.5599 
       0.810096         17.9675         12.7493         19.0854 
       0.822371         17.4703         12.3244         18.5239 
       0.834626          16.919         11.9196         18.1211 
       0.846916         16.4035          11.532         17.6476 
       0.859215         15.8101         11.1615         17.2304 
       0.871383         15.5223          10.811         16.8589 
        0.88363         15.1149         10.4736         16.4505 
       0.895928         14.8184         10.1494         16.0282 
       0.908253         14.4367         9.83837          15.699 
       0.920535          14.007         9.54148         15.3242 
       0.932774         13.7857         9.25794         14.9351 
        0.94508         13.3338         8.98455         14.6527 
       0.957324          13.087         8.72358         14.3641 
        0.96953          12.632         8.47383         14.0377 
       0.981769         12.5262         8.23328         13.7471 
       0.994071         12.1793         8.00096         13.4552 
         1.0064         11.8025         7.77725         13.1955 
        1.01868         11.5771         7.56279         12.9381 
        1.03092         11.3961         7.35741         12.6646 
         1.0432          10.983         7.15895         12.4101 
        1.05553         10.8102         6.96707         12.2162 
        1.06777         10.4944         6.78364         11.9517 
           1.08         10.3074         6.60704         11.7391 
        1.09227         10.1008         6.43617         11.5253 
         1.1046         9.91691         6.27074         11.2918 
         1.1169         9.61266         6.11144         11.0891 
        1.12915         9.58738         5.95848         10.9367 
        1.14142         9.21678         5.81046         10.7146 
        1.15365         9.11838         5.66792         10.5266 
        1.16585         9.00114         5.53056         10.3743 
        1.17807         8.73337         5.39761         10.1657 
        1.19037         8.58781         5.26817         10.0099 
        1.20276          8.3833         5.14211          9.8335 
        1.21504         8.26631         5.02118         9.69119 
        1.22728         8.05281         4.90466         9.51713 
        1.23954          7.9325         4.79157         9.38815 
        1.25184         7.76744         4.68185         9.23322 
        1.26414          7.6683         4.57552         9.07215 
        1.27632         7.45645         4.47346         8.94325 
         1.2886         7.37174          4.3738         8.81039 
        1.30093         7.22302         4.27684         8.70604 
        1.31316         7.06764         4.18352         8.55493 
        1.32541          6.9631         4.09299         8.45222 
        1.33772         6.82849         4.00464         8.30734 
        1.35005         6.74262         3.91884         8.20047 
        1.36225         6.60696         3.83644         8.06802 
        1.37447         6.49302         3.75626         7.97153 
        1.38676         6.37363           3.678         7.86435 
        1.39907         6.25723         3.60186         7.75554 
        1.41133         6.16795          3.5282         7.64873 
        1.42358          6.0436         3.45667         7.54068 
        1.43591         5.97982         3.38665         7.45707 
        1.44818         5.83555         3.31895         7.35462 
        1.46037         5.74244         3.25351         7.25461 
        1.47263         5.65972         3.18947         7.17075 
        1.48494         5.59943         3.12692         7.06992 
        1.49724         5.49061          3.0661         6.98592 
        1.50952         5.46064         3.00702         6.90274 
        1.52178         5.33423         2.94958         6.81615 
        1.53409         5.23283         2.89343         6.72353 
        1.54637         5.17426         2.83885         6.64299 
        1.55858         5.10894         2.78599          6.5589 
        1.57081         4.99739          2.7344         6.49939 
        1.58313         4.94426         2.68381         6.41536 
        1.59544         4.85023         2.63452         6.34872 
        1.60767          4.7995         2.58679         6.26692 
        1.61994         4.72238         2.54007         6.20639 
        1.63225         4.64237         2.49442         6.13243 
        1.64452         4.56485         2.45001         6.06091 
        1.65676         4.50218         2.40683         5.99668 
          1.669         4.46439         2.36466         5.93136 
        1.68133         4.35254         2.32323         5.86604 
        1.69363         4.32945         2.28292         5.81043 
        1.70585         4.26397         2.24382         5.74001 
        1.71809         4.21704         2.20556         5.68601 
        1.73038         4.15897         2.16807         5.62323 
        1.74268         4.09249         2.13143         5.56705 
        1.75493          4.0385         2.09581         5.50479 
        1.76714         4.00808         2.06109         5.44973 
        1.77942          3.9414         2.02699         5.39394 
        1.79173         3.88772         1.99357         5.33545 
        1.80402         3.84121         1.96097         5.28556 
         1.8163          3.8081         1.92912          5.2398 
         1.8286         3.74431         1.89793         5.19083 
         1.8409          3.6847         1.86745         5.14213 
        1.85315         3.64701         1.83774         5.08046 
        1.86537         3.61673         1.80874         5.04091 
        1.87765           3.553         1.78026         4.98829 
        1.88995         3.50507         1.75232         4.94664 
        1.90221         3.46545         1.72508         4.89696 
        1.91445         3.42805         1.69846         4.86321 
        1.92674          3.4023         1.67232         4.80663 
        1.93902         3.34375         1.64672         4.76045 
        1.95124         3.30331          1.6218         4.72038 
         1.9635         3.28273         1.59733          4.6813 
        1.97583         3.22753         1.57321         4.64085 
        1.98812         3.18562         1.54968         4.59637 
        2.00039         3.15378         1.52668         4.55708 
        2.01264         3.11512         1.50416         4.52452 
        2.02492         3.08414         1.48207         4.48338 
        2.03717         3.04475         1.46046         4.44209 
        2.04942          3.0055         1.43931         4.40645 
        2.06171         2.97188         1.41851          4.3666 
        2.07397         2.94572         1.39816         4.33039 
        2.08629         2.91792         1.37813         4.29959 
        2.09857         2.88225         1.35853         4.26111 
        2.11081         2.84469          1.3394         4.22694 
        2.12309         2.82245          1.3206          4.1922 
        2.13538         2.78719         1.30212         4.16201 
        2.14763         2.76885         1.28406         4.12586 
        2.15986         2.74153         1.26639         4.09649 
        2.17214         2.69735         1.24898         4.05685 
        2.18443         2.68431         1.23188         4.02688 
        2.19671         2.64582         1.21512         3.99647 
        2.20898          2.6229         1.19869         3.96862 
        2.22126         2.60226         1.18254         3.93779 
        2.23354         2.56885         1.16671         3.90647 
         2.2458         2.55593         1.15118          3.8727 
        2.25807         2.52174         1.13593         3.84792 
        2.27035         2.49514         1.12094         3.82153 
        2.28263         2.46985         1.10623         3.79199 
         2.2949         2.45327         1.09179         3.76594 
        2.30718         2.42821          1.0776         3.74115 
        2.31946         2.40265         1.06366         3.71331 
        2.33169         2.38203         1.05003         3.68483 
        2.34393         2.37016         1.03661         3.65856 
        2.35622          2.3445         1.02338         3.63194 
        2.36847          2.3176         1.01043          3.6051 
        2.38076         2.30117        0.997655         3.57903 
        2.39305         2.27632        0.985108         3.55197 
        2.40534         2.25735        0.972776         3.53057 
        2.41762         2.23078        0.960656         3.50907 
        2.42989         2.21877        0.948762         3.48223 
        2.44216         2.20498         0.93707         3.46045 
         2.4544         2.18176        0.925602         3.43811 
        2.46667         2.16489          0.9143         3.41468 
        2.47897         2.14782        0.903159         3.39072 
        2.49124         2.12628        0.892235         3.36891 
        2.50349         2.11429        0.881508         3.34613 
        2.51578         2.09193        0.870924         3.32128 
        2.52805         2.07412        0.860534         3.30121 
        2.54029         2.06386        0.850338         3.28001 
        2.55257         2.04515        0.840277           3.259 
        2.56487         2.03083         0.83036          3.2372 
        2.57716         2.02345        0.820617         3.21665 
        2.58942         2.00123        0.811052         3.19669 
        2.60167         1.98872        0.801649         3.17501 
        2.61395         1.96517        0.792381          3.1579 
        2.62624         1.96155        0.783246         3.13778 
        2.63849         1.94636        0.774285         3.11628 
        2.65073         1.93023        0.765473         3.09721 
        2.66302         1.91635        0.756767         3.07945 
         2.6753          1.9154        0.748201         3.06054 
        2.68756         1.89106        0.739786         3.04227 
        2.69983         1.87981        0.731495         3.02239 
        2.71213         1.87428        0.723313          3.0045 
        2.72441         1.86117        0.715271         2.98673 
        2.73665           1.846         0.70737         2.97053 
         2.7489         1.83471        0.699594         2.95484 
        2.76118         1.82547         0.69191         2.93709 
        2.77349         1.82226        0.684324         2.91938 
        2.78576         1.81154        0.676881         2.90178 
        2.79802         1.80309        0.669553          2.8849 
        2.81031         1.78715        0.662316         2.86739 
        2.82259         1.78014        0.655189         2.85057 
        2.83483         1.77563        0.648194         2.83561 
         2.8471         1.76593        0.641287         2.81937 
         2.8594         1.75683        0.634461         2.80411 
         2.8717         1.74931        0.627735         2.78843 
        2.88396         1.74614        0.621133         2.77191 
        2.89619         1.73139        0.614637         2.75614 
        2.90847          1.7285         0.60821         2.73982 
        2.92072         1.72311        0.601885         2.72601 
        2.93299         1.72173        0.595647         2.71117 
        2.94526         1.71462        0.589492         2.69686 
        2.95753         1.70508        0.583426         2.68202 
        2.96982         1.70344        0.577435         2.66702 
        2.98209         1.70325         0.57154         2.65374 
        2.99436          1.6955        0.565723         2.63953 
        3.00666         1.69907        0.559977         2.62571 
        3.01894         1.69146        0.554321         2.61017 
        3.03119         1.69216        0.548752          2.5966 
        3.04345          1.6889        0.543259         2.58434 
        3.05573         1.68712         0.53783         2.57123 
          3.068         1.68787        0.532481          2.5577 
        3.08026          1.6845         0.52721         2.54316 
        3.09254         1.68855        0.522001          2.5296 
        3.10483         1.68868        0.516862         2.51755 
         3.1171         1.68858        0.511798         2.50516 
        3.12933         1.68987        0.506817         2.49156 
        3.14159            1.69         0.50189         2.47813 
