# k  (h/Mpc)    P(k)  (Mpc/h)^3    P_linear(k)  (Mpc/h)^3     P_NL(k)  ShotnoiseSubtracted = false
      0.0156606         20548.9         20657.8         20498.3 
      0.0273761         17594.1         17830.8         17644.5 
      0.0384619         13296.9         13421.3         13257.6 
      0.0498308         10268.9         10550.7         10386.6 
      0.0625568         8671.69         8963.17         8816.66 
      0.0751274         7715.53         7613.18            7407 
      0.0867833         5979.33         6128.41         6065.07 
      0.0984825         5045.15         4849.24         4907.19 
       0.111151         4311.72         4048.62         4119.82 
       0.123864         3863.31         3648.35         3706.08 
       0.135742         3519.85         3280.59         3338.61 
        0.14762          3061.7         2804.95            2959 
       0.160083         2596.56            2338         2527.31 
       0.172465         2315.98         2040.56         2281.42 
       0.184281         2101.81         1881.11          2123.2 
       0.196406         1978.29         1737.17         1954.63 
       0.209011         1848.69         1545.61         1771.13 
       0.221538         1665.42         1350.69            1652 
       0.233611         1593.43          1208.5         1546.87 
       0.245665         1445.67         1115.39            1428 
       0.258103         1427.34         1038.32         1347.99 
       0.270422         1273.95         954.091         1265.75 
       0.282519         1201.26         865.884         1196.99 
       0.294636         1181.63         788.911         1133.26 
       0.306978         1077.28         729.872         1085.49 
       0.319417         1054.37         682.384         1023.28 
        0.33169         991.749          636.93         968.597 
       0.343948         950.903         590.149         938.459 
       0.356249         900.385         546.279         903.326 
       0.368458         866.549         509.533         862.367 
        0.38068         850.723         478.807         829.151 
       0.392856         807.075         450.755         799.809 
       0.405069         766.847         423.325         774.403 
       0.417459         737.577         396.769         745.955 
       0.429752          731.74         372.929         719.867 
       0.441978         706.218         352.005         701.396 
       0.454294         674.434         333.004         672.636 
        0.46658         655.767         315.176         658.636 
       0.478753         642.552         298.357         638.434 
       0.490964         617.682         282.558         618.827 
       0.503334         590.376         267.978         604.766 
       0.515665         588.685         254.681         591.357 
       0.527909         564.765         242.407         578.376 
       0.540159         550.669         230.793         563.444 
        0.55248         539.869         219.774         548.764 
       0.564743           535.6         209.572         539.431 
        0.57686         516.813         200.194          525.04 
       0.589077          505.82         191.342         513.391 
       0.601441          495.95         182.925         503.191 
        0.61382         482.815         174.989         494.445 
       0.626067         477.323         167.583         484.961 
       0.638306         459.563         160.609         475.289 
       0.650632         455.096         154.002         463.547 
       0.662899         451.217          147.81         458.076 
       0.675076         435.665         142.008         451.419 
       0.687267         423.803         136.509         440.672 
       0.699615         421.149         131.233         433.724 
       0.711937         413.623         126.246         425.704 
       0.724148         399.889          121.56         419.817 
       0.736433         390.553         117.088         412.209 
       0.748747         385.637         112.835         404.854 
       0.761037         378.577         108.804          399.76 
       0.773197         373.535         105.011         393.445 
       0.785376         368.206         101.394         387.634 
       0.797761         357.613         97.8924         381.628 
       0.810096         354.594         94.5696         376.861 
       0.822371         343.953         91.4173         370.694 
       0.834626         341.352         88.4145         366.163 
       0.846916         335.067         85.5394         360.485 
       0.859215         332.835         82.7912         355.294 
       0.871383         324.796         80.1917         350.516 
        0.88363         322.169          77.689         346.944 
       0.895928         316.595         75.2841         341.484 
       0.908253         308.687          72.977         335.971 
       0.920535         304.281         70.7748         332.057 
       0.932774         298.494         68.6716         327.182 
        0.94508         294.296         66.6437         323.822 
       0.957324         292.324         64.7079         319.447 
        0.96953         288.296         62.8554         315.518 
       0.981769         280.851          61.071         312.108 
       0.994071          279.86         59.3478         308.253 
         1.0064         274.177         57.6884         303.759 
        1.01868         271.167         56.0976         299.881 
        1.03092         263.217         54.5741         297.203 
         1.0432         260.342          53.102         293.604 
        1.05553         257.307         51.6787          289.62 
        1.06777         255.025         50.3182          286.47 
           1.08          249.04         49.0082         283.233 
        1.09227         247.541         47.7408         279.838 
         1.1046         243.217         46.5136         277.126 
         1.1169         237.679          45.332         273.398 
        1.12915         234.651         44.1974         270.797 
        1.14142         230.291         43.0994          267.48 
        1.15365         227.554         42.0421         264.659 
        1.16585          223.57         41.0233         261.574 
        1.17807         221.291         40.0371         259.023 
        1.19037         218.248         39.0769         256.753 
        1.20276         215.231         38.1418         253.405 
        1.21504          210.64         37.2449         250.605 
        1.22728         207.426         36.3806           247.6 
        1.23954         206.419         35.5417         245.488 
        1.25184         201.981         34.7278         242.827 
        1.26414         198.043         33.9391          240.47 
        1.27632         196.992         33.1821         238.412 
         1.2886         195.502         32.4429         235.578 
        1.30093         190.345         31.7236         232.727 
        1.31316          186.61         31.0315         230.282 
        1.32541         185.515         30.3599         228.111 
        1.33772         182.949         29.7046         225.893 
        1.35005         180.443         29.0682         223.355 
        1.36225         177.133          28.457         221.275 
        1.37447         174.603         27.8622         218.559 
        1.38676         172.762         27.2818         216.941 
        1.39907         170.168         26.7169         214.406 
        1.41133         167.146         26.1706          212.27 
        1.42358         165.202           25.64         210.269 
        1.43591         163.231         25.1206         208.249 
        1.44818          160.26         24.6185         206.178 
        1.46037          158.68          24.133         203.984 
        1.47263         155.932         23.6581         202.226 
        1.48494         154.114         23.1941         199.745 
        1.49724         151.847         22.7429         198.369 
        1.50952         149.037         22.3047         196.255 
        1.52178         148.082         21.8787         194.134 
        1.53409         145.042         21.4621         192.483 
        1.54637         143.184         21.0573         190.894 
        1.55858         141.238         20.6652         188.813 
        1.57081         138.961         20.2826         187.121 
        1.58313         137.112         19.9073         185.212 
        1.59544         134.663         19.5417         183.562 
        1.60767          133.61         19.1876         181.907 
        1.61994         131.204         18.8411          180.24 
        1.63225          129.42         18.5025          178.33 
        1.64452         127.209         18.1731         176.737 
        1.65676         125.465         17.8528         175.216 
          1.669         124.323           17.54         173.615 
        1.68133         121.816         17.2327         172.031 
        1.69363         119.851         16.9336         170.518 
        1.70585         117.907         16.6436             169 
        1.71809         116.459         16.3598         167.175 
        1.73038         115.435         16.0818         165.833 
        1.74268         114.283           15.81         164.226 
        1.75493         111.284         15.5458         162.856 
        1.76714          110.81         15.2882         161.487 
        1.77942         108.703         15.0353         159.885 
        1.79173         106.997         14.7874         158.513 
        1.80402         105.998         14.5456         157.106 
         1.8163         103.794         14.3093         155.775 
         1.8286         102.527         14.0779         154.307 
         1.8409         101.728         13.8519         152.871 
        1.85315         99.5613         13.6315         151.632 
        1.86537         98.7735         13.4164         150.375 
        1.87765         97.5572         13.2051         149.091 
        1.88995         95.8176         12.9979         147.707 
        1.90221         94.6021         12.7958         146.519 
        1.91445         93.3923         12.5984         145.112 
        1.92674         91.9063         12.4045         143.874 
        1.93902         90.6716         12.2146         142.582 
        1.95124         89.5774         12.0298         141.382 
         1.9635         88.0989         11.8482         140.135 
        1.97583         86.7681         11.6693         138.968 
        1.98812         85.6594         11.4948         137.906 
        2.00039          84.657         11.3242          136.62 
        2.01264         83.5854         11.1572         135.498 
        2.02492         82.6936         10.9933         134.279 
        2.03717         81.2609          10.833         133.199 
        2.04942          80.571         10.6761          132.12 
        2.06171         78.8368         10.5218          130.97 
        2.07397         78.0424         10.3709         129.936 
        2.08629         77.0468         10.2223         128.806 
        2.09857         75.9775          10.077         127.768 
        2.11081         74.6801         9.93507         126.589 
        2.12309         73.6604         9.79556         125.671 
        2.13538         72.6956         9.65853         124.563 
        2.14763         71.7841         9.52458         123.569 
        2.15986         70.7634         9.39349         122.478 
        2.17214         69.9678         9.26433         121.499 
        2.18443         69.0318         9.13748         120.671 
        2.19671         67.9879         9.01316         119.632 
        2.20898         67.3086          8.8913         118.572 
        2.22126         66.3021         8.77156          117.67 
        2.23354         65.5604         8.65407         116.734 
         2.2458         64.3292         8.53893         115.795 
        2.25807         63.6307         8.42579         114.844 
        2.27035         62.7445         8.31461         113.906 
        2.28263         61.9205         8.20548         113.026 
         2.2949         60.9648         8.09837         112.138 
        2.30718         60.0747         7.99314         111.256 
        2.31946          59.656         7.88972         110.302 
        2.33169         58.5874         7.78859         109.467 
        2.34393         58.1425         7.68907         108.676 
        2.35622         57.0324         7.59097         107.789 
        2.36847         56.6233         7.49486         107.053 
        2.38076         55.6624         7.40013         106.079 
        2.39305         55.0601         7.30706         105.364 
        2.40534         54.3253         7.21558         104.493 
        2.41762         53.6972         7.12569         103.643 
        2.42989         52.8573         7.03746         102.908 
        2.44216         52.3356         6.95074          102.05 
         2.4544         51.5142         6.86567           101.3 
        2.46667         50.9343         6.78184         100.519 
        2.47897         50.3723          6.6992         99.7124 
        2.49124          49.849         6.61817         98.9925 
        2.50349         49.3258          6.5386          98.234 
        2.51578         48.5713          6.4601         97.5837 
        2.52805         48.0068         6.38302         96.7608 
        2.54029         47.5252          6.3074         96.0026 
        2.55257         46.9031         6.23277         95.3459 
        2.56487         46.6269         6.15921         94.6619 
        2.57716         45.8944         6.08694         93.9463 
        2.58942         45.2619         6.01599         93.2449 
        2.60167         44.7465         5.94624         92.5648 
        2.61395         44.2905          5.8775         91.8812 
        2.62624         43.6725         5.80974         91.1479 
        2.63849         43.1941         5.74327         90.4995 
        2.65073         42.7701         5.67791         89.8412 
        2.66302         42.2682         5.61333         89.1588 
         2.6753         41.8472          5.5498         88.5443 
        2.68756         41.4175         5.48738         87.8735 
        2.69983         40.8768         5.42587         87.2685 
        2.71213         40.4873         5.36518         86.6419 
        2.72441         40.0665         5.30553         86.0054 
        2.73665         39.5767         5.24693         85.4102 
         2.7489         39.1711         5.18925         84.8063 
        2.76118          38.815         5.13225         84.1875 
        2.77349         38.3694         5.07598         83.5928 
        2.78576         38.0129         5.02077         82.9675 
        2.79802         37.6881         4.96641         82.4576 
        2.81031         37.1678         4.91274         81.8522 
        2.82259         36.9823         4.85987         81.2443 
        2.83483          36.499         4.80799         80.7236 
         2.8471            36.2         4.75676         80.1374 
         2.8594         35.8604         4.70612         79.5581 
         2.8717         35.6852         4.65623          79.041 
        2.88396         35.2764         4.60726         78.4831 
        2.89619         35.0638         4.55908         77.8932 
        2.90847          34.678          4.5114         77.3344 
        2.92072         34.4808         4.46449          76.853 
        2.93299         34.3246         4.41822          76.344 
        2.94526         33.9295         4.37256         75.8111 
        2.95753         33.7135         4.32757         75.2762 
        2.96982         33.4053         4.28313         74.7727 
        2.98209         33.2126         4.23941         74.2797 
        2.99436         32.9465         4.19625         73.7401 
        3.00666         32.9008         4.15363         73.2473 
        3.01894         32.5486         4.11168         72.7528 
        3.03119         32.5096         4.07037         72.2843 
        3.04345         32.3487         4.02963         71.8161 
        3.05573         32.0286         3.98936         71.3277 
          3.068         31.9605         3.94968         70.8526 
        3.08026         31.7892         3.91059         70.3751 
        3.09254         31.7223         3.87195         69.9177 
        3.10483         31.6894         3.83382         69.4626 
         3.1171         31.5196         3.79627         68.9984 
        3.12933         31.3815         3.75931          68.537 
        3.14159         31.2643         3.72277         68.0715 
