# k  (h/Mpc)    Pcb(k)  (Mpc/h)^3    Pcb_linear(k) (Mpc/h)^3    Pcb_NL(k) (Mpc/h)^3   ShotnoiseSubtracted = false
      0.0156606         18654.3         18743.5         18604.4 
      0.0273761         16015.1           16206         16049.7 
      0.0384619         12123.6         12209.4         12074.2 
      0.0498308         9378.72         9603.48         9468.63 
      0.0625568         7922.34         8161.74         8040.52 
      0.0751274          7039.9         6934.25         6762.85 
      0.0867833         5464.13         5582.83         5531.04 
      0.0984825         4596.95         4418.08         4468.36 
       0.111151         3921.99         3689.01         3749.19 
       0.123864         3516.18         3324.54          3373.6 
       0.135742         3199.05         2989.58          3039.1 
        0.14762         2777.64         2556.24         2687.75 
       0.160083          2347.3         2130.77         2291.13 
       0.172465         2093.87         1859.75         2063.37 
       0.184281         1905.65         1714.47         1920.13 
       0.196406         1785.16         1583.31         1765.81 
       0.209011         1663.78         1408.74         1598.68 
       0.221538         1500.22         1231.11         1487.11 
       0.233611         1428.67         1101.52         1389.33 
       0.245665         1299.51         1016.66         1281.39 
       0.258103         1274.48         946.422         1208.71 
       0.270422         1139.83         869.652         1133.38 
       0.282519         1070.43         789.258         1068.79 
       0.294636         1056.23         719.101         1010.36 
       0.306978         958.495         665.289         966.406 
       0.319417         934.862         622.007          910.58 
        0.33169         880.336         580.577         860.745 
       0.343948         842.201         537.938         832.976 
       0.356249         795.581          497.95         800.832 
       0.368458         768.279         464.457         762.645 
        0.38068         750.393         436.448          732.28 
       0.392856         710.491          410.88         705.374 
       0.405069         677.053         385.879         683.431 
       0.417459         650.876         361.671         656.063 
       0.429752         641.704         339.941         632.885 
       0.441978         619.728         320.868         616.021 
       0.454294         590.272         303.549          590.24 
        0.46658         575.166         287.298         577.343 
       0.478753         561.882         271.968         559.027 
       0.490964         540.524         257.568         541.467 
       0.503334         514.673         244.276         528.461 
       0.515665         513.635         232.156         516.923 
       0.527909         493.589         220.967         504.495 
       0.540159          481.16         210.382         490.931 
        0.55248         471.835         200.337         477.937 
       0.564743         467.626         191.037         469.602 
        0.57686         450.141         182.489         456.675 
       0.589077         438.275          174.42         446.452 
       0.601441          431.83         166.747         437.123 
        0.61382         421.572         159.513          429.38 
       0.626067         416.163         152.762         420.681 
       0.638306         399.912         146.406         412.484 
       0.650632         395.256         140.383         401.592 
       0.662899          391.83         134.739          396.89 
       0.675076         377.338         129.449         390.449 
       0.687267         367.747         124.437         381.146 
       0.699615         363.942         119.628         375.028 
       0.711937         358.382         115.081         368.227 
       0.724148         346.454          110.81         362.883 
       0.736433         338.609         106.734         356.006 
       0.748747         334.158         102.857         349.498 
       0.761037         327.912         99.1818         344.719 
       0.773197         324.015         95.7244           339.6 
       0.785376          319.08         92.4279         334.244 
       0.797761          310.64         89.2356         328.958 
       0.810096         308.093         86.2067         324.758 
       0.822371         297.576         83.3332         319.398 
       0.834626         296.217         80.5959         315.164 
       0.846916         289.958         77.9751         310.396 
       0.859215         289.554           75.47         305.962 
       0.871383         282.019         73.1004         301.636 
        0.88363         280.382          70.819         298.532 
       0.895928         274.569         68.6267         293.783 
       0.908253         267.584         66.5237         289.079 
       0.920535         265.315         64.5162         285.403 
       0.932774          258.61          62.599         281.385 
        0.94508         255.642         60.7504         278.455 
       0.957324         254.573         58.9859         274.548 
        0.96953         250.899         57.2972         270.981 
       0.981769         243.766         55.6706          268.22 
       0.994071         242.901         54.0998         264.824 
         1.0064         237.689         52.5871         260.919 
        1.01868         234.817          51.137         257.678 
        1.03092         228.946         49.7483         255.237 
         1.0432         225.533         48.4063         252.127 
        1.05553         222.728         47.1089         248.808 
        1.06777         221.909         45.8687         246.214 
           1.08         216.503         44.6745         243.285 
        1.09227         214.215         43.5192          240.47 
         1.1046         211.018         42.4006         238.063 
         1.1169         206.545         41.3234         234.807 
        1.12915         203.798         40.2892         232.679 
        1.14142         200.502         39.2883         229.712 
        1.15365         197.789         38.3245         227.293 
        1.16585         194.761         37.3958         224.473 
        1.17807         192.469         36.4968         222.558 
        1.19037         190.432         35.6215         220.471 
        1.20276         187.713         34.7691          217.65 
        1.21504         183.826         33.9515          215.29 
        1.22728         180.647         33.1636         212.554 
        1.23954         180.072         32.3989          210.98 
        1.25184         176.577          31.657         208.608 
        1.26414         173.504         30.9381         206.496 
        1.27632         172.853         30.2479          204.96 
         1.2886         171.082         29.5741         202.352 
        1.30093         166.154         28.9185         200.048 
        1.31316         163.757         28.2875         197.807 
        1.32541         162.422         27.6754         196.179 
        1.33772         160.797          27.078         194.137 
        1.35005         158.257         26.4978         191.959 
        1.36225         155.824         25.9407         190.202 
        1.37447         153.708         25.3985         187.905 
        1.38676          151.86         24.8694         186.346 
        1.39907         149.352         24.3545          184.33 
        1.41133         147.067         23.8565         182.638 
        1.42358         145.222         23.3728         180.921 
        1.43591         143.557         22.8993         179.018 
        1.44818         141.605         22.4416         177.378 
        1.46037         139.573         21.9991         175.519 
        1.47263         137.902         21.5661         174.127 
        1.48494         135.816         21.1431         172.013 
        1.49724         133.997         20.7319         170.633 
        1.50952         131.568         20.3324         168.959 
        1.52178         131.038         19.9441         167.134 
        1.53409         128.237         19.5643          165.76 
        1.54637         126.784         19.1953         164.367 
        1.55858         124.559         18.8379         162.598 
        1.57081         122.906         18.4891         161.217 
        1.58313         121.363          18.147         159.582 
        1.59544         119.624         17.8137         158.194 
        1.60767         118.501          17.491         156.704 
        1.61994         116.405         17.1751         155.455 
        1.63225         115.001         16.8664         153.691 
        1.64452         112.903         16.5662         152.316 
        1.65676         111.262         16.2742         151.053 
          1.669         110.612          15.989         149.774 
        1.68133          108.24         15.7089         148.393 
        1.69363         107.007         15.4363         147.069 
        1.70585         105.084         15.1719         145.763 
        1.71809         103.889         14.9132         144.255 
        1.73038         103.167         14.6597         143.093 
        1.74268         101.938          14.412         141.746 
        1.75493         99.7321         14.1711         140.515 
        1.76714         98.6925         13.9364         139.379 
        1.77942         97.3095         13.7058         137.969 
        1.79173         95.9257         13.4798          136.88 
        1.80402          95.167         13.2594         135.688 
         1.8163         93.1941          13.044          134.43 
         1.8286         91.9617         12.8331         133.245 
         1.8409         91.3201          12.627         132.042 
        1.85315         89.7518         12.4262         130.991 
        1.86537         88.7115         12.2301         129.898 
        1.87765         87.9027         12.0375         128.764 
        1.88995         86.4175         11.8486         127.662 
        1.90221         85.2657         11.6644         126.581 
        1.91445         84.1669         11.4844         125.405 
        1.92674         82.7732         11.3076         124.373 
        1.93902         81.7568         11.1346          123.26 
        1.95124         80.9417          10.966         122.259 
         1.9635         79.6708         10.8006         121.132 
        1.97583         78.4923         10.6375         120.216 
        1.98812         77.4996         10.4784         119.215 
        2.00039         76.5522         10.3229         118.169 
        2.01264         75.7564         10.1706         117.187 
        2.02492         74.7925         10.0213         116.179 
        2.03717         73.5392         9.87513         115.188 
        2.04942         73.2098         9.73211         114.339 
        2.06171         71.5414         9.59144         113.342 
        2.07397         70.7603         9.45386         112.442 
        2.08629         69.9522          9.3184         111.463 
        2.09857         68.8915         9.18593         110.574 
        2.11081          67.842         9.05657         109.555 
        2.12309          67.064          8.9294         108.806 
        2.13538         66.2321         8.80449         107.858 
        2.14763         65.3333         8.68239         106.994 
        2.15986         64.2165         8.56289         106.079 
        2.17214         63.7005         8.44515         105.203 
        2.18443         62.9366         8.32951         104.505 
        2.19671         61.7567         8.21618          103.61 
        2.20898         61.4347          8.1051         102.732 
        2.22126         60.4959         7.99595         101.903 
        2.23354         59.7907         7.88885         101.125 
         2.2458         58.8924          7.7839         100.341 
        2.25807         58.1092         7.68076         99.4967 
        2.27035         57.4898          7.5794         98.6892 
        2.28263         56.6829         7.47993          97.913 
         2.2949         56.0837         7.38229         97.1494 
        2.30718         55.0453         7.28636         96.4175 
        2.31946         54.7155         7.19209          95.624 
        2.33169         53.7634          7.0999         94.8908 
        2.34393         53.1877         7.00918          94.184 
        2.35622         52.5079         6.91976         93.4401 
        2.36847         52.0213         6.83215         92.8026 
        2.38076         51.1115         6.74579         91.9665 
        2.39305         50.5527         6.66095         91.3354 
        2.40534         50.0182         6.57756         90.5855 
        2.41762          49.422         6.49561          89.845 
        2.42989         48.8335         6.41519         89.2344 
        2.44216         48.2723         6.33613         88.5064 
         2.4544         47.6457         6.25859         87.8365 
        2.46667         47.1027         6.18217         87.1453 
        2.47897         46.6031         6.10684          86.482 
        2.49124         45.9878         6.03297         85.8667 
        2.50349          45.667         5.96044         85.1882 
        2.51578         44.9309         5.88888         84.6356 
        2.52805         44.4377         5.81862         83.9383 
        2.54029         43.9873         5.74968         83.2632 
        2.55257         43.3526         5.68165         82.6972 
        2.56487          42.995          5.6146         82.1221 
        2.57716         42.4082         5.54872         81.5181 
        2.58942         41.8317         5.48404         80.8912 
        2.60167          41.521         5.42046         80.3045 
        2.61395         40.9122         5.35779          79.723 
        2.62624         40.6715         5.29603         79.0861 
        2.63849         40.1404         5.23543         78.5327 
        2.65073         39.7762         5.17585         77.9512 
        2.66302         39.2369         5.11698         77.3723 
         2.6753         38.7927         5.05907         76.8304 
        2.68756         38.3858         5.00217         76.2515 
        2.69983         38.0249          4.9461         75.7432 
        2.71213         37.6401         4.89078         75.2097 
        2.72441         37.2597          4.8364         74.6536 
        2.73665         36.7255         4.78298         74.1175 
         2.7489          36.603          4.7304         73.5949 
        2.76118         36.0832         4.67844         73.0828 
        2.77349         35.7978         4.62715         72.5567 
        2.78576         35.5291         4.57682         72.0138 
        2.79802         35.1161         4.52727         71.5755 
        2.81031          34.711         4.47834         71.0499 
        2.82259           34.65         4.43015         70.5244 
        2.83483         34.1671         4.38285         70.0698 
         2.8471         33.8166         4.33615         69.5763 
         2.8594         33.5732         4.28999          69.069 
         2.8717         33.3874         4.24452         68.6073 
        2.88396         33.0115         4.19987         68.1232 
        2.89619         32.8638         4.15595         67.6188 
        2.90847         32.5162         4.11249         67.1536 
        2.92072         32.3092         4.06973         66.7204 
        2.93299         32.1193         4.02755         66.2649 
        2.94526         31.7991         3.98593         65.8179 
        2.95753         31.6016         3.94491         65.3651 
        2.96982         31.4634          3.9044         64.9191 
        2.98209         31.1607         3.86455         64.4887 
        2.99436         30.9656         3.82521         64.0228 
        3.00666         30.8982         3.78635         63.6051 
        3.01894         30.6276         3.74812         63.1651 
        3.03119         30.4862         3.71046          62.755 
        3.04345         30.3616         3.67332         62.3595 
        3.05573         30.1059         3.63661         61.9416 
          3.068         30.1041         3.60044         61.5246 
        3.08026         29.9333          3.5648         61.1107 
        3.09254         29.8023         3.52958         60.7097 
        3.10483         29.7944         3.49483         60.3172 
         3.1171         29.5818         3.46059         59.9196 
        3.12933         29.5665          3.4269         59.5142 
        3.14159         29.4284          3.3936         59.1106 
