# k  (h/Mpc)    Pcb(k)  (Mpc/h)^3    Pcb_linear(k) (Mpc/h)^3    Pcb_NL(k) (Mpc/h)^3   ShotnoiseSubtracted = false
      0.0156606         7575.75         7590.75         7547.72 
      0.0273761         6551.35          6565.8         6534.05 
      0.0384619         4975.68         4947.55         4926.54 
      0.0498308         3879.47            3892         3873.33 
      0.0625568         3273.87         3307.95         3289.28 
      0.0751274         2868.64         2810.58         2782.21 
      0.0867833         2252.62         2262.89          2256.5 
      0.0984825         1853.56         1790.82         1803.84 
       0.111151         1562.41         1495.32         1508.79 
       0.123864          1403.5          1347.6         1358.92 
       0.135742         1266.24         1211.83         1223.49 
        0.14762         1083.07         1036.18          1064.6 
       0.160083         900.588         863.723         896.362 
       0.172465         800.095         753.867         794.168 
       0.184281         739.504         694.978         737.354 
       0.196406         676.553         641.811         676.069 
       0.209011         617.868          571.05         608.428 
       0.221538         554.913         499.044         551.262 
       0.233611         509.404         446.516         505.012 
       0.245665         475.744         412.117         464.553 
       0.258103         438.964         383.646         435.823 
       0.270422         406.106         352.527         404.226 
       0.282519         370.915         319.938         374.252 
       0.294636         364.343         291.499         348.721 
       0.306978         322.356         269.686         329.171 
       0.319417         309.125         252.141         309.262 
        0.33169         289.344         235.347         290.483 
       0.343948         276.135         218.062         275.911 
       0.356249         256.914         201.853         262.472 
       0.368458         247.966         188.276          246.44 
        0.38068         235.513         176.922         234.383 
       0.392856          219.86         166.557         224.072 
       0.405069         210.284         156.423         214.467 
       0.417459          200.26          146.61         202.936 
       0.429752         192.731         137.801         194.613 
       0.441978         185.548          130.07         187.918 
       0.454294         172.846         123.049         178.553 
        0.46658         173.055         116.462         172.502 
       0.478753         162.846         110.247         166.058 
       0.490964         157.844          104.41         159.724 
       0.503334         150.023         99.0219         154.324 
       0.515665          146.17         94.1087         150.275 
       0.527909         141.582         89.5732         143.719 
       0.540159         136.829         85.2822          139.47 
        0.55248         132.311         81.2105         134.656 
       0.564743         128.555         77.4404         131.078 
        0.57686         124.489         73.9753         126.745 
       0.589077         118.908         70.7044         123.634 
       0.601441         116.291         67.5942         120.272 
        0.61382         114.254         64.6617         116.556 
       0.626067          109.78         61.9252         113.555 
       0.638306         105.985         59.3483         110.711 
       0.650632          102.22         56.9068         106.816 
       0.662899         101.871         54.6189         104.367 
       0.675076         98.1909         52.4747         101.812 
       0.687267         96.0369          50.443         99.3411 
       0.699615         93.0713         48.4934         97.3073 
       0.711937         90.2365         46.6505         94.5251 
       0.724148         89.4332         44.9189         93.1917 
       0.736433         85.7623         43.2666           90.66 
       0.748747         84.1993          41.695          88.647 
       0.761037         82.2994         40.2053         86.5408 
       0.773197         80.5077         38.8037         85.4621 
       0.785376         78.5515         37.4674         83.2686 
       0.797761         77.7924         36.1734         81.9542 
       0.810096         75.0918         34.9456         80.0825 
       0.822371         73.6788         33.7807         78.5066 
       0.834626         71.9709         32.6711         77.1867 
       0.846916         70.8712         31.6087         75.7796 
       0.859215         69.2921         30.5932         74.2218 
       0.871383          68.367         29.6327         72.9715 
        0.88363         66.4864         28.7079         71.9368 
       0.895928          65.106         27.8192         70.6458 
       0.908253         63.5415         26.9667         69.4385 
       0.920535         63.1888         26.1529         68.3172 
       0.932774          61.906         25.3757         67.1406 
        0.94508         61.0329         24.6264         65.9238 
       0.957324         59.4863         23.9111         65.0554 
        0.96953         59.4144         23.2265         63.8757 
       0.981769         57.4503         22.5672          63.114 
       0.994071         56.7791         21.9304         62.1714 
         1.0064          55.543         21.3172         61.2054 
        1.01868         54.6914         20.7294         60.3744 
        1.03092         53.8486         20.1664         59.4705 
         1.0432         52.9285         19.6225          58.506 
        1.05553         51.6266         19.0965         58.0415 
        1.06777          51.136         18.5938         57.1273 
           1.08         49.9379         18.1097         56.3002 
        1.09227         49.3512         17.6414         55.5186 
         1.1046         48.6183         17.1879         54.7642 
         1.1169         48.0562         16.7513         53.9794 
        1.12915          47.236          16.332         53.3932 
        1.14142         46.3294         15.9263         52.7187 
        1.15365         45.6496         15.5356         52.1081 
        1.16585         44.9584         15.1591         51.3614 
        1.17807         44.2331         14.7947         50.6979 
        1.19037         44.1003         14.4399         50.2444 
        1.20276         43.3247         14.0944         49.6185 
        1.21504         42.7319         13.7629          49.065 
        1.22728         41.9152         13.4435         48.4814 
        1.23954         41.4472         13.1335         47.8068 
        1.25184          40.744         12.8328         47.3718 
        1.26414         40.1729         12.5414         46.7584 
        1.27632         39.8481         12.2616         46.2802 
         1.2886         39.4263         11.9884         45.7793 
        1.30093         38.7416         11.7227         45.1897 
        1.31316         38.1553         11.4669         44.8192 
        1.32541         37.8965         11.2188         44.3104 
        1.33772         37.1666         10.9766          43.845 
        1.35005         36.7447         10.7414         43.4146 
        1.36225         36.1539         10.5156         42.9934 
        1.37447         35.3089         10.2958          42.509 
        1.38676          35.429         10.0813         42.1356 
        1.39907         34.8572         9.87258         41.7484 
        1.41133         34.1442         9.67069         41.3085 
        1.42358          33.801         9.47464         40.8774 
        1.43591         33.3984          9.2827         40.5272 
        1.44818         33.0623         9.09714         40.0598 
        1.46037         32.6365         8.91777         39.6959 
        1.47263         32.4003         8.74225         39.3801 
        1.48494         31.7715         8.57079         38.9637 
        1.49724         31.6865         8.40408         38.6023 
        1.50952          31.192         8.24215         38.2914 
        1.52178         30.7322         8.08473         37.9218 
        1.53409         30.4813          7.9308         37.5882 
        1.54637         30.0829          7.7812         37.2082 
        1.55858          29.395         7.63631         36.8905 
        1.57081         29.4849         7.49492         36.6044 
        1.58313         29.1172         7.35623         36.2554 
        1.59544         28.5733         7.22114         35.9542 
        1.60767          28.253         7.09031         35.5981 
        1.61994         27.9122         6.96227         35.3217 
        1.63225         27.7782         6.83713         35.0584 
        1.64452          27.354         6.71542         34.7636 
        1.65676         27.0709         6.59706         34.4482 
          1.669         26.8084         6.48146         34.2007 
        1.68133         26.4637         6.36791         33.8888 
        1.69363         26.0937         6.25741         33.5586 
        1.70585         25.8871         6.15024         33.3821 
        1.71809         25.4679         6.04538         33.0336 
        1.73038         25.3373         5.94262         32.8271 
        1.74268         25.0214          5.8422          32.497 
        1.75493         24.7036         5.74455         32.2709 
        1.76714         24.5712          5.6494         32.0351 
        1.77942         24.2961         5.55592          31.766 
        1.79173         23.8526         5.46431         31.5169 
        1.80402         23.6174         5.37496         31.3515 
         1.8163         23.5189         5.28766         30.9804 
         1.8286         23.1048         5.20216         30.8023 
         1.8409         22.9061         5.11862         30.5713 
        1.85315         22.6807         5.03719         30.3564 
        1.86537         22.3747          4.9577          30.126 
        1.87765         22.2469         4.87963         29.8911 
        1.88995         21.9426         4.80305         29.6281 
        1.90221         21.7271         4.72839         29.4172 
        1.91445         21.4574         4.65544         29.2034 
        1.92674         21.2681         4.58378         28.9864 
        1.93902         21.0167         4.51362         28.8019 
        1.95124         20.7062          4.4453         28.6399 
         1.9635         20.5858         4.37823         28.3818 
        1.97583         20.3724         4.31212         28.1821 
        1.98812         20.2022         4.24762         27.9985 
        2.00039         19.9841         4.18457         27.7893 
        2.01264         19.7535         4.12287         27.6093 
        2.02492         19.5961         4.06231         27.3775 
        2.03717         19.2992         4.00308         27.2005 
        2.04942         19.1472          3.9451         26.9953 
        2.06171         19.0092         3.88808         26.8187 
        2.07397         18.8175         3.83231         26.6093 
        2.08629         18.6381          3.7774           26.42 
        2.09857         18.4563          3.7237         26.2558 
        2.11081         18.2199         3.67126         26.0726 
        2.12309         18.0938         3.61971         25.8905 
        2.13538         17.8672         3.56908          25.718 
        2.14763         17.6947         3.51958         25.5464 
        2.15986         17.5814         3.47114         25.3815 
        2.17214         17.3758         3.42341         25.2144 
        2.18443         17.2062         3.37653         25.0265 
        2.19671         17.0302         3.33059         24.8495 
        2.20898         16.8671         3.28556         24.6862 
        2.22126          16.739         3.24132         24.5351 
        2.23354         16.6513          3.1979         24.3694 
         2.2458         16.4407         3.15536         24.2342 
        2.25807          16.234         3.11355         24.0286 
        2.27035         16.1089         3.07246          23.889 
        2.28263         15.9444         3.03214         23.7337 
         2.2949         15.8578         2.99256         23.5913 
        2.30718         15.7128         2.95367         23.4425 
        2.31946         15.5882         2.91546         23.2771 
        2.33169         15.4215         2.87809         23.1271 
        2.34393         15.2808         2.84131         22.9984 
        2.35622         15.0795         2.80506         22.8439 
        2.36847         14.9746         2.76955         22.6872 
        2.38076         14.8147         2.73454         22.5595 
        2.39305         14.7156         2.70015         22.4124 
        2.40534         14.5646         2.66635         22.2435 
        2.41762         14.4258         2.63313           22.14 
        2.42989         14.3108         2.60052         21.9776 
        2.44216         14.1771         2.56848         21.8444 
         2.4544         14.1581         2.53705         21.6948 
        2.46667          13.971         2.50607         21.5736 
        2.47897         13.7992         2.47553         21.4287 
        2.49124         13.7453         2.44559         21.2975 
        2.50349         13.5841         2.41618         21.1551 
        2.51578         13.4878         2.38717         21.0533 
        2.52805         13.3833         2.35869         20.9148 
        2.54029          13.297         2.33075         20.7858 
        2.55257         13.2034         2.30317         20.6552 
        2.56487         13.0221         2.27599         20.5325 
        2.57716         12.9492         2.24928         20.3896 
        2.58942         12.8745         2.22307         20.2897 
        2.60167         12.7165         2.19729         20.1654 
        2.61395         12.7082         2.17189         20.0409 
        2.62624         12.5992         2.14685         19.9175 
        2.63849         12.4672         2.12229          19.816 
        2.65073         12.3727         2.09813         19.6837 
        2.66302         12.3006         2.07427         19.5765 
         2.6753         12.2423         2.05079         19.4507 
        2.68756         12.1409         2.02773         19.3446 
        2.69983         12.0425           2.005         19.2231 
        2.71213         11.9444         1.98258         19.0963 
        2.72441         11.9033         1.96053         18.9951 
        2.73665         11.8262         1.93888         18.8835 
         2.7489         11.7676         1.91756         18.7658 
        2.76118          11.642          1.8965         18.6628 
        2.77349         11.5815         1.87571         18.5532 
        2.78576         11.4869         1.85531         18.4527 
        2.79802         11.4526         1.83522         18.3378 
        2.81031          11.379         1.81538          18.228 
        2.82259         11.3306         1.79585         18.1298 
        2.83483         11.2659         1.77668         18.0281 
         2.8471         11.2021         1.75775         17.9179 
         2.8594         11.1648         1.73903         17.8091 
         2.8717         11.1035          1.7206         17.7132 
        2.88396          11.031          1.7025         17.6114 
        2.89619         10.9967          1.6847         17.5085 
        2.90847         10.9503         1.66708         17.4174 
        2.92072         10.9132         1.64974         17.3024 
        2.93299         10.8267         1.63265         17.2141 
        2.94526         10.8137         1.61578         17.1235 
        2.95753         10.7656         1.59915         17.0202 
        2.96982         10.7208         1.58273         16.9231 
        2.98209         10.7154         1.56657         16.8287 
        2.99436         10.6903         1.55063         16.7286 
        3.00666         10.6594         1.53487         16.6362 
        3.01894         10.6351         1.51937         16.5571 
        3.03119         10.5969         1.50411         16.4591 
        3.04345          10.533         1.48905         16.3549 
        3.05573         10.5567         1.47417         16.2683 
          3.068         10.5359         1.45951         16.1865 
        3.08026         10.5129         1.44506         16.0834 
        3.09254         10.5162         1.43079         16.0023 
        3.10483         10.5069          1.4167         15.9241 
         3.1171         10.5293         1.40282         15.8308 
        3.12933         10.5016         1.38916         15.7419 
        3.14159         10.4674         1.37566         15.6521 
