# k  (h/Mpc)    P(k)  (Mpc/h)^3    P_linear(k)  (Mpc/h)^3     P_NL(k)  ShotnoiseSubtracted = false
      0.0156606         22355.7         22452.6         22272.8 
      0.0273761           19122         19379.1         19162.2 
      0.0384619         14441.2         14586.4         14393.2 
      0.0498308           11141         11466.4         11271.8 
      0.0625568         9408.96         9740.86         9568.22 
      0.0751274         8381.97         8273.64         8031.55 
      0.0867833          6488.3            6660         6584.78 
      0.0984825          5489.1         5269.85         5335.69 
       0.111151         4698.55         4399.76         4482.64 
       0.123864         4207.81         3964.75         4031.69 
       0.135742         3838.78         3565.09         3632.09 
        0.14762         3344.04         3048.19         3225.47 
       0.160083         2845.52         2540.74         2760.02 
       0.172465         2537.68         2217.51         2496.88 
       0.184281         2297.31         2044.23         2323.87 
       0.196406         2171.58          1887.8         2141.68 
       0.209011          2033.9         1679.63         1942.28 
       0.221538         1830.32         1467.81         1815.76 
       0.233611         1757.78         1313.29         1703.45 
       0.245665         1592.13          1212.1         1574.06 
       0.258103         1579.87         1128.35         1486.89 
       0.270422         1408.77         1036.82         1397.94 
       0.282519         1332.74         940.961         1325.36 
       0.294636          1306.8         857.313         1256.42 
       0.306978         1196.12         793.154         1204.96 
       0.319417         1174.21          741.55         1136.42 
        0.33169         1103.12         692.154         1077.11 
       0.343948         1060.04         641.317         1044.51 
       0.356249         1005.94         593.643         1006.47 
       0.368458         964.841         553.711         962.999 
        0.38068         951.046         520.321         927.078 
       0.392856          903.82         489.837         895.487 
       0.405069         856.529         460.028         866.299 
       0.417459         823.816         431.169         837.039 
       0.429752         821.481         405.262         808.027 
       0.441978         792.555         382.524         787.982 
       0.454294          758.23         361.876         756.368 
        0.46658         736.797         342.501         741.206 
       0.478753         723.316         324.224          719.22 
       0.490964         695.457         307.056         697.558 
       0.503334         666.225         291.211         682.524 
       0.515665         663.531         276.762         667.117 
       0.527909         635.751         263.423         653.633 
       0.540159         620.546         250.803         637.521 
        0.55248         607.968         238.829         621.204 
       0.564743         602.767         227.741          610.75 
        0.57686         583.288         217.551         594.904 
       0.589077         573.572         207.931         582.009 
       0.601441         559.544         198.784         570.932 
        0.61382         543.731          190.16         560.963 
       0.626067         538.079         182.112         550.789 
       0.638306         518.549         174.534         539.616 
       0.650632         513.718         167.354         527.164 
       0.662899         509.507         160.625          520.74 
       0.675076         493.365          154.32         513.874 
       0.687267         479.072         148.345         501.831 
       0.699615         477.823         142.611         493.939 
       0.711937         467.514         137.191         484.631 
       0.724148         452.475         132.099          478.32 
       0.736433         441.906          127.24         469.964 
       0.748747         436.283         122.618         461.772 
       0.761037         428.574         118.237         456.302 
       0.773197         421.846         114.115         448.721 
       0.785376         416.602         110.185         442.348 
       0.797761         404.107          106.38         435.928 
       0.810096         399.445         102.769         430.381 
       0.822371         389.057         99.3431         423.449 
       0.834626         385.115         96.0799         418.617 
       0.846916         379.367         92.9555         412.069 
       0.859215          374.65         89.9691         406.044 
       0.871383         366.316         87.1443         400.763 
        0.88363          361.92         84.4245         396.731 
       0.895928         356.887         81.8111         390.599 
       0.908253         348.046          79.304         384.185 
       0.920535         341.004         76.9109         380.139 
       0.932774         336.016         74.6253         374.352 
        0.94508         330.836         72.4216         370.643 
       0.957324         327.292          70.318          365.72 
        0.96953           323.1         68.3048         361.314 
       0.981769         315.332         66.3658         357.298 
       0.994071         314.101         64.4931         352.978 
         1.0064          308.18         62.6899         347.857 
        1.01868         304.588         60.9611         343.453 
        1.03092         295.495         59.3056         340.468 
         1.0432         292.692         57.7059         336.356 
        1.05553         289.594         56.1592         331.722 
        1.06777          285.59         54.6807         327.971 
           1.08         279.052         53.2571         324.366 
        1.09227         278.368         51.8798         320.476 
         1.1046         272.777         50.5463         317.461 
         1.1169          266.94         49.2622         313.263 
        1.12915         263.203         48.0292         310.077 
        1.14142         257.855         46.8361         306.436 
        1.15365         254.947         45.6871         303.226 
        1.16585         250.524         44.5799         299.844 
        1.17807         248.078         43.5082         296.592 
        1.19037         243.676         42.4648         294.088 
        1.20276         240.677         41.4487          290.25 
        1.21504         235.659          40.474         286.996 
        1.22728         232.195         39.5347         283.882 
        1.23954         230.814         38.6231         281.039 
        1.25184         225.485         37.7387         278.079 
        1.26414         220.967         36.8816         275.453 
        1.27632         219.104         36.0589         272.925 
         1.2886          217.09         35.2556         269.832 
        1.30093         212.161          34.474         266.412 
        1.31316         207.653         33.7219         263.869 
        1.32541         206.547         32.9921         261.066 
        1.33772         202.869         32.2799         258.703 
        1.35005         200.457         31.5884          255.78 
        1.36225         196.569         30.9241         253.391 
        1.37447         193.461         30.2778         250.322 
        1.38676         191.594         29.6471         248.561 
        1.39907         188.777         29.0332         245.525 
        1.41133         185.113         28.4395         242.961 
        1.42358         182.864          27.863         240.678 
        1.43591          180.44         27.2985         238.525 
        1.44818         176.955         26.7528         236.011 
        1.46037         175.472         26.2253         233.477 
        1.47263         171.995         25.7092         231.274 
        1.48494         170.539         25.2049         228.502 
        1.49724         167.518         24.7147          227.07 
        1.50952         164.519         24.2385         224.439 
        1.52178         162.721         23.7755         222.201 
        1.53409         159.777         23.3228         220.179 
        1.54637         157.307         22.8829          218.36 
        1.55858         155.582         22.4568         216.036 
        1.57081         152.825          22.041         213.946 
        1.58313         150.843         21.6332         211.772 
        1.59544         148.053         21.2359         209.886 
        1.60767         146.663         20.8511         208.023 
        1.61994         144.162         20.4746         205.937 
        1.63225         141.851         20.1066         203.848 
        1.64452         139.575         19.7487         202.042 
        1.65676         137.798         19.4006          200.31 
          1.669         136.195         19.0606         198.318 
        1.68133         133.508         18.7267         196.508 
        1.69363         131.193         18.4017         194.874 
        1.70585         129.141         18.0866          193.06 
        1.71809         127.453         17.7782         190.993 
        1.73038         125.839          17.476         189.402 
        1.74268         124.673         17.1807         187.548 
        1.75493         121.779         16.8935         186.034 
        1.76714         121.175         16.6137         184.408 
        1.77942         118.614         16.3388         182.687 
        1.79173         116.842         16.0694         180.971 
        1.80402          115.29         15.8066         179.361 
         1.8163         113.201         15.5499         177.932 
         1.8286         111.695         15.2985         176.185 
         1.8409         110.355         15.0528         174.552 
        1.85315         108.142         14.8133         173.121 
        1.86537          107.11         14.5796          171.66 
        1.87765          105.75           14.35         170.191 
        1.88995         103.799         14.1248         168.563 
        1.90221         102.534         13.9052         167.254 
        1.91445         100.978         13.6907         165.644 
        1.92674         99.3563         13.4799         164.183 
        1.93902         98.1582         13.2736         162.703 
        1.95124         96.7839         13.0727         161.336 
         1.9635         95.1788         12.8755         159.933 
        1.97583         93.7186          12.681         158.519 
        1.98812         92.3642         12.4914         157.396 
        2.00039          91.324          12.306         155.876 
        2.01264         90.1861         12.1245         154.594 
        2.02492          88.921         11.9464         153.176 
        2.03717         87.5539         11.7722         151.977 
        2.04942         86.4331         11.6017         150.675 
        2.06171          84.902          11.434         149.336 
        2.07397         83.9071           11.27         148.203 
        2.08629         82.6141         11.1085         146.908 
        2.09857          81.628         10.9506         145.735 
        2.11081         80.2955         10.7964          144.39 
        2.12309         79.2879         10.6448          143.29 
        2.13538         77.9833         10.4959         142.037 
        2.14763         76.9203         10.3503         140.884 
        2.15986         76.0571         10.2079         139.626 
        2.17214         74.9661         10.0675         138.555 
        2.18443          74.038         9.92968         137.565 
        2.19671         73.0917         9.79458         136.365 
        2.20898           72.13         9.66215         135.139 
        2.22126         71.0658         9.53203         134.151 
        2.23354         70.1912         9.40436         133.081 
         2.2458         68.8256         9.27924         131.955 
        2.25807         68.1442         9.15629         130.902 
        2.27035         67.1572         9.03547         129.839 
        2.28263         66.3331         8.91688         128.852 
         2.2949         65.0458         8.80048         127.834 
        2.30718         64.1729         8.68613         126.783 
        2.31946         63.5885         8.57375           125.7 
        2.33169         62.5777         8.46385         124.759 
        2.34393         62.0574          8.3557         123.883 
        2.35622         60.9639          8.2491         122.824 
        2.36847         60.3573         8.14465         121.975 
        2.38076         59.2712         8.04171         120.901 
        2.39305         58.7074         7.94057         120.067 
        2.40534          57.822         7.84116         119.066 
        2.41762         57.2038         7.74347         118.117 
        2.42989         56.2958         7.64759          117.26 
        2.44216         55.7871         7.55335          116.28 
         2.4544         54.8978         7.46091         115.443 
        2.46667         54.1249         7.36981         114.562 
        2.47897          53.616         7.28001         113.613 
        2.49124         52.9912         7.19195         112.768 
        2.50349         52.1003         7.10548         111.934 
        2.51578         51.7269         7.02017         111.172 
        2.52805         50.9167         6.93642         110.244 
        2.54029         50.4105         6.85424         109.405 
        2.55257         49.7511         6.77314         108.648 
        2.56487         49.4282          6.6932         107.838 
        2.57716         48.8585         6.61467         107.033 
        2.58942         48.0593         6.53757         106.246 
        2.60167          47.534         6.46177         105.476 
        2.61395         47.1882         6.38706         104.676 
        2.62624         46.3927         6.31343         103.846 
        2.63849         45.9025          6.2412         103.124 
        2.65073         45.2879         6.17017         102.367 
        2.66302         44.9073         6.09999         101.614 
         2.6753         44.3212         6.03095         100.902 
        2.68756         44.0017         5.96312         100.134 
        2.69983           43.45         5.89629         99.4208 
        2.71213         42.9578         5.83033          98.713 
        2.72441         42.5683         5.76551         97.9869 
        2.73665         42.0968         5.70183         97.3169 
         2.7489          41.641         5.63914         96.6346 
        2.76118         41.2516         5.57721          95.913 
        2.77349         40.8021         5.51606         95.2511 
        2.78576         40.4204         5.45606         94.5522 
        2.79802         40.0698         5.39699         93.9478 
        2.81031         39.5339         5.33866         93.2618 
        2.82259         39.1588         5.28121         92.5692 
        2.83483         38.7366         5.22483         91.9672 
         2.8471         38.3705         5.16916          91.299 
         2.8594         37.9781         5.11413         90.6522 
         2.8717         37.7161         5.05992         90.0681 
        2.88396         37.3992          5.0067         89.4389 
        2.89619         37.0925         4.95434         88.7741 
        2.90847         36.7336         4.90253         88.1279 
        2.92072         36.4516         4.85155          87.586 
        2.93299          36.306         4.80127         87.0047 
        2.94526         35.9362         4.75166         86.3883 
        2.95753          35.702         4.70276         85.7861 
        2.96982         35.3295         4.65447         85.2181 
        2.98209         35.2042         4.60695         84.6456 
        2.99436         34.9162         4.56006         84.0403 
        3.00666         34.7795         4.51374         83.4786 
        3.01894         34.5545         4.46816         82.9278 
        3.03119         34.3208         4.42326         82.3955 
        3.04345         34.1184         4.37899         81.8532 
        3.05573         34.0223         4.33523         81.2958 
          3.068         33.8095         4.29211         80.7604 
        3.08026         33.6195         4.24963         80.2207 
        3.09254         33.5499         4.20764         79.6983 
        3.10483         33.5479         4.16621         79.1768 
         3.1171         33.3678         4.12539         78.6466 
        3.12933         33.1367         4.08524         78.1243 
        3.14159         33.1436         4.04553         77.6038 
